# q (1/Angstrom), Intensity (arb)
2.029070354705860696e-02 2.611790680668455593e+02
2.133125244372399004e-02 2.262254188245115927e+02
2.237180134038937659e-02 2.013785710322481748e+02
2.341235023705475968e-02 1.800107638837778268e+02
2.445289913372014276e-02 1.647304047942364775e+02
2.549344803038552584e-02 1.534298802970865268e+02
2.653399692705091240e-02 1.426624103588492574e+02
2.757454582371629548e-02 1.349110873144887819e+02
2.861509472038167856e-02 1.248902390252104340e+02
2.965564361704706164e-02 1.182087780668046122e+02
3.069619251371244473e-02 1.118696878919260627e+02
3.173674141037782781e-02 1.079797485695945625e+02
3.277729030704321089e-02 1.050023729663366794e+02
3.381783920370859398e-02 1.016377783719077001e+02
3.485838810037397706e-02 1.003091780378886995e+02
3.589893699703936014e-02 9.908696236451930872e+01
3.693948589370474322e-02 9.877734263946587134e+01
3.798003479037012631e-02 9.598047708976463355e+01
3.902058368703550939e-02 9.775561208572915461e+01
4.006113258370089247e-02 9.851816344111753665e+01
4.110168148036627556e-02 1.008411955140463476e+02
4.214223037703165864e-02 1.050810480051337947e+02
4.318277927369704866e-02 1.087537767896060643e+02
4.422332817036243174e-02 1.142105482257794904e+02
4.526387706702781483e-02 1.207815784986710810e+02
4.630442596369319791e-02 1.272497655014875022e+02
4.734497486035858099e-02 1.389824431949213306e+02
4.838552375702396408e-02 1.552012093893110034e+02
4.942607265368934716e-02 1.767167601070202352e+02
5.046662155035473024e-02 2.045651542803080076e+02
5.150717044702011332e-02 2.500249497973419750e+02
5.254771934368549641e-02 3.238978814898709402e+02
5.358826824035087949e-02 4.503850243055395026e+02
5.462881713701626257e-02 6.385775041961727538e+02
5.566936603368164566e-02 8.985499225384888859e+02
5.670991493034702874e-02 1.213691371507150052e+03
5.775046382701241182e-02 1.440801106802068944e+03
5.879101272367779490e-02 1.474194771760769754e+03
5.983156162034317799e-02 1.362246769646663324e+03
6.087211051700856107e-02 1.175444927562914017e+03
6.191265941367394415e-02 9.711842553923825108e+02
6.295320831033933417e-02 7.871647009426252453e+02
6.399375720700471726e-02 6.293804028791095106e+02
6.503430610367010034e-02 5.038827582190207295e+02
6.607485500033548342e-02 4.030871489405372472e+02
6.711540389700086651e-02 3.207720687195417213e+02
6.815595279366624959e-02 2.512967059241485686e+02
6.919650169033163267e-02 1.933248322664296666e+02
7.023705058699701576e-02 1.473511831168852666e+02
7.127759948366239884e-02 1.110864435617890820e+02
7.231814838032778192e-02 8.228204847821898227e+01
7.335869727699316500e-02 6.311591749121137696e+01
7.439924617365854809e-02 4.892602615424057433e+01
7.543979507032393117e-02 3.802869583561553668e+01
7.648034396698931425e-02 3.046253733787464668e+01
7.752089286365469734e-02 2.634121894115679297e+01
7.856144176032008042e-02 2.208888925111617496e+01
7.960199065698546350e-02 1.902874023282448945e+01
8.064253955365084658e-02 1.788194595076580740e+01
8.168308845031622967e-02 1.699637948569619894e+01
8.272363734698161275e-02 1.563638479654868974e+01
8.376418624364699583e-02 1.566187647700030894e+01
8.480473514031239279e-02 1.588224897237432742e+01
8.584528403697777588e-02 1.651774803187745633e+01
8.688583293364315896e-02 1.731728505748310454e+01
8.792638183030854204e-02 1.861716544225490466e+01
8.896693072697392513e-02 2.162707124091932442e+01
9.000747962363930821e-02 2.569976374267198693e+01
9.104802852030469129e-02 3.205665222139640491e+01
9.208857741697007437e-02 4.224987065455168533e+01
9.312912631363545746e-02 5.350001025575522817e+01
9.416967521030084054e-02 6.188410514247577510e+01
9.521022410696622362e-02 6.598024330790310898e+01
9.625077300363160671e-02 6.729865386123468340e+01
9.729132190029698979e-02 6.681616227893485416e+01
9.833187079696237287e-02 6.472152618293068826e+01
9.937241969362775595e-02 6.135204708111628236e+01
1.004129685902931390e-01 5.792746609664381197e+01
1.014535174869585221e-01 5.428499725930819864e+01
1.024940663836239052e-01 5.227252741604334574e+01
1.035346152802892883e-01 5.056894071014317404e+01
1.045751641769546714e-01 5.019668328311989569e+01
1.056157130736200545e-01 5.093772011058182159e+01
1.066562619702854375e-01 5.360583589626308765e+01
1.076968108669508206e-01 5.988519216996758843e+01
1.087373597636162037e-01 6.711857275538764611e+01
1.097779086602815868e-01 7.351482444417229090e+01
1.108184575569469699e-01 7.541658301327316849e+01
1.118590064536123529e-01 7.366117473222720946e+01
1.128995553502777360e-01 7.178419053146936335e+01
1.139401042469431191e-01 6.852884596623587754e+01
1.149806531436085022e-01 6.267921474234427137e+01
1.160212020402738853e-01 5.621763049445996785e+01
1.170617509369392684e-01 4.969318004173962322e+01
1.181022998336046514e-01 4.392734003656370589e+01
1.191428487302700345e-01 3.890842477750774009e+01
1.201833976269354176e-01 3.341404133083578643e+01
1.212239465236008007e-01 2.816003214387846754e+01
1.222644954202661838e-01 2.406122823902200025e+01
1.233050443169315669e-01 2.028646796534936314e+01
1.243455932135969499e-01 1.695247501959916292e+01
1.253861421102623330e-01 1.426802815172739614e+01
1.264266910069277161e-01 1.237932490644119810e+01
1.274672399035930992e-01 1.071938790952425435e+01
1.285077888002584823e-01 9.136921223894574950e+00
1.295483376969238654e-01 8.142002028723538842e+00
1.305888865935892484e-01 7.369411984633067902e+00
1.316294354902546315e-01 6.313452864246727358e+00
1.326699843869200146e-01 5.607638944770034328e+00
1.337105332835853977e-01 5.966246343853192968e+00
1.347510821802507808e-01 5.961674785694068390e+00
1.357916310769161639e-01 5.686395678582897517e+00
1.368321799735815469e-01 5.260234139610791004e+00
1.378727288702469300e-01 5.627726551487537421e+00
1.389132777669123131e-01 5.817901746900506765e+00
1.399538266635776962e-01 5.924256067253818259e+00
1.409943755602430793e-01 6.983053451009208601e+00
1.420349244569084624e-01 7.757805628596049274e+00
1.430754733535738454e-01 8.386259866819553821e+00
1.441160222502392285e-01 9.764254690908078516e+00
1.451565711469046116e-01 1.125152123806308424e+01
1.461971200435699947e-01 1.273980578832323118e+01
1.472376689402353778e-01 1.360602312593812613e+01
1.482782178369007609e-01 1.372955736731981347e+01
1.493187667335661439e-01 1.396068297293108529e+01
1.503593156302315270e-01 1.355013411735935236e+01
1.513998645268969101e-01 1.282809550085659467e+01
1.524404134235622932e-01 1.255163091019101174e+01
1.534809623202276763e-01 1.219631346392887039e+01
1.545215112168930593e-01 1.130320442467921893e+01
1.555620601135584424e-01 1.094599545736398483e+01
1.566026090102238255e-01 1.086620358031780142e+01
1.576431579068892086e-01 1.047662069462488432e+01
1.586837068035545917e-01 9.954173033577720986e+00
1.597242557002199748e-01 9.915948002257323424e+00
1.607648045968853578e-01 9.904042612338511020e+00
1.618053534935507409e-01 9.774860157130525806e+00
1.628459023902161240e-01 9.731720761665563657e+00
1.638864512868815071e-01 9.288051495503285793e+00
1.649270001835468902e-01 8.734461889480400032e+00
1.659675490802122733e-01 8.445367920715000309e+00
1.670080979768776563e-01 7.884116206712281638e+00
1.680486468735430672e-01 7.742315725758004419e+00
1.690891957702084503e-01 7.635916538793530606e+00
1.701297446668738333e-01 7.725522700573282719e+00
1.711702935635392164e-01 7.785739457023950649e+00
1.722108424602045995e-01 7.634750085059444302e+00
1.732513913568699826e-01 7.165454600975397881e+00
1.742919402535353657e-01 6.762181388964549456e+00
1.753324891502007488e-01 6.114315110073036408e+00
1.763730380468661318e-01 5.669762795978890324e+00
1.774135869435315149e-01 5.202878787836592522e+00
1.784541358401968980e-01 5.129778006016668002e+00
1.794946847368622811e-01 4.872192819840709177e+00
1.805352336335276642e-01 4.773241163671084308e+00
1.815757825301930473e-01 4.398704003805466556e+00
1.826163314268584303e-01 4.504878078178453649e+00
1.836568803235238134e-01 4.194122512758660548e+00
1.846974292201891965e-01 3.961625356288255517e+00
1.857379781168545796e-01 3.950246226214307654e+00
1.867785270135199627e-01 3.757240921351968410e+00
1.878190759101853458e-01 3.550237229911711978e+00
1.888596248068507288e-01 3.636558046668461941e+00
1.899001737035161119e-01 3.549463983843249792e+00
1.909407226001814950e-01 3.413109686378177798e+00
1.919812714968468781e-01 3.182837534927987377e+00
1.930218203935122612e-01 3.272929060583766869e+00
1.940623692901776443e-01 3.660858390863054979e+00
1.951029181868430273e-01 3.592131684624437327e+00
1.961434670835084104e-01 3.967407225185326070e+00
1.971840159801737935e-01 4.445105941153911999e+00
1.982245648768391766e-01 4.524168677286752427e+00
1.992651137735045597e-01 4.494846707856567036e+00
2.003056626701699428e-01 4.169012429521369967e+00
2.013462115668353813e-01 3.743268922119529662e+00
2.023867604635007644e-01 3.672815871555478395e+00
2.034273093601661475e-01 4.187258381741468583e+00
2.044678582568315306e-01 4.064472796208946193e+00
2.055084071534969137e-01 3.633743466170635372e+00
2.065489560501622968e-01 3.749745924865017344e+00
2.075895049468276798e-01 3.782271951767924634e+00
2.086300538434930629e-01 3.836344712482777197e+00
2.096706027401584460e-01 3.973964149519908062e+00
2.107111516368238291e-01 3.755696330270698269e+00
2.117517005334892122e-01 3.622761957521063891e+00
2.127922494301545953e-01 3.807217031213173897e+00
2.138327983268199783e-01 3.575039661768030896e+00
2.148733472234853614e-01 3.614479884069851323e+00
2.159138961201507445e-01 3.717202281684048870e+00
2.169544450168161276e-01 3.692840471842682604e+00
2.179949939134815107e-01 3.642066701961432784e+00
2.190355428101468938e-01 3.633202963641871008e+00
2.200760917068122768e-01 3.483695359425286853e+00
2.211166406034776599e-01 3.572994759398945064e+00
2.221571895001430430e-01 3.398737205083939728e+00
2.231977383968084261e-01 3.268954645852627294e+00
2.242382872934738092e-01 3.117538590909884277e+00
2.252788361901391923e-01 3.185514267121241971e+00
2.263193850868045753e-01 3.049976407948157942e+00
2.273599339834699584e-01 3.205943153246842314e+00
2.284004828801353415e-01 2.828126746334557851e+00
2.294410317768007246e-01 2.620714846962048483e+00
2.304815806734661077e-01 2.491544834387678264e+00
2.315221295701314908e-01 2.494304255771911727e+00
2.325626784667968738e-01 2.556694708657520465e+00
2.336032273634622569e-01 2.364911245818731800e+00
2.346437762601276400e-01 2.411943425757424819e+00
2.356843251567930231e-01 2.226496162757364061e+00
2.367248740534584062e-01 2.279850976604301138e+00
2.377654229501237892e-01 2.139111572588127785e+00
2.388059718467891723e-01 1.894784490929406928e+00
2.398465207434545554e-01 1.691670303099467532e+00
2.408870696401199385e-01 1.937628157696238418e+00
2.419276185367853216e-01 2.261312968416291369e+00
2.429681674334507047e-01 1.971648746034077249e+00
2.440087163301160877e-01 2.247051688098320454e+00
2.450492652267814708e-01 2.288905476289514240e+00
2.460898141234468539e-01 2.211461692374736998e+00
2.471303630201122370e-01 2.215181028738140157e+00
2.481709119167776201e-01 2.208897800458785809e+00
2.492114608134430032e-01 2.109440743168601529e+00
2.502520097101083585e-01 2.087090374838048490e+00
2.512925586067737416e-01 1.976356497503566345e+00
2.523331075034391247e-01 1.927109573668875697e+00
2.533736564001045077e-01 2.001241105062952386e+00
2.544142052967698908e-01 1.932840802982369155e+00
2.554547541934352739e-01 2.045141539315043389e+00
2.564953030901006570e-01 2.064029789669799442e+00
2.575358519867660401e-01 2.159756051484283290e+00
2.585764008834314231e-01 2.044720541207816211e+00
2.596169497800968062e-01 2.192397804523700700e+00
2.606574986767621893e-01 2.334031760180927506e+00
2.616980475734275724e-01 2.165818020308218905e+00
2.627385964700929555e-01 2.122832916050164442e+00
2.637791453667583386e-01 2.120282920750515387e+00
2.648196942634237216e-01 2.031564161122254575e+00
2.658602431600891047e-01 1.967700150991735342e+00
2.669007920567544878e-01 1.748004319802227258e+00
2.679413409534198709e-01 1.858433314833042971e+00
2.689818898500852540e-01 1.734379805482401338e+00
2.700224387467506371e-01 1.712209164225541258e+00
2.710629876434160201e-01 1.893338085804877835e+00
2.721035365400814032e-01 1.947720642466691743e+00
2.731440854367467863e-01 2.154821760196103497e+00
2.741846343334121694e-01 2.241405757118176467e+00
2.752251832300775525e-01 2.243726960801485149e+00
2.762657321267429356e-01 2.096288073740876001e+00
2.773062810234083186e-01 2.025918069830741075e+00
2.783468299200737017e-01 1.935357100955808818e+00
2.793873788167390848e-01 1.816739203448822337e+00
2.804279277134044679e-01 1.927682427823722122e+00
2.814684766100698510e-01 1.773574176129518065e+00
2.825090255067352341e-01 1.544271066328736453e+00
2.835495744034006171e-01 1.609939620836346563e+00
2.845901233000660002e-01 1.880387182718109784e+00
2.856306721967313833e-01 1.746707037760433678e+00
2.866712210933967664e-01 1.587103909731744977e+00
2.877117699900621495e-01 1.722638982675466224e+00
2.887523188867275326e-01 1.613168739860679324e+00
2.897928677833929156e-01 1.791519697757259166e+00
2.908334166800582987e-01 1.958941575812396252e+00
2.918739655767236818e-01 1.597567158279559862e+00
2.929145144733890649e-01 1.340838103775247703e+00
2.939550633700544480e-01 1.446380928413475431e+00
2.949956122667198311e-01 1.585987669155549895e+00
2.960361611633852141e-01 1.712742654527488639e+00
2.970767100600505972e-01 1.659545108780587697e+00
2.981172589567159803e-01 1.706707450553125227e+00
2.991578078533813634e-01 1.536602581390930311e+00
3.001983567500468020e-01 1.616701393901525563e+00
3.012389056467121851e-01 1.729991994195671623e+00
3.022794545433775681e-01 1.601650781790890932e+00
3.033200034400429512e-01 1.418016077213803072e+00
3.043605523367083343e-01 1.489722273649377371e+00
3.054011012333737174e-01 1.386814789514097868e+00
3.064416501300391005e-01 1.513582073279543749e+00
3.074821990267044836e-01 1.644576221864625154e+00
3.085227479233698666e-01 1.487701332433747581e+00
3.095632968200352497e-01 1.681853257989526895e+00
3.106038457167006328e-01 1.513853335987228377e+00
3.116443946133660159e-01 1.330208367956238646e+00
3.126849435100313990e-01 1.309964854620460528e+00
3.137254924066967821e-01 1.367560545526181670e+00
3.147660413033621651e-01 1.391744971633297467e+00
3.158065902000275482e-01 1.186084979849141519e+00
3.168471390966929313e-01 1.386594847203280523e+00
3.178876879933583144e-01 1.445856075621410497e+00
3.189282368900236975e-01 1.354516475525898045e+00
3.199687857866890806e-01 1.340694184527876587e+00
3.210093346833544636e-01 1.441602354758455107e+00
3.220498835800198467e-01 1.280891860582645592e+00
3.230904324766852298e-01 1.244229542522692356e+00
3.241309813733506129e-01 1.308543249754091420e+00
3.251715302700159960e-01 1.241011526328410497e+00
3.262120791666813790e-01 1.229997739658216460e+00
3.272526280633467621e-01 1.242299410348529420e+00
3.282931769600121452e-01 1.317082284977164619e+00
3.293337258566775283e-01 1.435772789707868924e+00
3.303742747533429114e-01 1.328993232334195085e+00
3.314148236500082945e-01 1.272240149666664877e+00
3.324553725466736775e-01 1.267440082199961182e+00
3.334959214433390606e-01 1.045940390653900209e+00
3.345364703400044437e-01 1.092732151740928970e+00
3.355770192366698268e-01 1.152018924844529835e+00
3.366175681333352099e-01 1.147266025161133740e+00
3.376581170300005930e-01 1.174691990716830503e+00
3.386986659266659760e-01 1.116532467396144312e+00
3.397392148233313591e-01 1.181719321429266500e+00
3.407797637199967422e-01 1.181436183884496671e+00
3.418203126166621253e-01 9.907271643848147846e-01
3.428608615133275084e-01 9.554827019397187371e-01
3.439014104099928915e-01 1.011066251537556582e+00
3.449419593066582745e-01 1.194520927886596695e+00
3.459825082033236576e-01 1.042557693919690109e+00
3.470230570999890407e-01 1.016581901933669485e+00
3.480636059966544238e-01 1.204290070276229585e+00
3.491041548933198069e-01 1.126522985658386489e+00
3.501447037899851900e-01 1.060891042895171665e+00
3.511852526866505730e-01 1.112296199698963761e+00
3.522258015833159561e-01 1.238744334463998342e+00
3.532663504799813392e-01 1.103740939344159955e+00
3.543068993766467223e-01 1.023440541479640586e+00
3.553474482733121054e-01 1.110244176409214134e+00
3.563879971699774885e-01 1.053448678570923391e+00
3.574285460666428715e-01 9.299108920716143700e-01
3.584690949633082546e-01 8.574682641053463783e-01
3.595096438599736377e-01 9.815473512931234268e-01
3.605501927566390208e-01 1.039086021342651378e+00
3.615907416533044039e-01 9.847625128181967114e-01
3.626312905499697870e-01 8.840637437434821777e-01
3.636718394466351700e-01 1.003551164291785369e+00
3.647123883433005531e-01 9.569136451304594004e-01
3.657529372399659362e-01 8.098058746364458216e-01
3.667934861366313193e-01 8.901944558159620158e-01
3.678340350332967024e-01 8.592775511235295482e-01
3.688745839299620854e-01 7.990650306118780577e-01
3.699151328266274685e-01 7.232438614041392100e-01
3.709556817232928516e-01 7.348182303246808544e-01
3.719962306199582347e-01 9.484525164997918978e-01
3.730367795166236178e-01 9.907650942646313297e-01
3.740773284132890009e-01 9.525205529025804196e-01
3.751178773099543839e-01 1.042172731460770052e+00
3.761584262066197670e-01 9.529142285067102591e-01
3.771989751032851501e-01 8.944228965174403356e-01
3.782395239999505332e-01 7.360464774988066949e-01
3.792800728966159163e-01 9.328227912072435402e-01
3.803206217932812994e-01 9.280983914192795226e-01
3.813611706899466824e-01 8.460973586207209962e-01
3.824017195866120655e-01 7.616706112047246791e-01
3.834422684832774486e-01 8.232385167864215703e-01
3.844828173799428317e-01 8.124836726306732260e-01
3.855233662766082148e-01 8.694666078513897389e-01
3.865639151732735979e-01 9.355216834411983484e-01
3.876044640699389809e-01 8.918032212196358444e-01
3.886450129666043640e-01 9.092744798214127400e-01
3.896855618632697471e-01 8.250592249493244879e-01
3.907261107599351302e-01 8.778984479071674230e-01
3.917666596566005133e-01 8.606807262601883224e-01
3.928072085532658964e-01 7.770903463030478520e-01
3.938477574499312794e-01 7.164998390421963848e-01
3.948883063465966625e-01 6.442297941819887797e-01
3.959288552432620456e-01 7.407293773573080387e-01
3.969694041399274287e-01 6.737992586144194718e-01
3.980099530365928118e-01 8.761082373661039924e-01
3.990505019332581949e-01 6.533771199885478609e-01
4.000910508299235779e-01 4.252536866056360054e-01
4.011315997265889610e-01 5.203894885198749876e-01
4.021721486232543441e-01 6.404929187845063154e-01
4.032126975199197272e-01 5.905790898285054880e-01
4.042532464165851103e-01 7.180095973191065184e-01
4.052937953132504934e-01 8.810628821319568260e-01
4.063343442099158764e-01 7.433757598489627583e-01
4.073748931065812595e-01 0.000000000000000000e+00
4.084154420032466426e-01 8.535735700965929595e-02
4.094559908999120257e-01 8.032145625638946740e-01
4.104965397965774088e-01 6.297535689865654263e-01
4.115370886932427918e-01 5.465195248195691136e-01
4.125776375899081749e-01 6.065194601758712167e-01
4.136181864865735580e-01 5.844723605110679898e-01
4.146587353832389411e-01 6.730644535057308531e-01
4.156992842799043242e-01 6.428712308042747736e-01
4.167398331765697073e-01 6.957981474954095802e-01
4.177803820732350903e-01 6.443995707110907745e-01
4.188209309699004734e-01 7.554559276785113298e-01
4.198614798665658565e-01 5.981136954904435754e-01
4.209020287632312396e-01 6.945303526637580660e-01
4.219425776598966227e-01 7.277551362029974769e-01
4.229831265565620058e-01 7.138219970538948189e-01
4.240236754532273888e-01 7.447023284007805444e-01
4.250642243498927719e-01 7.849873731172642977e-01
4.261047732465581550e-01 8.079023058390291112e-01
4.271453221432235381e-01 7.536801202659511034e-01
4.281858710398889212e-01 7.151976445843715169e-01
4.292264199365543043e-01 5.714404298152295780e-01
4.302669688332196873e-01 4.740647004592908331e-01
4.313075177298850704e-01 5.230784191137161088e-01
4.323480666265504535e-01 5.327113303969532865e-01
4.333886155232158366e-01 6.500334956096409655e-01
4.344291644198812197e-01 5.798319610521645018e-01
