# q (1/Angstrom), Intensity (arb)
2.029070354705860696e-02 2.562014515147149041e+02
2.133125244372399004e-02 2.210851436942348016e+02
2.237180134038937659e-02 1.966707240873581384e+02
2.341235023705475968e-02 1.777982533554026645e+02
2.445289913372014276e-02 1.655397610856312838e+02
2.549344803038552584e-02 1.544143151962712750e+02
2.653399692705091240e-02 1.422329731713268473e+02
2.757454582371629548e-02 1.334680277013829652e+02
2.861509472038167856e-02 1.260229256807721328e+02
2.965564361704706164e-02 1.173007256479555878e+02
3.069619251371244473e-02 1.106426332819007143e+02
3.173674141037782781e-02 1.080819284797100295e+02
3.277729030704321089e-02 1.035766943563068594e+02
3.381783920370859398e-02 1.010313503842214686e+02
3.485838810037397706e-02 9.996181395909211176e+01
3.589893699703936014e-02 9.787165665954820781e+01
3.693948589370474322e-02 9.876215668236440592e+01
3.798003479037012631e-02 9.806837652397300076e+01
3.902058368703550939e-02 9.768401226519524982e+01
4.006113258370089247e-02 9.919373341454056003e+01
4.110168148036627556e-02 1.021037693056796343e+02
4.214223037703165864e-02 1.068538170362969595e+02
4.318277927369704866e-02 1.088407873185389292e+02
4.422332817036243174e-02 1.134879690914869741e+02
4.526387706702781483e-02 1.207626953513351395e+02
4.630442596369319791e-02 1.310023173508668606e+02
4.734497486035858099e-02 1.418325223423653938e+02
4.838552375702396408e-02 1.562448042379031961e+02
4.942607265368934716e-02 1.769038053087461435e+02
5.046662155035473024e-02 2.075968329256186280e+02
5.150717044702011332e-02 2.528712195226019901e+02
5.254771934368549641e-02 3.285241187919500589e+02
5.358826824035087949e-02 4.609252674475247318e+02
5.462881713701626257e-02 6.576625954511303007e+02
5.566936603368164566e-02 9.276943383104263603e+02
5.670991493034702874e-02 1.243301162708946549e+03
5.775046382701241182e-02 1.464508552453363791e+03
5.879101272367779490e-02 1.484402399862942502e+03
5.983156162034317799e-02 1.361975451956243660e+03
6.087211051700856107e-02 1.173825108778755293e+03
6.191265941367394415e-02 9.703400790960723725e+02
6.295320831033933417e-02 7.826923726445006650e+02
6.399375720700471726e-02 6.261459044706466557e+02
6.503430610367010034e-02 5.012188650161183432e+02
6.607485500033548342e-02 4.025659318673241387e+02
6.711540389700086651e-02 3.205539049873252111e+02
6.815595279366624959e-02 2.508149109361669389e+02
6.919650169033163267e-02 1.934623942214414853e+02
7.023705058699701576e-02 1.461411488140619213e+02
7.127759948366239884e-02 1.100737227255851280e+02
7.231814838032778192e-02 8.163133235631161710e+01
7.335869727699316500e-02 6.150521296852210185e+01
7.439924617365854809e-02 4.805204902939384226e+01
7.543979507032393117e-02 3.805061400674502892e+01
7.648034396698931425e-02 3.077759126895713848e+01
7.752089286365469734e-02 2.579017552443861305e+01
7.856144176032008042e-02 2.155172883918687887e+01
7.960199065698546350e-02 1.878004416741785576e+01
8.064253955365084658e-02 1.721964911588469604e+01
8.168308845031622967e-02 1.582103553788852324e+01
8.272363734698161275e-02 1.505141548356617776e+01
8.376418624364699583e-02 1.544162945412315935e+01
8.480473514031239279e-02 1.546846672693652636e+01
8.584528403697777588e-02 1.589635749286474109e+01
8.688583293364315896e-02 1.711722465274855409e+01
8.792638183030854204e-02 1.869558321143656698e+01
8.896693072697392513e-02 2.117856256075322818e+01
9.000747962363930821e-02 2.550297478398506712e+01
9.104802852030469129e-02 3.193816384628864213e+01
9.208857741697007437e-02 4.219223352416345563e+01
9.312912631363545746e-02 5.414072811580559375e+01
9.416967521030084054e-02 6.240871534401480147e+01
9.521022410696622362e-02 6.555405020690052709e+01
9.625077300363160671e-02 6.693400524627352866e+01
9.729132190029698979e-02 6.663804098231562989e+01
9.833187079696237287e-02 6.355065815960679032e+01
9.937241969362775595e-02 6.024656936930408335e+01
1.004129685902931390e-01 5.741415385295666596e+01
1.014535174869585221e-01 5.484946708102192758e+01
1.024940663836239052e-01 5.237779046598346611e+01
1.035346152802892883e-01 5.108728731191997241e+01
1.045751641769546714e-01 5.087333511321745050e+01
1.056157130736200545e-01 5.260243440322263098e+01
1.066562619702854375e-01 5.500104443885021510e+01
1.076968108669508206e-01 6.101441769047811192e+01
1.087373597636162037e-01 6.934214221033526826e+01
1.097779086602815868e-01 7.505633178171495956e+01
1.108184575569469699e-01 7.597116545262815634e+01
1.118590064536123529e-01 7.369687004782929307e+01
1.128995553502777360e-01 7.065060292495283534e+01
1.139401042469431191e-01 6.720624127508074253e+01
1.149806531436085022e-01 6.256736902957730706e+01
1.160212020402738853e-01 5.612018479959988326e+01
1.170617509369392684e-01 4.931573291585399943e+01
1.181022998336046514e-01 4.284281195117847574e+01
1.191428487302700345e-01 3.752662185872516432e+01
1.201833976269354176e-01 3.221481242789508315e+01
1.212239465236008007e-01 2.808481961454138798e+01
1.222644954202661838e-01 2.337458009829315486e+01
1.233050443169315669e-01 1.972892766504562445e+01
1.243455932135969499e-01 1.676837150069733084e+01
1.253861421102623330e-01 1.424424263618815090e+01
1.264266910069277161e-01 1.209501099195895080e+01
1.274672399035930992e-01 9.983098090191983687e+00
1.285077888002584823e-01 8.703685238661464041e+00
1.295483376969238654e-01 8.083263989096828084e+00
1.305888865935892484e-01 7.036374576603357411e+00
1.316294354902546315e-01 6.543439474093791119e+00
1.326699843869200146e-01 6.520773130404780460e+00
1.337105332835853977e-01 6.167866190271169557e+00
1.347510821802507808e-01 5.662262045242403730e+00
1.357916310769161639e-01 5.133252452668010335e+00
1.368321799735815469e-01 5.147472411977833673e+00
1.378727288702469300e-01 5.233419571000194281e+00
1.389132777669123131e-01 5.249563595962047913e+00
1.399538266635776962e-01 5.762962864592697798e+00
1.409943755602430793e-01 6.444091505805157993e+00
1.420349244569084624e-01 7.611866451276611656e+00
1.430754733535738454e-01 8.524797789871367826e+00
1.441160222502392285e-01 9.627121435154332829e+00
1.451565711469046116e-01 1.128622465544530939e+01
1.461971200435699947e-01 1.259631629372588790e+01
1.472376689402353778e-01 1.341201028697358311e+01
1.482782178369007609e-01 1.367831138305551164e+01
1.493187667335661439e-01 1.308485591705184703e+01
1.503593156302315270e-01 1.291291323148613657e+01
1.513998645268969101e-01 1.262873901904039187e+01
1.524404134235622932e-01 1.207411168217281983e+01
1.534809623202276763e-01 1.180986663303077222e+01
1.545215112168930593e-01 1.121832723369951879e+01
1.555620601135584424e-01 1.054379368516105231e+01
1.566026090102238255e-01 1.053584139713083090e+01
1.576431579068892086e-01 1.040203405974435569e+01
1.586837068035545917e-01 1.009833340561134918e+01
1.597242557002199748e-01 1.003657955276396763e+01
1.607648045968853578e-01 9.513117900147303629e+00
1.618053534935507409e-01 9.518307951984851911e+00
1.628459023902161240e-01 9.461827998956636065e+00
1.638864512868815071e-01 9.167222432196737714e+00
1.649270001835468902e-01 9.077582857661738558e+00
1.659675490802122733e-01 8.946106049650843772e+00
1.670080979768776563e-01 8.643481441572046009e+00
1.680486468735430672e-01 7.946992909873802802e+00
1.690891957702084503e-01 7.833732142937702037e+00
1.701297446668738333e-01 7.785882528218099452e+00
1.711702935635392164e-01 7.586286931426844404e+00
1.722108424602045995e-01 7.240179642554885220e+00
1.732513913568699826e-01 7.168012808008171532e+00
1.742919402535353657e-01 6.718024184220080741e+00
1.753324891502007488e-01 5.979077584136810231e+00
1.763730380468661318e-01 5.871847646099411122e+00
1.774135869435315149e-01 5.641795394288426024e+00
1.784541358401968980e-01 5.336032531623818187e+00
1.794946847368622811e-01 4.952555940517072486e+00
1.805352336335276642e-01 4.517968977415730336e+00
1.815757825301930473e-01 3.955490365345578851e+00
1.826163314268584303e-01 3.761036420639356948e+00
1.836568803235238134e-01 3.703237411495461373e+00
1.846974292201891965e-01 3.325125765951256085e+00
1.857379781168545796e-01 3.107686004065698171e+00
1.867785270135199627e-01 3.170967274294799410e+00
1.878190759101853458e-01 3.127860703925467334e+00
1.888596248068507288e-01 3.221579903563426939e+00
1.899001737035161119e-01 2.919037496703190016e+00
1.909407226001814950e-01 2.889292884223401359e+00
1.919812714968468781e-01 3.020255860282887284e+00
1.930218203935122612e-01 3.342474401412285800e+00
1.940623692901776443e-01 3.415230952631542749e+00
1.951029181868430273e-01 3.221879923697752446e+00
1.961434670835084104e-01 3.459406440193212973e+00
1.971840159801737935e-01 3.744589040915649036e+00
1.982245648768391766e-01 4.024276880588807614e+00
1.992651137735045597e-01 3.738708819068317979e+00
2.003056626701699428e-01 3.719669780491326350e+00
2.013462115668353813e-01 3.694378705666053975e+00
2.023867604635007644e-01 3.891015644466669698e+00
2.034273093601661475e-01 3.762809540985976753e+00
2.044678582568315306e-01 3.434165328566155750e+00
2.055084071534969137e-01 3.571935941245918400e+00
2.065489560501622968e-01 3.861487067013264607e+00
2.075895049468276798e-01 3.598608720098077640e+00
2.086300538434930629e-01 3.668243992614989679e+00
2.096706027401584460e-01 3.338721874998451966e+00
2.107111516368238291e-01 3.353304428423243166e+00
2.117517005334892122e-01 3.324289826139100512e+00
2.127922494301545953e-01 3.625983485905109660e+00
2.138327983268199783e-01 3.618142548778962464e+00
2.148733472234853614e-01 3.345058350887413212e+00
2.159138961201507445e-01 3.282015899563518246e+00
2.169544450168161276e-01 3.258879569028469092e+00
2.179949939134815107e-01 3.261061429438523618e+00
2.190355428101468938e-01 3.319155837663135600e+00
2.200760917068122768e-01 3.275023820588387480e+00
2.211166406034776599e-01 3.167138479779289639e+00
2.221571895001430430e-01 3.242176614913699240e+00
2.231977383968084261e-01 3.067382545816411010e+00
2.242382872934738092e-01 2.853986452214279268e+00
2.252788361901391923e-01 2.867034974104491596e+00
2.263193850868045753e-01 2.722649327499166105e+00
2.273599339834699584e-01 2.680184523896812721e+00
2.284004828801353415e-01 2.782053006778319570e+00
2.294410317768007246e-01 2.517115654049284501e+00
2.304815806734661077e-01 2.454333506573053825e+00
2.315221295701314908e-01 2.594879213216884750e+00
2.325626784667968738e-01 2.346387884251722511e+00
2.336032273634622569e-01 2.218383610485840762e+00
2.346437762601276400e-01 2.235340876052916315e+00
2.356843251567930231e-01 2.208118952819113190e+00
2.367248740534584062e-01 2.311970850277408118e+00
2.377654229501237892e-01 2.376487406442343797e+00
2.388059718467891723e-01 2.302760528186333033e+00
2.398465207434545554e-01 2.052471087768665825e+00
2.408870696401199385e-01 1.914470202945281585e+00
2.419276185367853216e-01 2.228728250951398593e+00
2.429681674334507047e-01 2.156602737734768738e+00
2.440087163301160877e-01 2.098625898943325296e+00
2.450492652267814708e-01 2.117793757195638449e+00
2.460898141234468539e-01 2.086601396897894034e+00
2.471303630201122370e-01 2.086550578187956972e+00
2.481709119167776201e-01 2.110477843518236085e+00
2.492114608134430032e-01 2.065344248044514330e+00
2.502520097101083585e-01 1.986380198291890053e+00
2.512925586067737416e-01 2.029777446439499755e+00
2.523331075034391247e-01 2.170733344374632168e+00
2.533736564001045077e-01 2.200867091202137971e+00
2.544142052967698908e-01 2.287921383806274633e+00
2.554547541934352739e-01 2.268326747949902966e+00
2.564953030901006570e-01 2.212023507316246196e+00
2.575358519867660401e-01 2.033540682913447029e+00
2.585764008834314231e-01 2.081786640316980908e+00
2.596169497800968062e-01 2.111951208469566410e+00
2.606574986767621893e-01 1.680533602698226048e+00
2.616980475734275724e-01 1.767927570573466056e+00
2.627385964700929555e-01 1.716427704835812307e+00
2.637791453667583386e-01 1.564853899928863257e+00
2.648196942634237216e-01 1.655332930976552319e+00
2.658602431600891047e-01 1.676158955469865930e+00
2.669007920567544878e-01 1.750437078164210902e+00
2.679413409534198709e-01 1.922931235670599648e+00
2.689818898500852540e-01 1.760766358786234775e+00
2.700224387467506371e-01 1.577993767689608973e+00
2.710629876434160201e-01 1.606095868519485492e+00
2.721035365400814032e-01 1.772579632952052009e+00
2.731440854367467863e-01 1.862202712391738402e+00
2.741846343334121694e-01 1.948254755558327389e+00
2.752251832300775525e-01 1.726664409208407136e+00
2.762657321267429356e-01 1.828072995110129995e+00
2.773062810234083186e-01 1.739683540460422506e+00
2.783468299200737017e-01 1.808623590731411213e+00
2.793873788167390848e-01 1.834678374949177737e+00
2.804279277134044679e-01 1.711296277871952043e+00
2.814684766100698510e-01 1.638154846115725150e+00
2.825090255067352341e-01 1.760500504083456264e+00
2.835495744034006171e-01 1.776253393900901756e+00
2.845901233000660002e-01 1.616717176736660377e+00
2.856306721967313833e-01 1.887365658608160857e+00
2.866712210933967664e-01 1.851242897637281004e+00
2.877117699900621495e-01 1.581491331179936566e+00
2.887523188867275326e-01 1.577870950083635648e+00
2.897928677833929156e-01 1.738770827318077750e+00
2.908334166800582987e-01 1.745636416240689215e+00
2.918739655767236818e-01 1.685294025137086038e+00
2.929145144733890649e-01 1.615427925828289091e+00
2.939550633700544480e-01 1.537662075222268498e+00
2.949956122667198311e-01 1.538555165106821221e+00
2.960361611633852141e-01 1.555864839649213849e+00
2.970767100600505972e-01 1.705229429579983247e+00
2.981172589567159803e-01 1.869836217523488386e+00
2.991578078533813634e-01 1.898740650978787414e+00
3.001983567500468020e-01 1.699277201550934535e+00
3.012389056467121851e-01 1.631034090822915061e+00
3.022794545433775681e-01 1.352392995122944086e+00
3.033200034400429512e-01 1.184581865829738234e+00
3.043605523367083343e-01 1.189837369243917919e+00
3.054011012333737174e-01 1.380416411982540836e+00
3.064416501300391005e-01 1.664742483362861236e+00
3.074821990267044836e-01 1.485030129822128231e+00
3.085227479233698666e-01 1.304725072297621580e+00
3.095632968200352497e-01 1.296017527940829694e+00
3.106038457167006328e-01 1.430297650850356206e+00
3.116443946133660159e-01 1.168154806925983280e+00
3.126849435100313990e-01 1.118529214452031795e+00
3.137254924066967821e-01 1.326380974847314320e+00
3.147660413033621651e-01 1.143581031796085057e+00
3.158065902000275482e-01 1.139868158469347748e+00
3.168471390966929313e-01 1.315392361399798205e+00
3.178876879933583144e-01 1.411912918440862086e+00
3.189282368900236975e-01 1.517317417392302303e+00
3.199687857866890806e-01 1.421012806293276753e+00
3.210093346833544636e-01 1.321724997680320257e+00
3.220498835800198467e-01 1.196903242710227744e+00
3.230904324766852298e-01 1.241200200802026643e+00
3.241309813733506129e-01 1.057815404777691981e+00
3.251715302700159960e-01 1.232689691699132339e+00
3.262120791666813790e-01 1.177714051034868703e+00
3.272526280633467621e-01 1.075579006141310856e+00
3.282931769600121452e-01 1.044547544200479905e+00
3.293337258566775283e-01 1.142909939699190858e+00
3.303742747533429114e-01 1.041561196108997223e+00
3.314148236500082945e-01 1.147428035821587144e+00
3.324553725466736775e-01 1.302950043182324436e+00
3.334959214433390606e-01 1.008399674221202247e+00
3.345364703400044437e-01 8.644529351243086523e-01
3.355770192366698268e-01 1.010287996481004313e+00
3.366175681333352099e-01 1.176546519404265467e+00
3.376581170300005930e-01 9.837455014091105454e-01
3.386986659266659760e-01 9.307234574810401284e-01
3.397392148233313591e-01 7.853329976569760618e-01
3.407797637199967422e-01 7.927018391285898247e-01
3.418203126166621253e-01 9.357994386104024898e-01
3.428608615133275084e-01 9.094720550049970598e-01
3.439014104099928915e-01 8.178840270578859872e-01
3.449419593066582745e-01 8.441960621023341105e-01
3.459825082033236576e-01 7.829367392581758622e-01
3.470230570999890407e-01 7.359087048183141633e-01
3.480636059966544238e-01 7.287832651325487632e-01
3.491041548933198069e-01 6.185037552015693052e-01
3.501447037899851900e-01 8.359290643439649671e-01
3.511852526866505730e-01 1.085214787818753024e+00
3.522258015833159561e-01 8.614504628733108405e-01
3.532663504799813392e-01 8.991480910758866685e-01
3.543068993766467223e-01 9.897519565149650589e-01
3.553474482733121054e-01 7.812692867776469541e-01
3.563879971699774885e-01 7.416079348052520004e-01
3.574285460666428715e-01 8.377576206137895554e-01
3.584690949633082546e-01 8.961935898037509673e-01
3.595096438599736377e-01 9.818019790814425107e-01
3.605501927566390208e-01 9.446954602782540178e-01
3.615907416533044039e-01 8.513287732290386600e-01
3.626312905499697870e-01 6.014544918657698247e-01
3.636718394466351700e-01 7.299293872211940482e-01
3.647123883433005531e-01 1.000853688809488773e+00
3.657529372399659362e-01 1.045808872395365796e+00
3.667934861366313193e-01 9.528126026847196783e-01
3.678340350332967024e-01 8.434572807917497528e-01
3.688745839299620854e-01 9.347965740237782484e-01
3.699151328266274685e-01 1.144584635728467248e+00
3.709556817232928516e-01 9.899084252834242648e-01
3.719962306199582347e-01 1.067050325968008195e+00
3.730367795166236178e-01 1.070648235844615215e+00
3.740773284132890009e-01 1.017239571192838810e+00
3.751178773099543839e-01 8.359736629470688740e-01
3.761584262066197670e-01 6.823873841153655917e-01
3.771989751032851501e-01 7.065653534903830746e-01
3.782395239999505332e-01 7.479152587639958938e-01
3.792800728966159163e-01 8.464492518782549269e-01
3.803206217932812994e-01 6.840946245440413520e-01
3.813611706899466824e-01 4.571959000123122507e-01
3.824017195866120655e-01 4.347138438390985016e-01
3.834422684832774486e-01 6.614723425431741077e-01
3.844828173799428317e-01 6.135423636607661990e-01
3.855233662766082148e-01 8.065070365790276696e-01
3.865639151732735979e-01 7.178430020166750580e-01
3.876044640699389809e-01 5.433400250538547027e-01
3.886450129666043640e-01 4.555682833821173006e-01
3.896855618632697471e-01 7.192975296550763176e-01
3.907261107599351302e-01 8.646323787030709696e-01
3.917666596566005133e-01 6.422737742278954443e-01
3.928072085532658964e-01 7.680992499324474920e-01
3.938477574499312794e-01 7.412951615749250323e-01
3.948883063465966625e-01 6.679810948221813760e-01
3.959288552432620456e-01 7.907241323341125394e-01
3.969694041399274287e-01 8.412592185114426968e-01
3.980099530365928118e-01 8.426809529399541532e-01
3.990505019332581949e-01 7.545264975341581248e-01
4.000910508299235779e-01 7.167496024014710088e-01
4.011315997265889610e-01 5.629530470344299431e-01
4.021721486232543441e-01 6.232191480151598739e-01
4.032126975199197272e-01 5.848075069796578873e-01
4.042532464165851103e-01 5.804550046447936040e-01
4.052937953132504934e-01 5.033621589896029036e-01
4.063343442099158764e-01 6.618661384634947353e-01
4.073748931065812595e-01 8.211812660332746816e-01
4.084154420032466426e-01 7.639700494357022365e-01
4.094559908999120257e-01 6.747222489009239155e-01
4.104965397965774088e-01 5.117330260520098761e-01
4.115370886932427918e-01 4.676472533659996600e-01
4.125776375899081749e-01 5.470159118813384680e-01
4.136181864865735580e-01 5.928610519738555240e-01
4.146587353832389411e-01 5.854727418770586667e-01
4.156992842799043242e-01 5.997671839124762982e-01
4.167398331765697073e-01 7.554654940908740457e-01
4.177803820732350903e-01 6.693253734633621832e-01
4.188209309699004734e-01 6.490659129637492697e-01
4.198614798665658565e-01 6.378294484602733405e-01
4.209020287632312396e-01 5.999602776132739734e-01
4.219425776598966227e-01 5.950373997851912122e-01
4.229831265565620058e-01 3.959257258770136900e-01
4.240236754532273888e-01 3.912718704313888907e-01
4.250642243498927719e-01 4.870563683390614074e-01
4.261047732465581550e-01 5.882779942471252355e-01
4.271453221432235381e-01 4.521268036225798426e-01
4.281858710398889212e-01 4.943993218044546722e-01
4.292264199365543043e-01 3.393136065785142819e-01
4.302669688332196873e-01 4.482301184361965340e-01
4.313075177298850704e-01 4.470208761139247144e-01
4.323480666265504535e-01 4.676520493802733824e-01
4.333886155232158366e-01 4.934180333175675059e-01
4.344291644198812197e-01 6.803266655811128771e-01
