# q (1/Angstrom), Intensity (arb)
2.029070354705860696e-02 2.551894409873439713e+02
2.133125244372399004e-02 2.206721000872140337e+02
2.237180134038937659e-02 1.958725790652097487e+02
2.341235023705475968e-02 1.787582407671862654e+02
2.445289913372014276e-02 1.655097666124615898e+02
2.549344803038552584e-02 1.506233295989342764e+02
2.653399692705091240e-02 1.379402109026425762e+02
2.757454582371629548e-02 1.300596153244459288e+02
2.861509472038167856e-02 1.237364782567650394e+02
2.965564361704706164e-02 1.177918518294223560e+02
3.069619251371244473e-02 1.128967493754216633e+02
3.173674141037782781e-02 1.096759799943534404e+02
3.277729030704321089e-02 1.047864676171791416e+02
3.381783920370859398e-02 1.010616598036807545e+02
3.485838810037397706e-02 9.808427857924992566e+01
3.589893699703936014e-02 9.709014500653896107e+01
3.693948589370474322e-02 9.727703140536634407e+01
3.798003479037012631e-02 9.695588733930898684e+01
3.902058368703550939e-02 9.915473609390616616e+01
4.006113258370089247e-02 1.015438804022967503e+02
4.110168148036627556e-02 1.046394098006693696e+02
4.214223037703165864e-02 1.088030746538146190e+02
4.318277927369704866e-02 1.119808987554255850e+02
4.422332817036243174e-02 1.172527681755000799e+02
4.526387706702781483e-02 1.247710905622592463e+02
4.630442596369319791e-02 1.336022762438517191e+02
4.734497486035858099e-02 1.463796372436934234e+02
4.838552375702396408e-02 1.608819128480702432e+02
4.942607265368934716e-02 1.847789499948180776e+02
5.046662155035473024e-02 2.199132360851900501e+02
5.150717044702011332e-02 2.713423067049243400e+02
5.254771934368549641e-02 3.580244448477120045e+02
5.358826824035087949e-02 5.043595834237564191e+02
5.462881713701626257e-02 7.218070144962636050e+02
5.566936603368164566e-02 1.017329078946824666e+03
5.670991493034702874e-02 1.343007870498651528e+03
5.775046382701241182e-02 1.536287888556060580e+03
5.879101272367779490e-02 1.524642093439410473e+03
5.983156162034317799e-02 1.378365515752572946e+03
6.087211051700856107e-02 1.176336578295563413e+03
6.191265941367394415e-02 9.671838142812239312e+02
6.295320831033933417e-02 7.796538941201379203e+02
6.399375720700471726e-02 6.234432029075172750e+02
6.503430610367010034e-02 5.006522952981815706e+02
6.607485500033548342e-02 4.001121564218170761e+02
6.711540389700086651e-02 3.175344853630729176e+02
6.815595279366624959e-02 2.475106952415621322e+02
6.919650169033163267e-02 1.914212827235287477e+02
7.023705058699701576e-02 1.444423381519692668e+02
7.127759948366239884e-02 1.075067129867229880e+02
7.231814838032778192e-02 7.991813451274727242e+01
7.335869727699316500e-02 6.064091373222291992e+01
7.439924617365854809e-02 4.680074541371056540e+01
7.543979507032393117e-02 3.711439976536418328e+01
7.648034396698931425e-02 3.030660491672221823e+01
7.752089286365469734e-02 2.468364962684871600e+01
7.856144176032008042e-02 2.111584760868622013e+01
7.960199065698546350e-02 1.878261997897404711e+01
8.064253955365084658e-02 1.714921514037449413e+01
8.168308845031622967e-02 1.600443113529193795e+01
8.272363734698161275e-02 1.558536384595364410e+01
8.376418624364699583e-02 1.496086092279125168e+01
8.480473514031239279e-02 1.528632297535093443e+01
8.584528403697777588e-02 1.638101065854477767e+01
8.688583293364315896e-02 1.711929818218407462e+01
8.792638183030854204e-02 1.839254178641867554e+01
8.896693072697392513e-02 2.146122366617502664e+01
9.000747962363930821e-02 2.674655277136027465e+01
9.104802852030469129e-02 3.438993757842409593e+01
9.208857741697007437e-02 4.542060496171497164e+01
9.312912631363545746e-02 5.688454028295213050e+01
9.416967521030084054e-02 6.385164135069737767e+01
9.521022410696622362e-02 6.621107594131370888e+01
9.625077300363160671e-02 6.670814449805928348e+01
9.729132190029698979e-02 6.515741963078613708e+01
9.833187079696237287e-02 6.248751034764283929e+01
9.937241969362775595e-02 5.894549260318055417e+01
1.004129685902931390e-01 5.547839041241745406e+01
1.014535174869585221e-01 5.285715534237960611e+01
1.024940663836239052e-01 5.158037486588501963e+01
1.035346152802892883e-01 5.055595442428170117e+01
1.045751641769546714e-01 5.164296109285447756e+01
1.056157130736200545e-01 5.361925806538437200e+01
1.066562619702854375e-01 5.796354133825585109e+01
1.076968108669508206e-01 6.517400454369436602e+01
1.087373597636162037e-01 7.371478625847603894e+01
1.097779086602815868e-01 7.821107775046057498e+01
1.108184575569469699e-01 7.811763818098981460e+01
1.118590064536123529e-01 7.614962727914499396e+01
1.128995553502777360e-01 7.364423111241055153e+01
1.139401042469431191e-01 6.888197576668167699e+01
1.149806531436085022e-01 6.229477525423854445e+01
1.160212020402738853e-01 5.501181558503040492e+01
1.170617509369392684e-01 4.832554841935347412e+01
1.181022998336046514e-01 4.301627806235879348e+01
1.191428487302700345e-01 3.724049317105520629e+01
1.201833976269354176e-01 3.122114484783942601e+01
1.212239465236008007e-01 2.651126195909936101e+01
1.222644954202661838e-01 2.229227770873760406e+01
1.233050443169315669e-01 1.922488877476733293e+01
1.243455932135969499e-01 1.632714812929096837e+01
1.253861421102623330e-01 1.357236681820818092e+01
1.264266910069277161e-01 1.136988229363222658e+01
1.274672399035930992e-01 9.757371120282741117e+00
1.285077888002584823e-01 8.143602371570700882e+00
1.295483376969238654e-01 7.443532846609258513e+00
1.305888865935892484e-01 6.929282390607710340e+00
1.316294354902546315e-01 6.665216227498941493e+00
1.326699843869200146e-01 6.122125486303183095e+00
1.337105332835853977e-01 5.164745711086286661e+00
1.347510821802507808e-01 4.808717473365856421e+00
1.357916310769161639e-01 4.887117883967736276e+00
1.368321799735815469e-01 5.021458318008853894e+00
1.378727288702469300e-01 5.027073071938755078e+00
1.389132777669123131e-01 5.758902632482900685e+00
1.399538266635776962e-01 5.711151868491896266e+00
1.409943755602430793e-01 6.210501148307866259e+00
1.420349244569084624e-01 7.333520409486848024e+00
1.430754733535738454e-01 8.468705775017038917e+00
1.441160222502392285e-01 9.712514865121466556e+00
1.451565711469046116e-01 1.175961396729922370e+01
1.461971200435699947e-01 1.307376939900841961e+01
1.472376689402353778e-01 1.323062631413721846e+01
1.482782178369007609e-01 1.301093371132830612e+01
1.493187667335661439e-01 1.281365525965725638e+01
1.503593156302315270e-01 1.238262451719024426e+01
1.513998645268969101e-01 1.198413723451163548e+01
1.524404134235622932e-01 1.179127765111426029e+01
1.534809623202276763e-01 1.162618759763376630e+01
1.545215112168930593e-01 1.066127147962767907e+01
1.555620601135584424e-01 9.880685544457115554e+00
1.566026090102238255e-01 9.721083840162268785e+00
1.576431579068892086e-01 9.759609758790865897e+00
1.586837068035545917e-01 9.604354697531594098e+00
1.597242557002199748e-01 9.550296475171656141e+00
1.607648045968853578e-01 9.347420573031335778e+00
1.618053534935507409e-01 9.429434295330814564e+00
1.628459023902161240e-01 9.571669603364092893e+00
1.638864512868815071e-01 9.052472199513545092e+00
1.649270001835468902e-01 8.827390199392286974e+00
1.659675490802122733e-01 8.562467605771217904e+00
1.670080979768776563e-01 8.200063140914181758e+00
1.680486468735430672e-01 7.941084620140646422e+00
1.690891957702084503e-01 7.585604284930429486e+00
1.701297446668738333e-01 7.535620128224671532e+00
1.711702935635392164e-01 7.279595940222485240e+00
1.722108424602045995e-01 6.873798321060412775e+00
1.732513913568699826e-01 6.508085428965394215e+00
1.742919402535353657e-01 5.995066744342384624e+00
1.753324891502007488e-01 5.571272415523161214e+00
1.763730380468661318e-01 5.520236659002982549e+00
1.774135869435315149e-01 5.394648539998655679e+00
1.784541358401968980e-01 4.954581666722813083e+00
1.794946847368622811e-01 4.789343855792719040e+00
1.805352336335276642e-01 4.332250783662811244e+00
1.815757825301930473e-01 4.143298141988111638e+00
1.826163314268584303e-01 3.996788206500813345e+00
1.836568803235238134e-01 3.466853850715139629e+00
1.846974292201891965e-01 3.126840942505818788e+00
1.857379781168545796e-01 3.152130246804333069e+00
1.867785270135199627e-01 3.128225067198407316e+00
1.878190759101853458e-01 3.074209745408541750e+00
1.888596248068507288e-01 3.387801896936188939e+00
1.899001737035161119e-01 3.354287954961538532e+00
1.909407226001814950e-01 2.942843997185850213e+00
1.919812714968468781e-01 3.137538223721275443e+00
1.930218203935122612e-01 3.296796273112189368e+00
1.940623692901776443e-01 3.226052554387287330e+00
1.951029181868430273e-01 3.386444529493552125e+00
1.961434670835084104e-01 3.394692545002065742e+00
1.971840159801737935e-01 3.676014523181574845e+00
1.982245648768391766e-01 3.485845471665435014e+00
1.992651137735045597e-01 3.374387088373222099e+00
2.003056626701699428e-01 3.553597828760064914e+00
2.013462115668353813e-01 3.740816873524721586e+00
2.023867604635007644e-01 3.625482709251578228e+00
2.034273093601661475e-01 3.506138653536432059e+00
2.044678582568315306e-01 3.369067210380983113e+00
2.055084071534969137e-01 3.273809626826103880e+00
2.065489560501622968e-01 3.442009798464301440e+00
2.075895049468276798e-01 3.493490602923507993e+00
2.086300538434930629e-01 3.595557443830028177e+00
2.096706027401584460e-01 3.492724624068440420e+00
2.107111516368238291e-01 3.418690003565636459e+00
2.117517005334892122e-01 3.322807933119900525e+00
2.127922494301545953e-01 3.323347364962380368e+00
2.138327983268199783e-01 3.372190259734544782e+00
2.148733472234853614e-01 3.643297158508669753e+00
2.159138961201507445e-01 3.461286778736173630e+00
2.169544450168161276e-01 3.345787223319245385e+00
2.179949939134815107e-01 3.336390586745682896e+00
2.190355428101468938e-01 3.331799347625427288e+00
2.200760917068122768e-01 3.253133409126625963e+00
2.211166406034776599e-01 3.335324459658941976e+00
2.221571895001430430e-01 3.282285214688165809e+00
2.231977383968084261e-01 3.151004905201666872e+00
2.242382872934738092e-01 2.851338941766410784e+00
2.252788361901391923e-01 2.722512884929766841e+00
2.263193850868045753e-01 2.807521330497444012e+00
2.273599339834699584e-01 2.857965178457195776e+00
2.284004828801353415e-01 2.645387714623542053e+00
2.294410317768007246e-01 2.605613305358264853e+00
2.304815806734661077e-01 2.480821493704684855e+00
2.315221295701314908e-01 2.174820470307665232e+00
2.325626784667968738e-01 2.098354369353021553e+00
2.336032273634622569e-01 2.133590131421662761e+00
2.346437762601276400e-01 2.135709557610979914e+00
2.356843251567930231e-01 2.029305745945720219e+00
2.367248740534584062e-01 1.700072505808257972e+00
2.377654229501237892e-01 1.761276677589943773e+00
2.388059718467891723e-01 1.923360134142704680e+00
2.398465207434545554e-01 2.100465556713796644e+00
2.408870696401199385e-01 2.006474591442895417e+00
2.419276185367853216e-01 1.893820974344603059e+00
2.429681674334507047e-01 1.954189328809182058e+00
2.440087163301160877e-01 1.943174523411475008e+00
2.450492652267814708e-01 1.896964361258945075e+00
2.460898141234468539e-01 1.821131401414085360e+00
2.471303630201122370e-01 1.725170460364424230e+00
2.481709119167776201e-01 1.671871448766626855e+00
2.492114608134430032e-01 1.823487035977755966e+00
2.502520097101083585e-01 1.787844658043585611e+00
2.512925586067737416e-01 1.595787558452162358e+00
2.523331075034391247e-01 1.896573854885254207e+00
2.533736564001045077e-01 2.199813429098004036e+00
2.544142052967698908e-01 2.216209636911358416e+00
2.554547541934352739e-01 1.978753255037911885e+00
2.564953030901006570e-01 2.035418096148120526e+00
2.575358519867660401e-01 2.047309526723708473e+00
2.585764008834314231e-01 1.848355771734791375e+00
2.596169497800968062e-01 1.904941519269119254e+00
2.606574986767621893e-01 1.771710088876055522e+00
2.616980475734275724e-01 1.931428007663960500e+00
2.627385964700929555e-01 1.969266084206370948e+00
2.637791453667583386e-01 1.738135604898154440e+00
2.648196942634237216e-01 1.787160826618322318e+00
2.658602431600891047e-01 1.739535049507662023e+00
2.669007920567544878e-01 1.733919480114469280e+00
2.679413409534198709e-01 1.893282261540420564e+00
2.689818898500852540e-01 1.672643011023222215e+00
2.700224387467506371e-01 1.833799286434558695e+00
2.710629876434160201e-01 1.960799303954427586e+00
2.721035365400814032e-01 1.914600870494020057e+00
2.731440854367467863e-01 1.954391316129299838e+00
2.741846343334121694e-01 1.788853803518957619e+00
2.752251832300775525e-01 1.945532200922837518e+00
2.762657321267429356e-01 1.984657365257429973e+00
2.773062810234083186e-01 1.749717014344149391e+00
2.783468299200737017e-01 1.685472381974523870e+00
2.793873788167390848e-01 1.732202664156321958e+00
2.804279277134044679e-01 1.837478156683712172e+00
2.814684766100698510e-01 1.783946581341272264e+00
2.825090255067352341e-01 1.742131104023123100e+00
2.835495744034006171e-01 1.641757043585755582e+00
2.845901233000660002e-01 1.422954931524685662e+00
2.856306721967313833e-01 1.589124206846836529e+00
2.866712210933967664e-01 1.596644120509459697e+00
2.877117699900621495e-01 1.299995521418072286e+00
2.887523188867275326e-01 1.430110039770809749e+00
2.897928677833929156e-01 1.399045859799493030e+00
2.908334166800582987e-01 1.456494129936288573e+00
2.918739655767236818e-01 1.460574744260828339e+00
2.929145144733890649e-01 1.382960601880718343e+00
2.939550633700544480e-01 1.237837414387797708e+00
2.949956122667198311e-01 1.166160922683079804e+00
2.960361611633852141e-01 1.136824880067305088e+00
2.970767100600505972e-01 1.372344528915526496e+00
2.981172589567159803e-01 1.484776398457764657e+00
2.991578078533813634e-01 1.332918859948531320e+00
3.001983567500468020e-01 1.150143191398239395e+00
3.012389056467121851e-01 1.090439763959334840e+00
3.022794545433775681e-01 1.402653554730939334e+00
3.033200034400429512e-01 1.267259324494904860e+00
3.043605523367083343e-01 1.117540861898930871e+00
3.054011012333737174e-01 1.232213201723443063e+00
3.064416501300391005e-01 1.088709842195665800e+00
3.074821990267044836e-01 9.804570243525887463e-01
3.085227479233698666e-01 1.164062666501525456e+00
3.095632968200352497e-01 1.335058931396442716e+00
3.106038457167006328e-01 1.382447840244022785e+00
3.116443946133660159e-01 1.384007267287476139e+00
3.126849435100313990e-01 1.272415827422452850e+00
3.137254924066967821e-01 1.134230356553377561e+00
3.147660413033621651e-01 1.160041377228679949e+00
3.158065902000275482e-01 1.068546543652445280e+00
3.168471390966929313e-01 1.117978537149152629e+00
3.178876879933583144e-01 1.004015552631109642e+00
3.189282368900236975e-01 1.031784011581521554e+00
3.199687857866890806e-01 1.258618825769499239e+00
3.210093346833544636e-01 1.001029659394049531e+00
3.220498835800198467e-01 9.944819051135347365e-01
3.230904324766852298e-01 9.603413433832450607e-01
3.241309813733506129e-01 1.194494072116512484e+00
3.251715302700159960e-01 1.137349391470738880e+00
3.262120791666813790e-01 9.683864120682663668e-01
3.272526280633467621e-01 1.037291908687045350e+00
3.282931769600121452e-01 1.110150148733609399e+00
3.293337258566775283e-01 1.210673412137154514e+00
3.303742747533429114e-01 1.175055865742116623e+00
3.314148236500082945e-01 8.750917598467218284e-01
3.324553725466736775e-01 8.828417722516626043e-01
3.334959214433390606e-01 8.560453928937157286e-01
3.345364703400044437e-01 9.178554526817066517e-01
3.355770192366698268e-01 1.121794372659753236e+00
3.366175681333352099e-01 1.272129023056283614e+00
3.376581170300005930e-01 9.658433252980351824e-01
3.386986659266659760e-01 8.492802812905928533e-01
3.397392148233313591e-01 9.658878360642582095e-01
3.407797637199967422e-01 8.948034937292277391e-01
3.418203126166621253e-01 7.496858161183226343e-01
3.428608615133275084e-01 7.206286427457442301e-01
3.439014104099928915e-01 7.029621316581398105e-01
3.449419593066582745e-01 6.706883124658595818e-01
3.459825082033236576e-01 7.237522716937156986e-01
3.470230570999890407e-01 8.824010916738806998e-01
3.480636059966544238e-01 1.010212248892567999e+00
3.491041548933198069e-01 8.069543407955386272e-01
3.501447037899851900e-01 8.841552735480675551e-01
3.511852526866505730e-01 7.762944855546294320e-01
3.522258015833159561e-01 7.013197604493655035e-01
3.532663504799813392e-01 7.007393569813800127e-01
3.543068993766467223e-01 7.407884842110235013e-01
3.553474482733121054e-01 9.218819521565322361e-01
3.563879971699774885e-01 9.515215227746516291e-01
3.574285460666428715e-01 7.182407761867501961e-01
3.584690949633082546e-01 6.344638099210335724e-01
3.595096438599736377e-01 7.985560596265841582e-01
3.605501927566390208e-01 9.014634231103002548e-01
3.615907416533044039e-01 8.945771696517432758e-01
3.626312905499697870e-01 7.647614347970552728e-01
3.636718394466351700e-01 7.219991486237944400e-01
3.647123883433005531e-01 7.230853538983446072e-01
3.657529372399659362e-01 5.547492803165354758e-01
3.667934861366313193e-01 7.852112848782404342e-01
3.678340350332967024e-01 8.328414127029120095e-01
3.688745839299620854e-01 5.421263754282499292e-01
3.699151328266274685e-01 5.596687465261531713e-01
3.709556817232928516e-01 7.805855129560264061e-01
3.719962306199582347e-01 6.769137663287203566e-01
3.730367795166236178e-01 6.781123205216950112e-01
3.740773284132890009e-01 7.019956593285456847e-01
3.751178773099543839e-01 7.893934841557879167e-01
3.761584262066197670e-01 9.427903470072287462e-01
3.771989751032851501e-01 7.929658630702505207e-01
3.782395239999505332e-01 6.531943387263581258e-01
3.792800728966159163e-01 5.764512406828430358e-01
3.803206217932812994e-01 5.863942517236004903e-01
3.813611706899466824e-01 8.684218825419094401e-01
3.824017195866120655e-01 7.896400188238459350e-01
3.834422684832774486e-01 7.558958371977055890e-01
3.844828173799428317e-01 6.748241930197949046e-01
3.855233662766082148e-01 5.365121095385880778e-01
3.865639151732735979e-01 5.607708416892620562e-01
3.876044640699389809e-01 5.684949987483527423e-01
3.886450129666043640e-01 6.405813790452299372e-01
3.896855618632697471e-01 5.466770245427632346e-01
3.907261107599351302e-01 4.066452870614369886e-01
3.917666596566005133e-01 3.194220120793040962e-01
3.928072085532658964e-01 5.648719653243965411e-01
3.938477574499312794e-01 6.412933350149145895e-01
3.948883063465966625e-01 5.443938009392788047e-01
3.959288552432620456e-01 3.757271281491121329e-01
3.969694041399274287e-01 4.292218926071456053e-01
3.980099530365928118e-01 5.546778165043306785e-01
3.990505019332581949e-01 5.227729498136213238e-01
4.000910508299235779e-01 6.057068845119850664e-01
4.011315997265889610e-01 6.554630553486653355e-01
4.021721486232543441e-01 7.179123663011246492e-01
4.032126975199197272e-01 7.437713242712291617e-01
4.042532464165851103e-01 7.884409496191935318e-01
4.052937953132504934e-01 4.727520335401109719e-01
4.063343442099158764e-01 5.010380875469735429e-01
4.073748931065812595e-01 4.917520721675465722e-01
4.084154420032466426e-01 4.028570961096562542e-01
4.094559908999120257e-01 4.856096560755815972e-01
4.104965397965774088e-01 5.571449715198006913e-01
4.115370886932427918e-01 4.510694560568495604e-01
4.125776375899081749e-01 4.062590845659741490e-01
4.136181864865735580e-01 4.283992788538775187e-01
4.146587353832389411e-01 5.124934435693688783e-01
4.156992842799043242e-01 7.011870295061903846e-01
4.167398331765697073e-01 4.392566747544712769e-01
4.177803820732350903e-01 5.613882684641176013e-01
4.188209309699004734e-01 4.478380708996212434e-01
4.198614798665658565e-01 3.746279577196425237e-01
4.209020287632312396e-01 3.274948885136481636e-01
4.219425776598966227e-01 2.269617385644764340e-01
4.229831265565620058e-01 3.139019305265442483e-01
4.240236754532273888e-01 4.557758529505910872e-01
4.250642243498927719e-01 5.226145955076439975e-01
4.261047732465581550e-01 4.911868881047212199e-01
4.271453221432235381e-01 3.996576761068624251e-01
4.281858710398889212e-01 3.793138545064778100e-01
4.292264199365543043e-01 3.492019695756063413e-01
4.302669688332196873e-01 2.889121730191028803e-01
4.313075177298850704e-01 4.431689842724040318e-01
4.323480666265504535e-01 3.168205655832778689e-01
4.333886155232158366e-01 2.335858896162079645e-01
4.344291644198812197e-01 4.357451590740559766e-01
