# q (1/Angstrom), Intensity (arb)
2.029070354705860696e-02 2.555352857656412198e+02
2.133125244372399004e-02 2.244130998226486611e+02
2.237180134038937659e-02 2.010807396468607919e+02
2.341235023705475968e-02 1.782051113868093353e+02
2.445289913372014276e-02 1.598832046027931426e+02
2.549344803038552584e-02 1.461613778028834645e+02
2.653399692705091240e-02 1.357202288139720281e+02
2.757454582371629548e-02 1.240213381115108291e+02
2.861509472038167856e-02 1.174234727112659016e+02
2.965564361704706164e-02 1.133959405759794805e+02
3.069619251371244473e-02 1.082267847362835198e+02
3.173674141037782781e-02 1.057683067858774706e+02
3.277729030704321089e-02 1.023823888146454664e+02
3.381783920370859398e-02 9.771108555948120511e+01
3.485838810037397706e-02 9.441258790079369589e+01
3.589893699703936014e-02 9.285090584761141486e+01
3.693948589370474322e-02 9.185811558770440399e+01
3.798003479037012631e-02 9.190816117119280193e+01
3.902058368703550939e-02 9.240446606606711555e+01
4.006113258370089247e-02 9.346705604905133669e+01
4.110168148036627556e-02 9.562910862506309684e+01
4.214223037703165864e-02 9.815001177857763537e+01
4.318277927369704866e-02 1.013315156571387519e+02
4.422332817036243174e-02 1.058439259932765424e+02
4.526387706702781483e-02 1.112421738226375538e+02
4.630442596369319791e-02 1.188769488546336817e+02
4.734497486035858099e-02 1.297407676394964824e+02
4.838552375702396408e-02 1.420502884055309778e+02
4.942607265368934716e-02 1.589066674465622100e+02
5.046662155035473024e-02 1.813064131437839990e+02
5.150717044702011332e-02 2.167968893170886986e+02
5.254771934368549641e-02 2.762389963846978276e+02
5.358826824035087949e-02 3.798202584193692815e+02
5.462881713701626257e-02 5.370151757059991269e+02
5.566936603368164566e-02 7.544810709399511097e+02
5.670991493034702874e-02 1.036837651431179665e+03
5.775046382701241182e-02 1.272693900993069064e+03
5.879101272367779490e-02 1.347950522082097450e+03
5.983156162034317799e-02 1.267628481017032527e+03
6.087211051700856107e-02 1.108537939150176953e+03
6.191265941367394415e-02 9.248465460754649712e+02
6.295320831033933417e-02 7.478002760608588915e+02
6.399375720700471726e-02 5.970478757844076654e+02
6.503430610367010034e-02 4.788453483095063348e+02
6.607485500033548342e-02 3.833475312966368165e+02
6.711540389700086651e-02 3.044057928755461262e+02
6.815595279366624959e-02 2.377440539036931568e+02
6.919650169033163267e-02 1.853994011078079609e+02
7.023705058699701576e-02 1.411496090639416252e+02
7.127759948366239884e-02 1.073468445176532100e+02
7.231814838032778192e-02 8.015177974924230853e+01
7.335869727699316500e-02 6.083052992367557721e+01
7.439924617365854809e-02 4.553207906299819996e+01
7.543979507032393117e-02 3.577783041268534703e+01
7.648034396698931425e-02 2.907121919641824093e+01
7.752089286365469734e-02 2.453206715785587733e+01
7.856144176032008042e-02 2.123261973455961282e+01
7.960199065698546350e-02 1.851187602113001418e+01
8.064253955365084658e-02 1.659528474978932877e+01
8.168308845031622967e-02 1.461269017297202311e+01
8.272363734698161275e-02 1.424132589548807459e+01
8.376418624364699583e-02 1.456314345973011370e+01
8.480473514031239279e-02 1.422916847747236346e+01
8.584528403697777588e-02 1.435757810515220001e+01
8.688583293364315896e-02 1.567754927874995730e+01
8.792638183030854204e-02 1.657652664366585782e+01
8.896693072697392513e-02 1.883927126251850837e+01
9.000747962363930821e-02 2.248222929274417936e+01
9.104802852030469129e-02 2.755536953352751084e+01
9.208857741697007437e-02 3.481912970953870001e+01
9.312912631363545746e-02 4.545488376907480443e+01
9.416967521030084054e-02 5.606229174584508002e+01
9.521022410696622362e-02 6.241226198674153380e+01
9.625077300363160671e-02 6.350482347364278013e+01
9.729132190029698979e-02 6.338214004496676068e+01
9.833187079696237287e-02 6.170965959695114833e+01
9.937241969362775595e-02 5.889707036498366932e+01
1.004129685902931390e-01 5.577253289179976292e+01
1.014535174869585221e-01 5.229154339687858766e+01
1.024940663836239052e-01 5.035795666415140204e+01
1.035346152802892883e-01 4.826541344769248099e+01
1.045751641769546714e-01 4.773473872677215724e+01
1.056157130736200545e-01 4.656410983534201620e+01
1.066562619702854375e-01 4.814379117984893242e+01
1.076968108669508206e-01 5.142375572232727166e+01
1.087373597636162037e-01 5.788123590111908356e+01
1.097779086602815868e-01 6.436728669330740615e+01
1.108184575569469699e-01 6.790037661323034968e+01
1.118590064536123529e-01 6.708881199347675306e+01
1.128995553502777360e-01 6.441661038073559098e+01
1.139401042469431191e-01 6.241294734807814848e+01
1.149806531436085022e-01 5.891115248508706514e+01
1.160212020402738853e-01 5.318686863729438130e+01
1.170617509369392684e-01 4.715741749109650982e+01
1.181022998336046514e-01 4.148224086178964853e+01
1.191428487302700345e-01 3.668006302875974711e+01
1.201833976269354176e-01 3.151461343788693270e+01
1.212239465236008007e-01 2.716866255071750658e+01
1.222644954202661838e-01 2.349080993771485026e+01
1.233050443169315669e-01 1.988390140325906685e+01
1.243455932135969499e-01 1.717561050877173301e+01
1.253861421102623330e-01 1.442909061837606188e+01
1.264266910069277161e-01 1.248140399364545416e+01
1.274672399035930992e-01 1.051994750844371396e+01
1.285077888002584823e-01 8.312236284586951740e+00
1.295483376969238654e-01 7.082206331122808507e+00
1.305888865935892484e-01 6.335611647343743158e+00
1.316294354902546315e-01 5.825714695247732777e+00
1.326699843869200146e-01 5.368771423718794011e+00
1.337105332835853977e-01 4.817705780893273726e+00
1.347510821802507808e-01 4.631209331411788810e+00
1.357916310769161639e-01 4.759659301401860887e+00
1.368321799735815469e-01 4.375394056250954122e+00
1.378727288702469300e-01 4.032794042702921189e+00
1.389132777669123131e-01 4.336501480268914577e+00
1.399538266635776962e-01 4.701648386640570720e+00
1.409943755602430793e-01 5.039089897361176185e+00
1.420349244569084624e-01 6.111446039638302352e+00
1.430754733535738454e-01 6.894289691972975476e+00
1.441160222502392285e-01 7.747489075697416183e+00
1.451565711469046116e-01 9.653224154411716995e+00
1.461971200435699947e-01 1.102139728099399107e+01
1.472376689402353778e-01 1.194483623362022584e+01
1.482782178369007609e-01 1.289655454952255909e+01
1.493187667335661439e-01 1.327304975138617849e+01
1.503593156302315270e-01 1.283523037018962754e+01
1.513998645268969101e-01 1.230962364447158564e+01
1.524404134235622932e-01 1.160472663362329726e+01
1.534809623202276763e-01 1.157148028649572069e+01
1.545215112168930593e-01 1.106176873054956289e+01
1.555620601135584424e-01 1.061684235534259813e+01
1.566026090102238255e-01 1.000117398355497045e+01
1.576431579068892086e-01 9.279255656758838455e+00
1.586837068035545917e-01 9.019842608753187108e+00
1.597242557002199748e-01 8.862222477779855723e+00
1.607648045968853578e-01 8.354697046836612628e+00
1.618053534935507409e-01 8.445909065325565734e+00
1.628459023902161240e-01 8.819985679637486697e+00
1.638864512868815071e-01 8.556727625425978090e+00
1.649270001835468902e-01 7.808168550612681003e+00
1.659675490802122733e-01 7.444644068756961275e+00
1.670080979768776563e-01 7.032563962387339274e+00
1.680486468735430672e-01 6.904560157521700603e+00
1.690891957702084503e-01 7.017672050349943902e+00
1.701297446668738333e-01 6.576972291052225472e+00
1.711702935635392164e-01 6.497294535963991535e+00
1.722108424602045995e-01 6.225131937495788748e+00
1.732513913568699826e-01 5.907026697074126531e+00
1.742919402535353657e-01 5.514609251304435134e+00
1.753324891502007488e-01 4.900900579253164580e+00
1.763730380468661318e-01 4.337626994663764890e+00
1.774135869435315149e-01 4.258741006963337128e+00
1.784541358401968980e-01 4.447888090406255657e+00
1.794946847368622811e-01 3.986451011751817930e+00
1.805352336335276642e-01 3.531121988949067259e+00
1.815757825301930473e-01 3.254438468969979681e+00
1.826163314268584303e-01 3.138448449097225534e+00
1.836568803235238134e-01 2.953846273989466198e+00
1.846974292201891965e-01 2.801094951811833766e+00
1.857379781168545796e-01 2.880328353507721317e+00
1.867785270135199627e-01 2.731540720079806306e+00
1.878190759101853458e-01 2.625376316108347652e+00
1.888596248068507288e-01 2.621214419301924892e+00
1.899001737035161119e-01 2.543174922819176231e+00
1.909407226001814950e-01 2.144396652464116926e+00
1.919812714968468781e-01 2.193895384219640476e+00
1.930218203935122612e-01 2.510400916219271750e+00
1.940623692901776443e-01 2.266116905296286177e+00
1.951029181868430273e-01 2.394552264689853160e+00
1.961434670835084104e-01 2.968481097676200164e+00
1.971840159801737935e-01 2.965921548792824325e+00
1.982245648768391766e-01 2.945321794093260337e+00
1.992651137735045597e-01 3.407137784554848281e+00
2.003056626701699428e-01 3.335958538118344308e+00
2.013462115668353813e-01 2.964516815818530659e+00
2.023867604635007644e-01 2.977565392232676800e+00
2.034273093601661475e-01 3.189588792857694699e+00
2.044678582568315306e-01 3.352315229078154601e+00
2.055084071534969137e-01 3.322325088006415683e+00
2.065489560501622968e-01 3.271532597787487617e+00
2.075895049468276798e-01 3.314678288700495301e+00
2.086300538434930629e-01 2.898987137816515514e+00
2.096706027401584460e-01 2.918968242446720041e+00
2.107111516368238291e-01 2.859896989470495754e+00
2.117517005334892122e-01 2.787060476803478792e+00
2.127922494301545953e-01 2.843326115879339255e+00
2.138327983268199783e-01 2.994968990395289410e+00
2.148733472234853614e-01 2.914304206088946358e+00
2.159138961201507445e-01 2.862033537236989389e+00
2.169544450168161276e-01 2.505771884556406093e+00
2.179949939134815107e-01 2.378908533509516587e+00
2.190355428101468938e-01 3.033407507576082907e+00
2.200760917068122768e-01 3.253086620705278875e+00
2.211166406034776599e-01 2.908104178794150840e+00
2.221571895001430430e-01 2.783422198438863404e+00
2.231977383968084261e-01 2.555393334678758066e+00
2.242382872934738092e-01 2.214642807504858979e+00
2.252788361901391923e-01 2.096170053638843456e+00
2.263193850868045753e-01 2.210899636366310261e+00
2.273599339834699584e-01 2.005910279266267082e+00
2.284004828801353415e-01 2.082000363405963839e+00
2.294410317768007246e-01 2.019155575244894862e+00
2.304815806734661077e-01 1.887639554738548497e+00
2.315221295701314908e-01 1.888783817539103183e+00
2.325626784667968738e-01 1.869135429930320669e+00
2.336032273634622569e-01 1.749962881035692419e+00
2.346437762601276400e-01 1.581291929913533068e+00
2.356843251567930231e-01 1.527723296834491151e+00
2.367248740534584062e-01 1.356690290658374209e+00
2.377654229501237892e-01 1.465593150027554969e+00
2.388059718467891723e-01 1.314353697223086925e+00
2.398465207434545554e-01 1.503423108510997253e+00
2.408870696401199385e-01 1.549430136615338682e+00
2.419276185367853216e-01 1.428816304191762754e+00
2.429681674334507047e-01 1.256084213013725304e+00
2.440087163301160877e-01 1.235594629816244350e+00
2.450492652267814708e-01 1.621178660030665242e+00
2.460898141234468539e-01 1.835838290766233172e+00
2.471303630201122370e-01 1.699403164357136120e+00
2.481709119167776201e-01 1.479936595754576700e+00
2.492114608134430032e-01 1.127627469670560600e+00
2.502520097101083585e-01 1.278287942817538436e+00
2.512925586067737416e-01 1.376727230168814486e+00
2.523331075034391247e-01 1.506966854471198047e+00
2.533736564001045077e-01 1.436481444020287768e+00
2.544142052967698908e-01 1.460057453690993157e+00
2.554547541934352739e-01 1.657853057688374321e+00
2.564953030901006570e-01 1.583430388787451903e+00
2.575358519867660401e-01 1.581881448774254295e+00
2.585764008834314231e-01 1.293161434362250617e+00
2.596169497800968062e-01 1.478283185192857729e+00
2.606574986767621893e-01 1.373095124888056517e+00
2.616980475734275724e-01 1.180184758837114600e+00
2.627385964700929555e-01 1.139010969251167182e+00
2.637791453667583386e-01 1.202968437108786759e+00
2.648196942634237216e-01 1.391875399364842281e+00
2.658602431600891047e-01 1.359228090978955805e+00
2.669007920567544878e-01 1.451466803229603642e+00
2.679413409534198709e-01 1.117195040850837984e+00
2.689818898500852540e-01 1.117450846762025662e+00
2.700224387467506371e-01 1.190631108374066827e+00
2.710629876434160201e-01 1.305249415894099485e+00
2.721035365400814032e-01 1.182943288726821862e+00
2.731440854367467863e-01 1.094043952032151878e+00
2.741846343334121694e-01 1.291146183837579287e+00
2.752251832300775525e-01 1.333557597773147307e+00
2.762657321267429356e-01 1.262441552074363926e+00
2.773062810234083186e-01 1.204614167623283549e+00
2.783468299200737017e-01 9.681714272279577926e-01
2.793873788167390848e-01 7.207168411875635172e-01
2.804279277134044679e-01 8.492600424319007857e-01
2.814684766100698510e-01 9.745052042267872139e-01
2.825090255067352341e-01 1.091853707316843725e+00
2.835495744034006171e-01 1.340083988070034593e+00
2.845901233000660002e-01 9.364141115657318437e-01
2.856306721967313833e-01 9.069541417066631084e-01
2.866712210933967664e-01 8.637503886509954043e-01
2.877117699900621495e-01 9.162769096795742030e-01
2.887523188867275326e-01 8.636978433660544852e-01
2.897928677833929156e-01 6.084366454332688079e-01
2.908334166800582987e-01 8.803491418732640739e-01
2.918739655767236818e-01 1.022633887627723226e+00
2.929145144733890649e-01 7.300144230349090435e-01
2.939550633700544480e-01 5.360466348006021065e-01
2.949956122667198311e-01 5.670315487040298308e-01
2.960361611633852141e-01 8.674895557068218466e-01
2.970767100600505972e-01 6.558615851895339688e-01
2.981172589567159803e-01 4.665280515636283099e-01
2.991578078533813634e-01 6.754292637216536832e-01
3.001983567500468020e-01 6.764003359339163524e-01
3.012389056467121851e-01 7.176926420500926440e-01
3.022794545433775681e-01 8.467760374215096419e-01
3.033200034400429512e-01 7.543182092408109440e-01
3.043605523367083343e-01 6.339588371347133489e-01
3.054011012333737174e-01 7.223712459851654444e-01
3.064416501300391005e-01 7.816439570267235126e-01
3.074821990267044836e-01 5.410909072668488307e-01
3.085227479233698666e-01 2.994743307222442752e-01
3.095632968200352497e-01 3.993448458720294525e-01
3.106038457167006328e-01 6.004997589154221771e-01
3.116443946133660159e-01 4.853647865398507122e-01
3.126849435100313990e-01 6.536795710188840758e-01
3.137254924066967821e-01 5.780711421923712123e-01
3.147660413033621651e-01 7.318014794942797607e-01
3.158065902000275482e-01 7.405489324471687951e-01
3.168471390966929313e-01 6.630366846693718230e-01
3.178876879933583144e-01 7.660693675148628756e-01
3.189282368900236975e-01 7.912014420762538691e-01
3.199687857866890806e-01 8.091004686392153644e-01
3.210093346833544636e-01 7.957180627915967364e-01
3.220498835800198467e-01 6.487554304459379750e-01
3.230904324766852298e-01 6.349399333904024445e-01
3.241309813733506129e-01 6.954240306885779432e-01
3.251715302700159960e-01 7.584952474843476011e-01
3.262120791666813790e-01 6.424331882041087738e-01
3.272526280633467621e-01 6.108337790555431468e-01
3.282931769600121452e-01 6.571560303254813107e-01
3.293337258566775283e-01 5.669119397268005400e-01
3.303742747533429114e-01 6.954593463184082225e-01
3.314148236500082945e-01 5.554322958636177532e-01
3.324553725466736775e-01 2.574551394628166179e-01
3.334959214433390606e-01 4.519002136541487857e-01
3.345364703400044437e-01 4.341994035764180637e-01
3.355770192366698268e-01 4.510894785447838728e-01
3.366175681333352099e-01 6.251687664119707222e-01
3.376581170300005930e-01 5.478981402833547065e-01
3.386986659266659760e-01 3.134898364601887977e-01
3.397392148233313591e-01 5.208136315173206299e-01
3.407797637199967422e-01 5.222526992843157245e-01
3.418203126166621253e-01 6.260975732759668233e-01
3.428608615133275084e-01 7.200491305955836197e-01
3.439014104099928915e-01 3.941000860353618407e-01
3.449419593066582745e-01 4.808889212147313685e-01
3.459825082033236576e-01 5.196859651921670320e-01
3.470230570999890407e-01 4.299641586037736829e-01
3.480636059966544238e-01 4.234699012738403212e-01
3.491041548933198069e-01 3.127172988078967819e-01
3.501447037899851900e-01 4.067903292264034576e-01
3.511852526866505730e-01 4.369488348627079688e-01
3.522258015833159561e-01 5.177481250652604672e-01
3.532663504799813392e-01 4.894670822012159306e-01
3.543068993766467223e-01 4.874662146986672440e-01
3.553474482733121054e-01 2.798242634482441815e-01
3.563879971699774885e-01 5.189838604772880615e-01
3.574285460666428715e-01 3.189498653094560154e-01
3.584690949633082546e-01 7.028198708301758302e-02
3.595096438599736377e-01 1.266679075341627936e-01
3.605501927566390208e-01 3.335862133635103532e-01
3.615907416533044039e-01 4.463720292468416062e-01
3.626312905499697870e-01 3.517296899238111507e-01
3.636718394466351700e-01 4.802691781815120464e-01
3.647123883433005531e-01 5.247427117821956699e-01
3.657529372399659362e-01 4.299205150415197352e-01
3.667934861366313193e-01 4.275119872220329853e-01
3.678340350332967024e-01 3.767470936189241115e-01
3.688745839299620854e-01 5.259304918605529622e-01
3.699151328266274685e-01 3.073285812764545710e-01
3.709556817232928516e-01 4.775484709883137668e-01
3.719962306199582347e-01 5.341332570376273736e-01
3.730367795166236178e-01 5.132087370692914874e-01
3.740773284132890009e-01 5.727206991337574493e-01
3.751178773099543839e-01 4.289457683311823644e-01
3.761584262066197670e-01 4.465667887477238196e-01
3.771989751032851501e-01 2.686064729730652800e-01
3.782395239999505332e-01 4.673581577710521628e-01
3.792800728966159163e-01 5.510306358176428887e-01
3.803206217932812994e-01 2.594095753447902553e-01
3.813611706899466824e-01 3.253998847800687599e-01
3.824017195866120655e-01 4.499534020419417857e-01
3.834422684832774486e-01 4.219938738525002009e-01
3.844828173799428317e-01 2.165382304370311317e-01
3.855233662766082148e-01 3.249162697329772698e-01
3.865639151732735979e-01 2.631888994610953603e-01
3.876044640699389809e-01 1.382073877992091582e-01
3.886450129666043640e-01 2.792985323099301809e-01
3.896855618632697471e-01 4.135769530871264976e-01
3.907261107599351302e-01 4.564022475011206836e-01
3.917666596566005133e-01 3.041801982739826826e-01
3.928072085532658964e-01 9.162515004896576443e-02
3.938477574499312794e-01 9.211226201392719304e-02
3.948883063465966625e-01 2.360215780922096940e-01
3.959288552432620456e-01 3.673098207246816571e-01
3.969694041399274287e-01 2.756472098587394726e-01
3.980099530365928118e-01 4.319149123009466962e-01
3.990505019332581949e-01 6.903508604563555195e-01
4.000910508299235779e-01 6.893252703090055888e-01
4.011315997265889610e-01 1.984163683086670460e-01
4.021721486232543441e-01 2.258380508884236804e-01
4.032126975199197272e-01 2.384237445705394975e-01
4.042532464165851103e-01 2.142200966134772955e-01
4.052937953132504934e-01 2.508073331100284520e-01
4.063343442099158764e-01 2.191873060560567410e-01
4.073748931065812595e-01 9.712729956817867105e-02
4.084154420032466426e-01 2.521875049056987450e-01
4.094559908999120257e-01 3.908877979894498367e-01
4.104965397965774088e-01 2.771600521788286642e-01
4.115370886932427918e-01 4.057981448085996590e-01
4.125776375899081749e-01 4.455173344193710250e-01
4.136181864865735580e-01 1.780056698786580682e-01
4.146587353832389411e-01 1.630245166330617224e-01
4.156992842799043242e-01 2.436560197763171232e-01
4.167398331765697073e-01 3.593749619158224107e-01
4.177803820732350903e-01 2.197464164835842837e-01
4.188209309699004734e-01 6.653744023920538098e-02
4.198614798665658565e-01 3.205388741012988874e-01
4.209020287632312396e-01 4.141684138262000658e-01
4.219425776598966227e-01 1.766636487663575394e-01
4.229831265565620058e-01 0.000000000000000000e+00
4.240236754532273888e-01 8.449921914030156245e-02
4.250642243498927719e-01 1.566385177273801332e-01
4.261047732465581550e-01 6.292475924797358289e-02
4.271453221432235381e-01 1.614491459295166464e-01
4.281858710398889212e-01 2.605338725862296201e-01
4.292264199365543043e-01 1.562558460302518881e-01
4.302669688332196873e-01 1.145835596172943838e-01
4.313075177298850704e-01 2.215390818112474847e-01
4.323480666265504535e-01 2.287764999642973862e-01
4.333886155232158366e-01 9.608032790182363669e-02
4.344291644198812197e-01 2.198788018574724390e-01
