# q (1/Angstrom), Intensity (arb)
2.029070354705860696e-02 2.559463939386213838e+02
2.133125244372399004e-02 2.207569704554634029e+02
2.237180134038937659e-02 1.975318018323990543e+02
2.341235023705475968e-02 1.789351909685011606e+02
2.445289913372014276e-02 1.640611905039401961e+02
2.549344803038552584e-02 1.529557208960226831e+02
2.653399692705091240e-02 1.408280908975245325e+02
2.757454582371629548e-02 1.301668184644782968e+02
2.861509472038167856e-02 1.230733332454414466e+02
2.965564361704706164e-02 1.183718567353747346e+02
3.069619251371244473e-02 1.122668450776654794e+02
3.173674141037782781e-02 1.080748966012737640e+02
3.277729030704321089e-02 1.059582945486066308e+02
3.381783920370859398e-02 1.013890334559717701e+02
3.485838810037397706e-02 9.940529202937241848e+01
3.589893699703936014e-02 9.835867457277731774e+01
3.693948589370474322e-02 9.693069988653589064e+01
3.798003479037012631e-02 9.568751239825323296e+01
3.902058368703550939e-02 9.780465932955078756e+01
4.006113258370089247e-02 9.902356712417628160e+01
4.110168148036627556e-02 1.022326139207160054e+02
4.214223037703165864e-02 1.056958565879152729e+02
4.318277927369704866e-02 1.092403932329831946e+02
4.422332817036243174e-02 1.153280297892155772e+02
4.526387706702781483e-02 1.235990044926719662e+02
4.630442596369319791e-02 1.324683112485004131e+02
4.734497486035858099e-02 1.425412346202808465e+02
4.838552375702396408e-02 1.575127369669864379e+02
4.942607265368934716e-02 1.798822690237721815e+02
5.046662155035473024e-02 2.112254785823448344e+02
5.150717044702011332e-02 2.612634180180797898e+02
5.254771934368549641e-02 3.424368595707773579e+02
5.358826824035087949e-02 4.795782289511313934e+02
5.462881713701626257e-02 6.884588643667282213e+02
5.566936603368164566e-02 9.731220599375985785e+02
5.670991493034702874e-02 1.291469319793986188e+03
5.775046382701241182e-02 1.495323667818223612e+03
5.879101272367779490e-02 1.502220710509336641e+03
5.983156162034317799e-02 1.368813277520762313e+03
6.087211051700856107e-02 1.171590811090130501e+03
6.191265941367394415e-02 9.662246164408096547e+02
6.295320831033933417e-02 7.776906255335319429e+02
6.399375720700471726e-02 6.217507687812200174e+02
6.503430610367010034e-02 4.991106312812439114e+02
6.607485500033548342e-02 3.986973405505984260e+02
6.711540389700086651e-02 3.158690061409345731e+02
6.815595279366624959e-02 2.484345216167520221e+02
6.919650169033163267e-02 1.918274868798689852e+02
7.023705058699701576e-02 1.451760807963139541e+02
7.127759948366239884e-02 1.088948184959794929e+02
7.231814838032778192e-02 8.170300708997190497e+01
7.335869727699316500e-02 6.115098333124720398e+01
7.439924617365854809e-02 4.676558595324404166e+01
7.543979507032393117e-02 3.687025463885163390e+01
7.648034396698931425e-02 3.041793831122694769e+01
7.752089286365469734e-02 2.503648783830373148e+01
7.856144176032008042e-02 2.186180282764656724e+01
7.960199065698546350e-02 1.941363207641500566e+01
8.064253955365084658e-02 1.709084461641592867e+01
8.168308845031622967e-02 1.565066122703076346e+01
8.272363734698161275e-02 1.527154431450929550e+01
8.376418624364699583e-02 1.539778640600725623e+01
8.480473514031239279e-02 1.530332834574701195e+01
8.584528403697777588e-02 1.555178585466125085e+01
8.688583293364315896e-02 1.698214133428421491e+01
8.792638183030854204e-02 1.884464698852304920e+01
8.896693072697392513e-02 2.152175748735262317e+01
9.000747962363930821e-02 2.547706601845164442e+01
9.104802852030469129e-02 3.313433042829934294e+01
9.208857741697007437e-02 4.448873416767193589e+01
9.312912631363545746e-02 5.464346393844470384e+01
9.416967521030084054e-02 6.219756575073128602e+01
9.521022410696622362e-02 6.486568916497614623e+01
9.625077300363160671e-02 6.591089170880655956e+01
9.729132190029698979e-02 6.552804301293855360e+01
9.833187079696237287e-02 6.189383577137678571e+01
9.937241969362775595e-02 5.778726340379775195e+01
1.004129685902931390e-01 5.523754142870603800e+01
1.014535174869585221e-01 5.311957041090417420e+01
1.024940663836239052e-01 5.198556173758995413e+01
1.035346152802892883e-01 5.065320763790110448e+01
1.045751641769546714e-01 5.063673425286251017e+01
1.056157130736200545e-01 5.214994047661897980e+01
1.066562619702854375e-01 5.617718457644821939e+01
1.076968108669508206e-01 6.228315465790117855e+01
1.087373597636162037e-01 7.027518326149808559e+01
1.097779086602815868e-01 7.620657758858384057e+01
1.108184575569469699e-01 7.661472037942134250e+01
1.118590064536123529e-01 7.447900595241188171e+01
1.128995553502777360e-01 7.194867126682993330e+01
1.139401042469431191e-01 6.823551806907839534e+01
1.149806531436085022e-01 6.234198353743121856e+01
1.160212020402738853e-01 5.496966184508647757e+01
1.170617509369392684e-01 4.867650716610810946e+01
1.181022998336046514e-01 4.269477223779977493e+01
1.191428487302700345e-01 3.770022107653126398e+01
1.201833976269354176e-01 3.234574636707521478e+01
1.212239465236008007e-01 2.719014154492282032e+01
1.222644954202661838e-01 2.299825474462741681e+01
1.233050443169315669e-01 1.978483310170072329e+01
1.243455932135969499e-01 1.653464392047082399e+01
1.253861421102623330e-01 1.362423539822158247e+01
1.264266910069277161e-01 1.142683938389220799e+01
1.274672399035930992e-01 9.828948747937694463e+00
1.285077888002584823e-01 8.294764174410843793e+00
1.295483376969238654e-01 7.662318937976404953e+00
1.305888865935892484e-01 7.031244327143937767e+00
1.316294354902546315e-01 6.161188217412110646e+00
1.326699843869200146e-01 5.729743529654736989e+00
1.337105332835853977e-01 5.009557376015280283e+00
1.347510821802507808e-01 5.233820481542821312e+00
1.357916310769161639e-01 5.460257612322081400e+00
1.368321799735815469e-01 5.257706768448187518e+00
1.378727288702469300e-01 5.288958141905133914e+00
1.389132777669123131e-01 5.518096365454425722e+00
1.399538266635776962e-01 5.656597426344159629e+00
1.409943755602430793e-01 6.051553328444430946e+00
1.420349244569084624e-01 7.261410336634391172e+00
1.430754733535738454e-01 8.770706096639653282e+00
1.441160222502392285e-01 9.823268141312382795e+00
1.451565711469046116e-01 1.127931477337573085e+01
1.461971200435699947e-01 1.271822823592630058e+01
1.472376689402353778e-01 1.344092831072041250e+01
1.482782178369007609e-01 1.389065069403925534e+01
1.493187667335661439e-01 1.320422128164402409e+01
1.503593156302315270e-01 1.246415606578519331e+01
1.513998645268969101e-01 1.209217001996919905e+01
1.524404134235622932e-01 1.184252507147527922e+01
1.534809623202276763e-01 1.126429210641938639e+01
1.545215112168930593e-01 1.097762033198195653e+01
1.555620601135584424e-01 1.061796559591977385e+01
1.566026090102238255e-01 1.035223770650489072e+01
1.576431579068892086e-01 1.006082511819381864e+01
1.586837068035545917e-01 9.784832537391164209e+00
1.597242557002199748e-01 9.852030929247792557e+00
1.607648045968853578e-01 9.750833105822145797e+00
1.618053534935507409e-01 9.334018176749619755e+00
1.628459023902161240e-01 9.199940091485178328e+00
1.638864512868815071e-01 8.717269313610984227e+00
1.649270001835468902e-01 8.408089497388694156e+00
1.659675490802122733e-01 8.224103820274933696e+00
1.670080979768776563e-01 8.005523311823655064e+00
1.680486468735430672e-01 7.872518722897439147e+00
1.690891957702084503e-01 7.844983257970365997e+00
1.701297446668738333e-01 7.936028376069472756e+00
1.711702935635392164e-01 7.678298341815807504e+00
1.722108424602045995e-01 7.146573463172661178e+00
1.732513913568699826e-01 6.538573691937692445e+00
1.742919402535353657e-01 5.948449438978297366e+00
1.753324891502007488e-01 5.961705904740494333e+00
1.763730380468661318e-01 5.658773820602657878e+00
1.774135869435315149e-01 5.135322270256082788e+00
1.784541358401968980e-01 4.921684181823376747e+00
1.794946847368622811e-01 4.519149541687717431e+00
1.805352336335276642e-01 4.351968464215524079e+00
1.815757825301930473e-01 4.221619530058170255e+00
1.826163314268584303e-01 3.832273346287525584e+00
1.836568803235238134e-01 3.737734692956482974e+00
1.846974292201891965e-01 3.582348296721576730e+00
1.857379781168545796e-01 3.555520125150870570e+00
1.867785270135199627e-01 3.176212141919322107e+00
1.878190759101853458e-01 3.435205847765672615e+00
1.888596248068507288e-01 3.316579396176340566e+00
1.899001737035161119e-01 2.936505517198288118e+00
1.909407226001814950e-01 2.848866794285619619e+00
1.919812714968468781e-01 3.025634208963822402e+00
1.930218203935122612e-01 3.267988748345754146e+00
1.940623692901776443e-01 3.465663656954003358e+00
1.951029181868430273e-01 3.486970194440221604e+00
1.961434670835084104e-01 3.713241730276394037e+00
1.971840159801737935e-01 3.810733410073147809e+00
1.982245648768391766e-01 3.614862714803809496e+00
1.992651137735045597e-01 3.707429271539616877e+00
2.003056626701699428e-01 3.832348690987807061e+00
2.013462115668353813e-01 3.920423187748244942e+00
2.023867604635007644e-01 3.814919826315858131e+00
2.034273093601661475e-01 3.604182946997394055e+00
2.044678582568315306e-01 3.594685126889899607e+00
2.055084071534969137e-01 3.416645912694892928e+00
2.065489560501622968e-01 3.647053841457999823e+00
2.075895049468276798e-01 3.713560409622225222e+00
2.086300538434930629e-01 3.596699624157629671e+00
2.096706027401584460e-01 3.416467148588758107e+00
2.107111516368238291e-01 3.459703571590861060e+00
2.117517005334892122e-01 3.250159300716049415e+00
2.127922494301545953e-01 3.302542504496194908e+00
2.138327983268199783e-01 3.284944895674957621e+00
2.148733472234853614e-01 3.378181671211340387e+00
2.159138961201507445e-01 3.487911780956267194e+00
2.169544450168161276e-01 3.189851338866915853e+00
2.179949939134815107e-01 3.180495179116867632e+00
2.190355428101468938e-01 3.245312082171150081e+00
2.200760917068122768e-01 3.028057662885196066e+00
2.211166406034776599e-01 2.901193878524065184e+00
2.221571895001430430e-01 2.815484155140250522e+00
2.231977383968084261e-01 2.883125829957585040e+00
2.242382872934738092e-01 2.707174203859718631e+00
2.252788361901391923e-01 2.714588574500680807e+00
2.263193850868045753e-01 2.925699649305030903e+00
2.273599339834699584e-01 3.174358698283342051e+00
2.284004828801353415e-01 2.939352597235409092e+00
2.294410317768007246e-01 2.549832646112246692e+00
2.304815806734661077e-01 2.403740638339346702e+00
2.315221295701314908e-01 2.349926686676624854e+00
2.325626784667968738e-01 2.328055416534812849e+00
2.336032273634622569e-01 2.175484070904659006e+00
2.346437762601276400e-01 2.156012669896298917e+00
2.356843251567930231e-01 2.194236845439167638e+00
2.367248740534584062e-01 2.037959875328105852e+00
2.377654229501237892e-01 2.044663348134669434e+00
2.388059718467891723e-01 2.246192701946956305e+00
2.398465207434545554e-01 2.273559293547474880e+00
2.408870696401199385e-01 1.963353468558249659e+00
2.419276185367853216e-01 2.143021408067667721e+00
2.429681674334507047e-01 2.199828339399076071e+00
2.440087163301160877e-01 2.003308896801542005e+00
2.450492652267814708e-01 1.687792883188230064e+00
2.460898141234468539e-01 1.852817263014646443e+00
2.471303630201122370e-01 2.024285044770696373e+00
2.481709119167776201e-01 2.049380658292207613e+00
2.492114608134430032e-01 2.177591862317431293e+00
2.502520097101083585e-01 2.316273809929452199e+00
2.512925586067737416e-01 2.358432841988349793e+00
2.523331075034391247e-01 2.274687326958805045e+00
2.533736564001045077e-01 2.070934776362097551e+00
2.544142052967698908e-01 2.236281107320483130e+00
2.554547541934352739e-01 1.925650766708216111e+00
2.564953030901006570e-01 1.826701938195096631e+00
2.575358519867660401e-01 2.005469991683476394e+00
2.585764008834314231e-01 1.883191138134062470e+00
2.596169497800968062e-01 1.889290059792845256e+00
2.606574986767621893e-01 1.856800000725858268e+00
2.616980475734275724e-01 1.963362725070467718e+00
2.627385964700929555e-01 1.821948855464917472e+00
2.637791453667583386e-01 1.934497322283675658e+00
2.648196942634237216e-01 1.914947520886013166e+00
2.658602431600891047e-01 1.855506204580073870e+00
2.669007920567544878e-01 1.920392381183795294e+00
2.679413409534198709e-01 1.833299745051554908e+00
2.689818898500852540e-01 1.639659986861850882e+00
2.700224387467506371e-01 1.750877207862462370e+00
2.710629876434160201e-01 1.968303888568062376e+00
2.721035365400814032e-01 1.728722911401835205e+00
2.731440854367467863e-01 1.658878700040368415e+00
2.741846343334121694e-01 1.725309372667400254e+00
2.752251832300775525e-01 1.627072053279015051e+00
2.762657321267429356e-01 1.484767122963788211e+00
2.773062810234083186e-01 1.559942545549819926e+00
2.783468299200737017e-01 1.785791675087335051e+00
2.793873788167390848e-01 1.636714071545906535e+00
2.804279277134044679e-01 1.543537332189728772e+00
2.814684766100698510e-01 1.639143870148252802e+00
2.825090255067352341e-01 1.517305307298535411e+00
2.835495744034006171e-01 1.557704673893539393e+00
2.845901233000660002e-01 1.390627692636055457e+00
2.856306721967313833e-01 1.342118252224391739e+00
2.866712210933967664e-01 1.497138768223198468e+00
2.877117699900621495e-01 1.544572869968252604e+00
2.887523188867275326e-01 1.413416506852041010e+00
2.897928677833929156e-01 1.432391059114994647e+00
2.908334166800582987e-01 1.399155352952348608e+00
2.918739655767236818e-01 1.440139227546243461e+00
2.929145144733890649e-01 1.417011404984112488e+00
2.939550633700544480e-01 1.390702809386059613e+00
2.949956122667198311e-01 1.466543627143067852e+00
2.960361611633852141e-01 1.283903870127122815e+00
2.970767100600505972e-01 1.391613054710290953e+00
2.981172589567159803e-01 1.356947725098244462e+00
2.991578078533813634e-01 1.236768073476152807e+00
3.001983567500468020e-01 1.410914191571936982e+00
3.012389056467121851e-01 1.203709242056564932e+00
3.022794545433775681e-01 1.139993383055792009e+00
3.033200034400429512e-01 1.172733496458633340e+00
3.043605523367083343e-01 1.165429758672516414e+00
3.054011012333737174e-01 1.352126091923008033e+00
3.064416501300391005e-01 1.341697997417092836e+00
3.074821990267044836e-01 1.331111053499292041e+00
3.085227479233698666e-01 1.413592920582193102e+00
3.095632968200352497e-01 1.459390396008810598e+00
3.106038457167006328e-01 1.280127005773330495e+00
3.116443946133660159e-01 1.356338080076358921e+00
3.126849435100313990e-01 1.323891702173540352e+00
3.137254924066967821e-01 1.013520507123860881e+00
3.147660413033621651e-01 1.227970934422529581e+00
3.158065902000275482e-01 1.024376924586640314e+00
3.168471390966929313e-01 1.016919639605092129e+00
3.178876879933583144e-01 1.295171561301550867e+00
3.189282368900236975e-01 1.248992264236370886e+00
3.199687857866890806e-01 1.150452992158705001e+00
3.210093346833544636e-01 1.299247342053089227e+00
3.220498835800198467e-01 1.212981866018562727e+00
3.230904324766852298e-01 1.391163876736776217e+00
3.241309813733506129e-01 1.241993556162633183e+00
3.251715302700159960e-01 1.071760647999166594e+00
3.262120791666813790e-01 1.201168877339092944e+00
3.272526280633467621e-01 1.077134873421421446e+00
3.282931769600121452e-01 1.212677549474275196e+00
3.293337258566775283e-01 1.458902472538841977e+00
3.303742747533429114e-01 1.275018029037799039e+00
3.314148236500082945e-01 1.097116655260474971e+00
3.324553725466736775e-01 1.179753099280265616e+00
3.334959214433390606e-01 1.101736521893005971e+00
3.345364703400044437e-01 1.039325156449535825e+00
3.355770192366698268e-01 9.939354096194712440e-01
3.366175681333352099e-01 1.141237918370105575e+00
3.376581170300005930e-01 1.144464074707890688e+00
3.386986659266659760e-01 9.886637326030935924e-01
3.397392148233313591e-01 8.433336778830735625e-01
3.407797637199967422e-01 8.370243753790376218e-01
3.418203126166621253e-01 9.173563013407921574e-01
3.428608615133275084e-01 9.816150292623824214e-01
3.439014104099928915e-01 1.005932862919213022e+00
3.449419593066582745e-01 8.585836284160670573e-01
3.459825082033236576e-01 7.886067757042667381e-01
3.470230570999890407e-01 6.858762719676256836e-01
3.480636059966544238e-01 8.481520086974860817e-01
3.491041548933198069e-01 8.675164255401490720e-01
3.501447037899851900e-01 8.780161866837055129e-01
3.511852526866505730e-01 8.368443685689257450e-01
3.522258015833159561e-01 8.165144834635285065e-01
3.532663504799813392e-01 7.659671582045461946e-01
3.543068993766467223e-01 5.987317869555681682e-01
3.553474482733121054e-01 7.557493144031077748e-01
3.563879971699774885e-01 9.051449728421836483e-01
3.574285460666428715e-01 5.311649576132531081e-01
3.584690949633082546e-01 4.690599849112118136e-01
3.595096438599736377e-01 6.714898323414111303e-01
3.605501927566390208e-01 6.566875273223331533e-01
3.615907416533044039e-01 5.904801134157509068e-01
3.626312905499697870e-01 6.900871653459361710e-01
3.636718394466351700e-01 8.213274570644912842e-01
3.647123883433005531e-01 8.089522713368104689e-01
3.657529372399659362e-01 8.532298454908442409e-01
3.667934861366313193e-01 8.384648692201999154e-01
3.678340350332967024e-01 7.444562371717715621e-01
3.688745839299620854e-01 5.728999672324199821e-01
3.699151328266274685e-01 6.446179234619648923e-01
3.709556817232928516e-01 7.903194313874699617e-01
3.719962306199582347e-01 8.351362433505933325e-01
3.730367795166236178e-01 5.577047292853301030e-01
3.740773284132890009e-01 4.646299149005024276e-01
3.751178773099543839e-01 7.165982929954530789e-01
3.761584262066197670e-01 7.354460756325345017e-01
3.771989751032851501e-01 5.831738675524889004e-01
3.782395239999505332e-01 7.436480117546722113e-01
3.792800728966159163e-01 7.154300306399257181e-01
3.803206217932812994e-01 7.447065737424090059e-01
3.813611706899466824e-01 8.379455552955370479e-01
3.824017195866120655e-01 7.349513033083319158e-01
3.834422684832774486e-01 6.404644077118959444e-01
3.844828173799428317e-01 5.296902252582391668e-01
3.855233662766082148e-01 6.634533220294969169e-01
3.865639151732735979e-01 8.421531356509106558e-01
3.876044640699389809e-01 7.267507447815475530e-01
3.886450129666043640e-01 7.240846681215096226e-01
3.896855618632697471e-01 6.637879215706767866e-01
3.907261107599351302e-01 4.620994395776385488e-01
3.917666596566005133e-01 4.037322671389098616e-01
3.928072085532658964e-01 5.138415414223622690e-01
3.938477574499312794e-01 4.135625742613520117e-01
3.948883063465966625e-01 4.193755474155089757e-01
3.959288552432620456e-01 5.458601662511206598e-01
3.969694041399274287e-01 5.247003106829168928e-01
3.980099530365928118e-01 4.127829752928597884e-01
3.990505019332581949e-01 3.609742008040122130e-01
4.000910508299235779e-01 5.808726233881955636e-01
4.011315997265889610e-01 6.826009529493290984e-01
4.021721486232543441e-01 7.468874193177938992e-01
4.032126975199197272e-01 6.800159616167000820e-01
4.042532464165851103e-01 5.175053575618910884e-01
4.052937953132504934e-01 6.647347074117568866e-01
4.063343442099158764e-01 4.643496818711128071e-01
4.073748931065812595e-01 4.862352831591607583e-01
4.084154420032466426e-01 5.992183309799763435e-01
4.094559908999120257e-01 3.599990795612981742e-01
4.104965397965774088e-01 4.797647715031594373e-01
4.115370886932427918e-01 6.443601307144426471e-01
4.125776375899081749e-01 5.210207681006053804e-01
4.136181864865735580e-01 7.213096184535743305e-01
4.146587353832389411e-01 5.862452155168931256e-01
4.156992842799043242e-01 4.441972186319382843e-01
4.167398331765697073e-01 4.633269719756079041e-01
4.177803820732350903e-01 3.678013537076942896e-01
4.188209309699004734e-01 4.386097669282555955e-01
4.198614798665658565e-01 6.738929477412654023e-01
4.209020287632312396e-01 5.212913253335678121e-01
4.219425776598966227e-01 5.620668828774704195e-01
4.229831265565620058e-01 4.980318307758224705e-01
4.240236754532273888e-01 3.405508842131261815e-01
4.250642243498927719e-01 5.280816338834135593e-01
4.261047732465581550e-01 6.309170814426217078e-01
4.271453221432235381e-01 5.432586132094421316e-01
4.281858710398889212e-01 4.936844383431946426e-01
4.292264199365543043e-01 6.075602279781868731e-01
4.302669688332196873e-01 5.773387513326362352e-01
4.313075177298850704e-01 5.690032289912316799e-01
4.323480666265504535e-01 3.749697392708455368e-01
4.333886155232158366e-01 3.325069456896478926e-01
4.344291644198812197e-01 2.838612432438267774e-01
