# q (1/Angstrom), Intensity (arb)
2.029070354705860696e-02 2.457268422516637543e+02
2.133125244372399004e-02 2.152318239416770780e+02
2.237180134038937659e-02 1.890002363376306391e+02
2.341235023705475968e-02 1.728677681800369896e+02
2.445289913372014276e-02 1.579580051177951248e+02
2.549344803038552584e-02 1.422576694916449469e+02
2.653399692705091240e-02 1.328389278880457596e+02
2.757454582371629548e-02 1.252197875279595962e+02
2.861509472038167856e-02 1.145027784768531376e+02
2.965564361704706164e-02 1.066897902548133317e+02
3.069619251371244473e-02 1.039435424565449892e+02
3.173674141037782781e-02 9.933806389697376460e+01
3.277729030704321089e-02 9.583195148728272272e+01
3.381783920370859398e-02 9.340133951707369420e+01
3.485838810037397706e-02 9.168531466222262338e+01
3.589893699703936014e-02 8.957392371776128925e+01
3.693948589370474322e-02 8.760881574035181529e+01
3.798003479037012631e-02 8.722775083016892950e+01
3.902058368703550939e-02 8.728822173472867973e+01
4.006113258370089247e-02 8.823990698655072151e+01
4.110168148036627556e-02 8.982135238249425413e+01
4.214223037703165864e-02 9.315782745246971785e+01
4.318277927369704866e-02 9.413719894645363695e+01
4.422332817036243174e-02 9.693229437762011003e+01
4.526387706702781483e-02 1.021939095125377150e+02
4.630442596369319791e-02 1.085175160394874325e+02
4.734497486035858099e-02 1.172015232785581418e+02
4.838552375702396408e-02 1.297353045351839569e+02
4.942607265368934716e-02 1.436617963484593758e+02
5.046662155035473024e-02 1.644548268668264654e+02
5.150717044702011332e-02 1.950564673433764824e+02
5.254771934368549641e-02 2.440298670581968281e+02
5.358826824035087949e-02 3.285748417322699879e+02
5.462881713701626257e-02 4.630772878715117713e+02
5.566936603368164566e-02 6.509956134040489815e+02
5.670991493034702874e-02 8.990195326372236195e+02
5.775046382701241182e-02 1.134439182226091361e+03
5.879101272367779490e-02 1.235081498737050879e+03
5.983156162034317799e-02 1.182970948009648509e+03
6.087211051700856107e-02 1.044148817686538678e+03
6.191265941367394415e-02 8.767396054395916281e+02
6.295320831033933417e-02 7.168675289240745769e+02
6.399375720700471726e-02 5.729005744302662606e+02
6.503430610367010034e-02 4.571163494828008425e+02
6.607485500033548342e-02 3.651124187597129094e+02
6.711540389700086651e-02 2.905265005350345291e+02
6.815595279366624959e-02 2.290453702683368817e+02
6.919650169033163267e-02 1.783496724350690386e+02
7.023705058699701576e-02 1.366961323173783853e+02
7.127759948366239884e-02 1.022592023775433177e+02
7.231814838032778192e-02 7.678964261711429629e+01
7.335869727699316500e-02 5.826751662641729013e+01
7.439924617365854809e-02 4.497021753406679068e+01
7.543979507032393117e-02 3.443942986891774893e+01
7.648034396698931425e-02 2.707677398418571357e+01
7.752089286365469734e-02 2.227829494580601732e+01
7.856144176032008042e-02 1.927578851933973425e+01
7.960199065698546350e-02 1.651583167590719370e+01
8.064253955365084658e-02 1.489590237189387523e+01
8.168308845031622967e-02 1.370188159414250606e+01
8.272363734698161275e-02 1.297644759238513501e+01
8.376418624364699583e-02 1.314902356645285408e+01
8.480473514031239279e-02 1.257642349522669178e+01
8.584528403697777588e-02 1.330175395302678254e+01
8.688583293364315896e-02 1.425242158891231270e+01
8.792638183030854204e-02 1.580648702009259665e+01
8.896693072697392513e-02 1.709999821136575093e+01
9.000747962363930821e-02 1.957869223428627237e+01
9.104802852030469129e-02 2.415284707434985734e+01
9.208857741697007437e-02 3.028687138240222509e+01
9.312912631363545746e-02 3.941921838056430261e+01
9.416967521030084054e-02 4.952549604188098442e+01
9.521022410696622362e-02 5.633148297051934605e+01
9.625077300363160671e-02 5.929397263008788599e+01
9.729132190029698979e-02 6.003300974479299157e+01
9.833187079696237287e-02 5.904861754145598951e+01
9.937241969362775595e-02 5.680894531704510797e+01
1.004129685902931390e-01 5.324764995802272693e+01
1.014535174869585221e-01 4.976757794805510571e+01
1.024940663836239052e-01 4.708496626105508653e+01
1.035346152802892883e-01 4.549890110740496141e+01
1.045751641769546714e-01 4.337766080851674388e+01
1.056157130736200545e-01 4.134761798373249775e+01
1.066562619702854375e-01 4.269576905991689841e+01
1.076968108669508206e-01 4.573338328566023847e+01
1.087373597636162037e-01 5.019449577527404927e+01
1.097779086602815868e-01 5.658286523176170846e+01
1.108184575569469699e-01 6.116092980988270966e+01
1.118590064536123529e-01 6.145339067286260359e+01
1.128995553502777360e-01 5.959790673756081958e+01
1.139401042469431191e-01 5.675995294659034585e+01
1.149806531436085022e-01 5.371207274139994325e+01
1.160212020402738853e-01 4.997071463514576095e+01
1.170617509369392684e-01 4.524052397580543783e+01
1.181022998336046514e-01 3.924811211341341277e+01
1.191428487302700345e-01 3.492167967150886199e+01
1.201833976269354176e-01 3.008600653296831950e+01
1.212239465236008007e-01 2.554668609503558230e+01
1.222644954202661838e-01 2.157214610781161213e+01
1.233050443169315669e-01 1.816059836509771941e+01
1.243455932135969499e-01 1.499143416218442582e+01
1.253861421102623330e-01 1.260309418943666770e+01
1.264266910069277161e-01 1.087002404336691797e+01
1.274672399035930992e-01 8.969498502968498599e+00
1.285077888002584823e-01 7.903191609961076836e+00
1.295483376969238654e-01 7.279009086332123957e+00
1.305888865935892484e-01 6.237028167139698098e+00
1.316294354902546315e-01 5.000391015257534377e+00
1.326699843869200146e-01 4.802845802775230766e+00
1.337105332835853977e-01 4.745091640582344894e+00
1.347510821802507808e-01 4.492019042367047632e+00
1.357916310769161639e-01 4.210000128029989241e+00
1.368321799735815469e-01 3.769051216152718098e+00
1.378727288702469300e-01 3.882438267924563036e+00
1.389132777669123131e-01 3.882286703709233677e+00
1.399538266635776962e-01 4.290628383820958902e+00
1.409943755602430793e-01 4.251973773467028650e+00
1.420349244569084624e-01 4.953461582439025790e+00
1.430754733535738454e-01 5.529362594714434920e+00
1.441160222502392285e-01 7.060847317661753664e+00
1.451565711469046116e-01 8.063398227108436345e+00
1.461971200435699947e-01 8.931265245016724919e+00
1.472376689402353778e-01 1.066809235618497098e+01
1.482782178369007609e-01 1.168468071531547281e+01
1.493187667335661439e-01 1.225701143610992006e+01
1.503593156302315270e-01 1.246168443797206038e+01
1.513998645268969101e-01 1.207656053477643354e+01
1.524404134235622932e-01 1.126441899522778556e+01
1.534809623202276763e-01 1.000936597999192657e+01
1.545215112168930593e-01 9.863417842201080532e+00
1.555620601135584424e-01 9.911408088173118358e+00
1.566026090102238255e-01 9.410180353166033740e+00
1.576431579068892086e-01 8.626805579352812003e+00
1.586837068035545917e-01 8.383250949294691168e+00
1.597242557002199748e-01 8.349832280843571652e+00
1.607648045968853578e-01 7.999528382226358758e+00
1.618053534935507409e-01 7.512194655501474472e+00
1.628459023902161240e-01 7.568766447928588548e+00
1.638864512868815071e-01 7.436423459346450215e+00
1.649270001835468902e-01 7.298850362707256068e+00
1.659675490802122733e-01 7.058181864759596635e+00
1.670080979768776563e-01 6.282281719905491002e+00
1.680486468735430672e-01 6.273817368559576835e+00
1.690891957702084503e-01 5.916076290231238488e+00
1.701297446668738333e-01 5.626480219937938898e+00
1.711702935635392164e-01 5.690947948687863800e+00
1.722108424602045995e-01 5.613731875303628271e+00
1.732513913568699826e-01 5.220469216201671259e+00
1.742919402535353657e-01 4.817069268588781483e+00
1.753324891502007488e-01 4.194442344427891101e+00
1.763730380468661318e-01 4.528330034772622525e+00
1.774135869435315149e-01 4.177370274739203637e+00
1.784541358401968980e-01 3.654158471112644690e+00
1.794946847368622811e-01 3.245532308666341237e+00
1.805352336335276642e-01 3.200972522251042562e+00
1.815757825301930473e-01 2.909983169717932583e+00
1.826163314268584303e-01 2.635490382754618111e+00
1.836568803235238134e-01 2.555372596644922112e+00
1.846974292201891965e-01 2.561898395388503502e+00
1.857379781168545796e-01 2.210469463191721218e+00
1.867785270135199627e-01 2.372035801680496547e+00
1.878190759101853458e-01 2.255197757797354541e+00
1.888596248068507288e-01 2.158368461412734973e+00
1.899001737035161119e-01 2.338779768225165867e+00
1.909407226001814950e-01 2.239439432490357262e+00
1.919812714968468781e-01 1.914578547307716150e+00
1.930218203935122612e-01 1.785192681074498466e+00
1.940623692901776443e-01 1.806286370255776319e+00
1.951029181868430273e-01 2.165181909360647694e+00
1.961434670835084104e-01 2.234965298027134395e+00
1.971840159801737935e-01 2.321413592175716190e+00
1.982245648768391766e-01 2.710118848953172233e+00
1.992651137735045597e-01 2.983291993092514360e+00
2.003056626701699428e-01 2.780360943413647590e+00
2.013462115668353813e-01 2.494269560850277401e+00
2.023867604635007644e-01 2.533793385522514541e+00
2.034273093601661475e-01 2.478443362521066007e+00
2.044678582568315306e-01 2.526401143776595859e+00
2.055084071534969137e-01 2.327376705708818605e+00
2.065489560501622968e-01 2.373453329618381957e+00
2.075895049468276798e-01 2.370290797085583989e+00
2.086300538434930629e-01 2.355486236014773027e+00
2.096706027401584460e-01 2.422206146657178039e+00
2.107111516368238291e-01 2.267248217526031340e+00
2.117517005334892122e-01 2.318004898410691794e+00
2.127922494301545953e-01 2.404676330604889500e+00
2.138327983268199783e-01 2.346710743426474011e+00
2.148733472234853614e-01 1.940226972219857515e+00
2.159138961201507445e-01 2.021926416238613911e+00
2.169544450168161276e-01 2.065625813131248378e+00
2.179949939134815107e-01 2.021406822497354483e+00
2.190355428101468938e-01 1.926662610968854494e+00
2.200760917068122768e-01 1.841977654933835140e+00
2.211166406034776599e-01 1.797777023983819333e+00
2.221571895001430430e-01 1.867302689119668457e+00
2.231977383968084261e-01 2.050924265517963363e+00
2.242382872934738092e-01 2.022897178847856026e+00
2.252788361901391923e-01 1.758623129241197347e+00
2.263193850868045753e-01 1.537991640649561731e+00
2.273599339834699584e-01 1.663237916517264381e+00
2.284004828801353415e-01 1.908082556112876915e+00
2.294410317768007246e-01 1.882980171054377649e+00
2.304815806734661077e-01 1.503383784086139485e+00
2.315221295701314908e-01 1.438853980372883257e+00
2.325626784667968738e-01 1.332782986226284550e+00
2.336032273634622569e-01 1.197060427472827371e+00
2.346437762601276400e-01 1.795004382726673953e+00
2.356843251567930231e-01 1.729990604279329602e+00
2.367248740534584062e-01 1.065227180847344357e+00
2.377654229501237892e-01 1.092663254969469477e+00
2.388059718467891723e-01 9.654458226429092349e-01
2.398465207434545554e-01 9.405831231923649227e-01
2.408870696401199385e-01 9.960847480432661882e-01
2.419276185367853216e-01 6.766874635404995786e-01
2.429681674334507047e-01 1.012664487798392798e+00
2.440087163301160877e-01 1.131177569293825513e+00
2.450492652267814708e-01 8.859560366354024552e-01
2.460898141234468539e-01 9.356091388540974663e-01
2.471303630201122370e-01 7.786555765356233394e-01
2.481709119167776201e-01 7.791145710162012961e-01
2.492114608134430032e-01 6.678708886474247208e-01
2.502520097101083585e-01 9.215009659988702140e-01
2.512925586067737416e-01 1.043283102675850671e+00
2.523331075034391247e-01 1.159897600030401321e+00
2.533736564001045077e-01 9.257453220159526097e-01
2.544142052967698908e-01 9.035666969326818787e-01
2.554547541934352739e-01 1.047047253759433971e+00
2.564953030901006570e-01 8.788821834614992667e-01
2.575358519867660401e-01 7.479524399408568058e-01
2.585764008834314231e-01 1.001994077330099486e+00
2.596169497800968062e-01 1.106749110001494785e+00
2.606574986767621893e-01 1.155767012400382043e+00
2.616980475734275724e-01 1.005876999618124046e+00
2.627385964700929555e-01 9.542146760731178290e-01
2.637791453667583386e-01 1.151724280571581716e+00
2.648196942634237216e-01 9.237733759435968750e-01
2.658602431600891047e-01 8.531031039775953673e-01
2.669007920567544878e-01 1.151227919318269954e+00
2.679413409534198709e-01 8.351109672987533372e-01
2.689818898500852540e-01 9.406647023150007669e-01
2.700224387467506371e-01 1.093458480038137282e+00
2.710629876434160201e-01 8.796066467347216644e-01
2.721035365400814032e-01 7.905106595656619106e-01
2.731440854367467863e-01 7.338882931769248330e-01
2.741846343334121694e-01 6.844290577601945813e-01
2.752251832300775525e-01 8.380584070570371580e-01
2.762657321267429356e-01 9.327887968195689439e-01
2.773062810234083186e-01 7.554115277770918624e-01
2.783468299200737017e-01 5.958820588880371361e-01
2.793873788167390848e-01 7.307692006040760191e-01
2.804279277134044679e-01 3.006879087759344316e-01
2.814684766100698510e-01 3.060354822148845244e-01
2.825090255067352341e-01 4.895298247206767428e-01
2.835495744034006171e-01 5.121477356531620728e-01
2.845901233000660002e-01 7.530958174503119551e-01
2.856306721967313833e-01 7.608770326708125253e-01
2.866712210933967664e-01 6.008863675345885724e-01
2.877117699900621495e-01 6.217915743089115210e-01
2.887523188867275326e-01 7.387677918587201020e-01
2.897928677833929156e-01 3.703724921435238571e-01
2.908334166800582987e-01 4.909852190691381679e-01
2.918739655767236818e-01 6.721206688600247503e-01
2.929145144733890649e-01 7.100665104418624196e-01
2.939550633700544480e-01 4.445361708463337891e-01
2.949956122667198311e-01 3.936731087288514175e-01
2.960361611633852141e-01 3.066285219757105551e-01
2.970767100600505972e-01 1.803122445293006137e-01
2.981172589567159803e-01 4.916423614980338641e-01
2.991578078533813634e-01 5.075384307423291830e-01
3.001983567500468020e-01 4.850401657643885756e-01
3.012389056467121851e-01 5.883652260202403284e-01
3.022794545433775681e-01 5.496897833972305136e-01
3.033200034400429512e-01 3.758665755444177137e-01
3.043605523367083343e-01 3.484755315291927502e-01
3.054011012333737174e-01 4.540311538164729654e-01
3.064416501300391005e-01 5.860348181365537812e-01
3.074821990267044836e-01 5.907901299823201668e-01
3.085227479233698666e-01 7.503732364007831279e-02
3.095632968200352497e-01 2.245883722926507176e-01
3.106038457167006328e-01 3.279807193899841877e-01
3.116443946133660159e-01 3.238240557084601789e-01
3.126849435100313990e-01 4.321264679637373263e-01
3.137254924066967821e-01 4.847588467778187749e-01
3.147660413033621651e-01 5.403638296373109995e-01
3.158065902000275482e-01 5.857488003491759798e-01
3.168471390966929313e-01 5.414672756933747166e-01
3.178876879933583144e-01 4.744585315428295758e-01
3.189282368900236975e-01 2.185383272895116136e-01
3.199687857866890806e-01 3.196994562677630825e-01
3.210093346833544636e-01 5.484299080884937894e-01
3.220498835800198467e-01 5.429803027399628945e-01
3.230904324766852298e-01 4.944117924843638434e-01
3.241309813733506129e-01 6.027691495869760274e-01
3.251715302700159960e-01 4.507375485486733169e-01
3.262120791666813790e-01 4.609114823386697424e-01
3.272526280633467621e-01 3.064817881950112621e-01
3.282931769600121452e-01 3.664558083691709101e-01
3.293337258566775283e-01 3.693648191802836322e-01
3.303742747533429114e-01 2.757721866215518958e-01
3.314148236500082945e-01 3.498256378585260506e-01
3.324553725466736775e-01 2.244498223016755389e-01
3.334959214433390606e-01 4.955915830536561373e-01
3.345364703400044437e-01 5.930109985848126541e-01
3.355770192366698268e-01 4.386641980073306968e-01
3.366175681333352099e-01 2.802135861602863542e-01
3.376581170300005930e-01 2.380306552361517447e-01
3.386986659266659760e-01 1.895451754663639576e-01
3.397392148233313591e-01 3.516288908495930343e-01
3.407797637199967422e-01 6.053593459716175573e-01
3.418203126166621253e-01 5.228703494846591582e-01
3.428608615133275084e-01 3.382787666628459533e-01
3.439014104099928915e-01 3.390927795997562555e-01
3.449419593066582745e-01 1.825395847670208127e-01
3.459825082033236576e-01 0.000000000000000000e+00
3.470230570999890407e-01 2.513489563861419640e-01
3.480636059966544238e-01 3.032165430926134775e-01
3.491041548933198069e-01 4.380844481018293379e-01
3.501447037899851900e-01 4.856035209368450012e-01
3.511852526866505730e-01 3.418256708127245247e-01
3.522258015833159561e-01 4.300971047101604938e-01
3.532663504799813392e-01 4.756482008251197158e-01
3.543068993766467223e-01 2.985685113704015237e-01
3.553474482733121054e-01 3.162719117943311176e-01
3.563879971699774885e-01 3.347838394423803265e-01
3.574285460666428715e-01 3.739073948628011124e-01
3.584690949633082546e-01 3.590272050487435251e-01
3.595096438599736377e-01 3.951618113211736727e-01
3.605501927566390208e-01 5.044839013840523023e-01
3.615907416533044039e-01 1.465749601132024793e-01
3.626312905499697870e-01 2.048602453929646572e-01
3.636718394466351700e-01 4.075788231970811637e-01
3.647123883433005531e-01 2.634644735242623881e-01
3.657529372399659362e-01 2.841874900373859703e-01
3.667934861366313193e-01 3.688410482702586535e-01
3.678340350332967024e-01 3.101788200983683907e-01
3.688745839299620854e-01 3.484679528382201852e-01
3.699151328266274685e-01 3.768085732089971884e-01
3.709556817232928516e-01 2.490545385542723977e-01
3.719962306199582347e-01 1.507100927524795964e-01
3.730367795166236178e-01 1.010601060893563385e-01
3.740773284132890009e-01 1.939973214400581014e-01
3.751178773099543839e-01 1.395053928887968198e-01
3.761584262066197670e-01 2.862487436055687340e-01
3.771989751032851501e-01 3.284473924344020190e-01
3.782395239999505332e-01 2.356010094885832018e-01
3.792800728966159163e-01 2.266576914083913152e-01
3.803206217932812994e-01 3.157762604007352536e-01
3.813611706899466824e-01 3.941619269053262542e-01
3.824017195866120655e-01 2.146372277059107603e-01
3.834422684832774486e-01 2.162969087794195389e-01
3.844828173799428317e-01 2.619438576777710637e-01
3.855233662766082148e-01 1.534166367869467251e-01
3.865639151732735979e-01 2.432922551598046823e-01
3.876044640699389809e-01 5.682930792633733574e-01
3.886450129666043640e-01 4.948805746525799520e-01
3.896855618632697471e-01 2.499308530024464403e-01
3.907261107599351302e-01 2.219522594986997888e-01
3.917666596566005133e-01 1.623064620767920019e-01
3.928072085532658964e-01 2.623241034896608426e-01
3.938477574499312794e-01 1.922269094388830979e-01
3.948883063465966625e-01 2.823263919197565031e-01
3.959288552432620456e-01 3.082257426548480339e-01
3.969694041399274287e-01 1.775766847613127197e-01
3.980099530365928118e-01 2.851374022011867737e-01
3.990505019332581949e-01 2.459651693850055665e-01
4.000910508299235779e-01 2.019671591974336877e-01
4.011315997265889610e-01 5.555737186648421755e-01
4.021721486232543441e-01 3.254539080160192555e-01
4.032126975199197272e-01 4.089319160691218258e-02
4.042532464165851103e-01 2.936937985349388214e-01
4.052937953132504934e-01 2.863148579683887363e-01
4.063343442099158764e-01 3.077646070166970560e-01
4.073748931065812595e-01 2.601429556930234810e-01
4.084154420032466426e-01 1.592490035326150632e-01
4.094559908999120257e-01 1.730565982731100405e-01
4.104965397965774088e-01 3.084191136067531147e-01
4.115370886932427918e-01 2.952055038916725493e-01
4.125776375899081749e-01 3.335373338737888105e-01
4.136181864865735580e-01 2.218332020084758938e-01
4.146587353832389411e-01 3.031047763036696097e-01
4.156992842799043242e-01 2.420873624543418146e-01
4.167398331765697073e-01 3.102212126802861292e-01
4.177803820732350903e-01 3.965418916131326910e-01
4.188209309699004734e-01 1.240018701296108361e-01
4.198614798665658565e-01 1.870284770653931616e-01
4.209020287632312396e-01 1.888534276150970470e-01
4.219425776598966227e-01 1.042391614301756420e-01
4.229831265565620058e-01 9.440377897408680496e-02
4.240236754532273888e-01 9.710393384705895414e-02
4.250642243498927719e-01 1.967585493562573618e-01
4.261047732465581550e-01 1.471284501910474773e-01
4.271453221432235381e-01 1.697463427050678320e-01
4.281858710398889212e-01 2.109132482250650753e-01
4.292264199365543043e-01 1.048032430197345377e-01
4.302669688332196873e-01 2.453389129298280125e-01
4.313075177298850704e-01 2.119611809013299819e-01
4.323480666265504535e-01 3.405629534299023931e-01
4.333886155232158366e-01 2.128823271228732494e-01
4.344291644198812197e-01 1.916871162945916751e-01
