# q (1/Angstrom), Intensity (arb)
2.029070354705860696e-02 2.473525822877897440e+02
2.133125244372399004e-02 2.136001196742857644e+02
2.237180134038937659e-02 1.858127242699660542e+02
2.341235023705475968e-02 1.670970293508334805e+02
2.445289913372014276e-02 1.519611139749966924e+02
2.549344803038552584e-02 1.394587096293042805e+02
2.653399692705091240e-02 1.284276441009902783e+02
2.757454582371629548e-02 1.208344677201333610e+02
2.861509472038167856e-02 1.144130538230475338e+02
2.965564361704706164e-02 1.068362587634369874e+02
3.069619251371244473e-02 1.023104305719836873e+02
3.173674141037782781e-02 9.840826240860799601e+01
3.277729030704321089e-02 9.479720501940687427e+01
3.381783920370859398e-02 9.059435324962194613e+01
3.485838810037397706e-02 8.886976166748115702e+01
3.589893699703936014e-02 8.662757376978706247e+01
3.693948589370474322e-02 8.658720432265951672e+01
3.798003479037012631e-02 8.574943153208525359e+01
3.902058368703550939e-02 8.558628132773691277e+01
4.006113258370089247e-02 8.740431227405460390e+01
4.110168148036627556e-02 8.863587089376446215e+01
4.214223037703165864e-02 9.045421337769846559e+01
4.318277927369704866e-02 9.285411051504780744e+01
4.422332817036243174e-02 9.639400348865115120e+01
4.526387706702781483e-02 1.017241697773787052e+02
4.630442596369319791e-02 1.077287751736324140e+02
4.734497486035858099e-02 1.165129758885002218e+02
4.838552375702396408e-02 1.268749414162867168e+02
4.942607265368934716e-02 1.421029841848022954e+02
5.046662155035473024e-02 1.638494111020306718e+02
5.150717044702011332e-02 1.951420540131720145e+02
5.254771934368549641e-02 2.421635942859586521e+02
5.358826824035087949e-02 3.265134721374174092e+02
5.462881713701626257e-02 4.610718542724967506e+02
5.566936603368164566e-02 6.486818642883263237e+02
5.670991493034702874e-02 8.935001635903009856e+02
5.775046382701241182e-02 1.127613411236967295e+03
5.879101272367779490e-02 1.229047777547011265e+03
5.983156162034317799e-02 1.176669162136626028e+03
6.087211051700856107e-02 1.040324478752761934e+03
6.191265941367394415e-02 8.743584501317116064e+02
6.295320831033933417e-02 7.124065514995759258e+02
6.399375720700471726e-02 5.704165624384007742e+02
6.503430610367010034e-02 4.552754848923114537e+02
6.607485500033548342e-02 3.623533864821235966e+02
6.711540389700086651e-02 2.888111530287835649e+02
6.815595279366624959e-02 2.289412986846529066e+02
6.919650169033163267e-02 1.790047468409845237e+02
7.023705058699701576e-02 1.366333940488371184e+02
7.127759948366239884e-02 1.044046321170660860e+02
7.231814838032778192e-02 7.834406234153698279e+01
7.335869727699316500e-02 5.812804957511870185e+01
7.439924617365854809e-02 4.417408287723530691e+01
7.543979507032393117e-02 3.421209673155865261e+01
7.648034396698931425e-02 2.759396962922495078e+01
7.752089286365469734e-02 2.258060530969346758e+01
7.856144176032008042e-02 1.872682252818918158e+01
7.960199065698546350e-02 1.645061215036770363e+01
8.064253955365084658e-02 1.510235967146334701e+01
8.168308845031622967e-02 1.401555530368752756e+01
8.272363734698161275e-02 1.371342214331132681e+01
8.376418624364699583e-02 1.283334165552810191e+01
8.480473514031239279e-02 1.273362901219885401e+01
8.584528403697777588e-02 1.330083781905027251e+01
8.688583293364315896e-02 1.360446611612834289e+01
8.792638183030854204e-02 1.451453702032043225e+01
8.896693072697392513e-02 1.627745859190657285e+01
9.000747962363930821e-02 1.951636307099907697e+01
9.104802852030469129e-02 2.385112457185164203e+01
9.208857741697007437e-02 3.064218626201211038e+01
9.312912631363545746e-02 3.945081876211379779e+01
9.416967521030084054e-02 4.989985009200361787e+01
9.521022410696622362e-02 5.671094444139077240e+01
9.625077300363160671e-02 5.938212833370129573e+01
9.729132190029698979e-02 5.969617242685310998e+01
9.833187079696237287e-02 5.836386986344830774e+01
9.937241969362775595e-02 5.507504190971226876e+01
1.004129685902931390e-01 5.203096600563203111e+01
1.014535174869585221e-01 5.004315151828046737e+01
1.024940663836239052e-01 4.721797295490503643e+01
1.035346152802892883e-01 4.488074670499594276e+01
1.045751641769546714e-01 4.336077333356060137e+01
1.056157130736200545e-01 4.301699274400512252e+01
1.066562619702854375e-01 4.371880572000884513e+01
1.076968108669508206e-01 4.548383867615092413e+01
1.087373597636162037e-01 5.013820591167036866e+01
1.097779086602815868e-01 5.564600736396126024e+01
1.108184575569469699e-01 5.996073882198398053e+01
1.118590064536123529e-01 6.087183067491254462e+01
1.128995553502777360e-01 5.909199643007993075e+01
1.139401042469431191e-01 5.701317549683471242e+01
1.149806531436085022e-01 5.448042570921538896e+01
1.160212020402738853e-01 5.000565813612527677e+01
1.170617509369392684e-01 4.424925373011758012e+01
1.181022998336046514e-01 3.939928921748076363e+01
1.191428487302700345e-01 3.484285794096813049e+01
1.201833976269354176e-01 2.974564257765576514e+01
1.212239465236008007e-01 2.564705400033180638e+01
1.222644954202661838e-01 2.178033250491015593e+01
1.233050443169315669e-01 1.882460967524517770e+01
1.243455932135969499e-01 1.574508774969925184e+01
1.253861421102623330e-01 1.317628098317194230e+01
1.264266910069277161e-01 1.116665789647313289e+01
1.274672399035930992e-01 9.364435170302215283e+00
1.285077888002584823e-01 7.521756281942685973e+00
1.295483376969238654e-01 6.304607124966622678e+00
1.305888865935892484e-01 5.764358410498772400e+00
1.316294354902546315e-01 5.258364587944164725e+00
1.326699843869200146e-01 4.835134417845743826e+00
1.337105332835853977e-01 4.733272409161280336e+00
1.347510821802507808e-01 4.134650531918282468e+00
1.357916310769161639e-01 3.677332494955109610e+00
1.368321799735815469e-01 4.354431183816608097e+00
1.378727288702469300e-01 4.048288029154335277e+00
1.389132777669123131e-01 3.975448106345474741e+00
1.399538266635776962e-01 4.091079444392960340e+00
1.409943755602430793e-01 4.180265997692522717e+00
1.420349244569084624e-01 4.681348430100754854e+00
1.430754733535738454e-01 5.528289441964723494e+00
1.441160222502392285e-01 6.385570643212155062e+00
1.451565711469046116e-01 7.811632494583214736e+00
1.461971200435699947e-01 8.982300606968792067e+00
1.472376689402353778e-01 1.017233427393706791e+01
1.482782178369007609e-01 1.145530784504013155e+01
1.493187667335661439e-01 1.197084779924115594e+01
1.503593156302315270e-01 1.202541851912734927e+01
1.513998645268969101e-01 1.136057404422319195e+01
1.524404134235622932e-01 1.103913513193253948e+01
1.534809623202276763e-01 1.032425622884452565e+01
1.545215112168930593e-01 1.014196911382890676e+01
1.555620601135584424e-01 1.003045652158800038e+01
1.566026090102238255e-01 9.306905188213157487e+00
1.576431579068892086e-01 8.715424489220772841e+00
1.586837068035545917e-01 8.120827404045044773e+00
1.597242557002199748e-01 7.806631711724385525e+00
1.607648045968853578e-01 7.739644576750514204e+00
1.618053534935507409e-01 7.966334359127820619e+00
1.628459023902161240e-01 7.557377240732769508e+00
1.638864512868815071e-01 7.415577722997788612e+00
1.649270001835468902e-01 7.139106265266462970e+00
1.659675490802122733e-01 6.710180361351277156e+00
1.670080979768776563e-01 6.304227698240900679e+00
1.680486468735430672e-01 6.457291370564739452e+00
1.690891957702084503e-01 6.121226917881195106e+00
1.701297446668738333e-01 5.554339746274642664e+00
1.711702935635392164e-01 5.204880529506702658e+00
1.722108424602045995e-01 4.752733380180600875e+00
1.732513913568699826e-01 4.593683771135935956e+00
1.742919402535353657e-01 4.741513727259949462e+00
1.753324891502007488e-01 4.395051708466638729e+00
1.763730380468661318e-01 4.343505067479995319e+00
1.774135869435315149e-01 4.220508052787813824e+00
1.784541358401968980e-01 3.441625339588995303e+00
1.794946847368622811e-01 3.171361053565725285e+00
1.805352336335276642e-01 3.204577733232063963e+00
1.815757825301930473e-01 3.044287663972347957e+00
1.826163314268584303e-01 2.771804175940154380e+00
1.836568803235238134e-01 2.290777383173605131e+00
1.846974292201891965e-01 2.280713489132438099e+00
1.857379781168545796e-01 2.215192596668153158e+00
1.867785270135199627e-01 1.627165841423831694e+00
1.878190759101853458e-01 1.661761364409230168e+00
1.888596248068507288e-01 1.770673999725882908e+00
1.899001737035161119e-01 1.714906359538460379e+00
1.909407226001814950e-01 1.646825500500835204e+00
1.919812714968468781e-01 1.887246584663277105e+00
1.930218203935122612e-01 1.892990629770167743e+00
1.940623692901776443e-01 2.138069505483294108e+00
1.951029181868430273e-01 2.251419897382945123e+00
1.961434670835084104e-01 2.376576579987915494e+00
1.971840159801737935e-01 2.434764065073085959e+00
1.982245648768391766e-01 2.852604783237911334e+00
1.992651137735045597e-01 2.933493709827313722e+00
2.003056626701699428e-01 2.846598537906874782e+00
2.013462115668353813e-01 2.751500074744402724e+00
2.023867604635007644e-01 2.484523112972411241e+00
2.034273093601661475e-01 2.300527499706859658e+00
2.044678582568315306e-01 2.395016181836304270e+00
2.055084071534969137e-01 2.485775440088747956e+00
2.065489560501622968e-01 2.598212767262729983e+00
2.075895049468276798e-01 2.755632306056501335e+00
2.086300538434930629e-01 2.892538622151338501e+00
2.096706027401584460e-01 2.489270876164155766e+00
2.107111516368238291e-01 2.389546638926951516e+00
2.117517005334892122e-01 2.404853681219538686e+00
2.127922494301545953e-01 2.316838031662381781e+00
2.138327983268199783e-01 2.134624004050522217e+00
2.148733472234853614e-01 2.302993794522148363e+00
2.159138961201507445e-01 2.051468775446362969e+00
2.169544450168161276e-01 2.116332139731568418e+00
2.179949939134815107e-01 2.228819576907270061e+00
2.190355428101468938e-01 2.047968017178625644e+00
2.200760917068122768e-01 1.966532757817827104e+00
2.211166406034776599e-01 1.870092180376520474e+00
2.221571895001430430e-01 1.709544428776450076e+00
2.231977383968084261e-01 1.597426890456592474e+00
2.242382872934738092e-01 1.711710217655717514e+00
2.252788361901391923e-01 1.595720100307755018e+00
2.263193850868045753e-01 1.861960544556961139e+00
2.273599339834699584e-01 1.792244970114683866e+00
2.284004828801353415e-01 1.841542343615302002e+00
2.294410317768007246e-01 1.655552913630089051e+00
2.304815806734661077e-01 1.442285724868629160e+00
2.315221295701314908e-01 1.497060758861042729e+00
2.325626784667968738e-01 1.304081635115124982e+00
2.336032273634622569e-01 1.087846455662788259e+00
2.346437762601276400e-01 1.227158655552980093e+00
2.356843251567930231e-01 1.282439557679065700e+00
2.367248740534584062e-01 1.330838196448208777e+00
2.377654229501237892e-01 9.187529837737429261e-01
2.388059718467891723e-01 1.054154001697977350e+00
2.398465207434545554e-01 1.227918370895714872e+00
2.408870696401199385e-01 1.189347062493389728e+00
2.419276185367853216e-01 9.921398885575065663e-01
2.429681674334507047e-01 1.081779385474721522e+00
2.440087163301160877e-01 8.874795451669612589e-01
2.450492652267814708e-01 8.964434013979598603e-01
2.460898141234468539e-01 8.648828230641179005e-01
2.471303630201122370e-01 1.053270860476008153e+00
2.481709119167776201e-01 8.524675115897899502e-01
2.492114608134430032e-01 7.725653602502582373e-01
2.502520097101083585e-01 9.500548159902812984e-01
2.512925586067737416e-01 8.848112238648511152e-01
2.523331075034391247e-01 8.492711950529958642e-01
2.533736564001045077e-01 1.063757767132315735e+00
2.544142052967698908e-01 1.345253991889062917e+00
2.554547541934352739e-01 1.066142350877814948e+00
2.564953030901006570e-01 9.268112336866280998e-01
2.575358519867660401e-01 9.589228857134450834e-01
2.585764008834314231e-01 9.790080280306376892e-01
2.596169497800968062e-01 1.003003895922869759e+00
2.606574986767621893e-01 1.175624727887598198e+00
2.616980475734275724e-01 1.113736023161258970e+00
2.627385964700929555e-01 9.746907013956089827e-01
2.637791453667583386e-01 1.033764731313894458e+00
2.648196942634237216e-01 1.177617492537233801e+00
2.658602431600891047e-01 9.579530996215126493e-01
2.669007920567544878e-01 8.584976467769607211e-01
2.679413409534198709e-01 6.275079043939228995e-01
2.689818898500852540e-01 4.750895833677866165e-01
2.700224387467506371e-01 6.975569693731920040e-01
2.710629876434160201e-01 6.439920832253633876e-01
2.721035365400814032e-01 7.687833751653094794e-01
2.731440854367467863e-01 8.427428200452595775e-01
2.741846343334121694e-01 8.480240812128627681e-01
2.752251832300775525e-01 7.722824585532102049e-01
2.762657321267429356e-01 7.179447732117907321e-01
2.773062810234083186e-01 6.957829072766195111e-01
2.783468299200737017e-01 6.110617638649813443e-01
2.793873788167390848e-01 7.689035086569901978e-01
2.804279277134044679e-01 8.046790049633223418e-01
2.814684766100698510e-01 7.716380476099899965e-01
2.825090255067352341e-01 6.125549506803942279e-01
2.835495744034006171e-01 6.054125014969748975e-01
2.845901233000660002e-01 7.032769722532243861e-01
2.856306721967313833e-01 5.187343677452957991e-01
2.866712210933967664e-01 8.025557152419473539e-01
2.877117699900621495e-01 7.743757082086375476e-01
2.887523188867275326e-01 8.264425180967016615e-01
2.897928677833929156e-01 6.867864438669002425e-01
2.908334166800582987e-01 5.835965650358012624e-01
2.918739655767236818e-01 4.185440679188054958e-01
2.929145144733890649e-01 2.727994678552221330e-01
2.939550633700544480e-01 5.717526292010752798e-01
2.949956122667198311e-01 5.994425380822647753e-01
2.960361611633852141e-01 5.682341022889758619e-01
2.970767100600505972e-01 4.342611797541344743e-01
2.981172589567159803e-01 4.560724212044497961e-01
2.991578078533813634e-01 3.551668028652272824e-01
3.001983567500468020e-01 4.139708520388509783e-01
3.012389056467121851e-01 3.306687434762380917e-01
3.022794545433775681e-01 4.800759987370497583e-01
3.033200034400429512e-01 5.559373975237633658e-01
3.043605523367083343e-01 4.598171459663973337e-01
3.054011012333737174e-01 4.724355566602227441e-01
3.064416501300391005e-01 3.912069863446312468e-01
3.074821990267044836e-01 2.023637701715585990e-01
3.085227479233698666e-01 4.392925505306486400e-01
3.095632968200352497e-01 5.967244115029863849e-01
3.106038457167006328e-01 5.062325325473224780e-01
3.116443946133660159e-01 5.240925526920072741e-01
3.126849435100313990e-01 3.273779698172916142e-01
3.137254924066967821e-01 5.129532163068013517e-01
3.147660413033621651e-01 6.983543864966570425e-01
3.158065902000275482e-01 4.161900340559157030e-01
3.168471390966929313e-01 3.577225374497707833e-01
3.178876879933583144e-01 2.698358783385721438e-01
3.189282368900236975e-01 4.639664305219177720e-01
3.199687857866890806e-01 5.529080360554168294e-01
3.210093346833544636e-01 5.253448935945534970e-01
3.220498835800198467e-01 5.778012367759508550e-01
3.230904324766852298e-01 3.175582998723172068e-01
3.241309813733506129e-01 2.800565771300078666e-01
3.251715302700159960e-01 2.870810426432086615e-01
3.262120791666813790e-01 3.173319126645424149e-01
3.272526280633467621e-01 4.025325107281894077e-01
3.282931769600121452e-01 6.732834588401850340e-01
3.293337258566775283e-01 5.702499906199420820e-01
3.303742747533429114e-01 5.673755131271924768e-01
3.314148236500082945e-01 5.604205262480519423e-01
3.324553725466736775e-01 5.435236202981457154e-01
3.334959214433390606e-01 4.419727923726526342e-01
3.345364703400044437e-01 3.781663661156926537e-01
3.355770192366698268e-01 4.763574908615417769e-01
3.366175681333352099e-01 4.297391255361908691e-01
3.376581170300005930e-01 2.262512360322581628e-01
3.386986659266659760e-01 1.562705624142459726e-01
3.397392148233313591e-01 2.487587068887791020e-01
3.407797637199967422e-01 3.475904016177580047e-01
3.418203126166621253e-01 3.996191284220067530e-01
3.428608615133275084e-01 5.275595257832996765e-01
3.439014104099928915e-01 3.858131965028306354e-01
3.449419593066582745e-01 4.606890322574095364e-01
3.459825082033236576e-01 2.916209190294658526e-01
3.470230570999890407e-01 1.172526527118691320e-01
3.480636059966544238e-01 2.902775880465924274e-01
3.491041548933198069e-01 4.289852676304910517e-01
3.501447037899851900e-01 4.460354343667987109e-01
3.511852526866505730e-01 3.463165340251350699e-01
3.522258015833159561e-01 6.448340556563074699e-01
3.532663504799813392e-01 4.826759204414052817e-01
3.543068993766467223e-01 4.649052528941446383e-01
3.553474482733121054e-01 3.705148852530406600e-01
3.563879971699774885e-01 2.575605965541889475e-01
3.574285460666428715e-01 4.004981289364692998e-01
3.584690949633082546e-01 3.282533376240337475e-01
3.595096438599736377e-01 2.309179700057057971e-01
3.605501927566390208e-01 1.216005623692133497e-01
3.615907416533044039e-01 1.438807191877202740e-01
3.626312905499697870e-01 2.419548060049159233e-01
3.636718394466351700e-01 2.862806221052203171e-01
3.647123883433005531e-01 3.660516804796429824e-01
3.657529372399659362e-01 3.260562195721519174e-01
3.667934861366313193e-01 2.467698934080679862e-01
3.678340350332967024e-01 1.079536276909145442e-01
3.688745839299620854e-01 1.620804000050668492e-01
3.699151328266274685e-01 4.452296247351412717e-01
3.709556817232928516e-01 5.279855427943829227e-01
3.719962306199582347e-01 3.967732369914358515e-01
3.730367795166236178e-01 1.022013167569930658e-01
3.740773284132890009e-01 2.232701521903983632e-01
3.751178773099543839e-01 4.182176273551228007e-01
3.761584262066197670e-01 2.930830309340137774e-01
3.771989751032851501e-01 3.533675683047725613e-01
3.782395239999505332e-01 4.131829615387339061e-01
3.792800728966159163e-01 2.986923470938442904e-01
3.803206217932812994e-01 3.976705576706365264e-01
3.813611706899466824e-01 5.136746191254175642e-01
3.824017195866120655e-01 4.147161302397002203e-01
3.834422684832774486e-01 2.666134934372159648e-01
3.844828173799428317e-01 3.786283505109331315e-01
3.855233662766082148e-01 5.024246017997029412e-01
3.865639151732735979e-01 6.125211098831435663e-01
3.876044640699389809e-01 4.437639010972738163e-01
3.886450129666043640e-01 1.195565898842012587e-01
3.896855618632697471e-01 1.196305800164303434e-01
3.907261107599351302e-01 3.105908325984216845e-01
3.917666596566005133e-01 4.483195687343304314e-01
3.928072085532658964e-01 3.527418892014431151e-01
3.938477574499312794e-01 1.729116965813481954e-01
3.948883063465966625e-01 2.070937121432905315e-01
3.959288552432620456e-01 4.511155410762448525e-01
3.969694041399274287e-01 3.843569925467740234e-01
3.980099530365928118e-01 3.082387682538936247e-01
3.990505019332581949e-01 1.649714471538352711e-01
4.000910508299235779e-01 0.000000000000000000e+00
4.011315997265889610e-01 6.864741349337677434e-02
4.021721486232543441e-01 1.407529685520323426e-01
4.032126975199197272e-01 2.897445471488850899e-01
4.042532464165851103e-01 4.475962525738488296e-01
4.052937953132504934e-01 3.734939071320546589e-01
4.063343442099158764e-01 3.588108978472241972e-01
4.073748931065812595e-01 3.103600995088093839e-01
4.084154420032466426e-01 3.781979318908916810e-01
4.094559908999120257e-01 5.007089178974553079e-01
4.104965397965774088e-01 3.909165851751161824e-01
4.115370886932427918e-01 3.614287134199578588e-01
4.125776375899081749e-01 1.130406411568891656e-01
4.136181864865735580e-01 2.704518011804815103e-01
4.146587353832389411e-01 3.192061667733838703e-01
4.156992842799043242e-01 3.219207750947958857e-01
4.167398331765697073e-01 4.331395634805836892e-01
4.177803820732350903e-01 2.804715394893193547e-01
4.188209309699004734e-01 3.446979968222940727e-01
4.198614798665658565e-01 8.912543217655297667e-01
4.209020287632312396e-01 7.215111378628691341e-01
4.219425776598966227e-01 4.288151269775468677e-01
4.229831265565620058e-01 5.151888095508354581e-01
4.240236754532273888e-01 3.857295837077785450e-01
4.250642243498927719e-01 3.420440898043537459e-01
4.261047732465581550e-01 3.672867702010584878e-01
4.271453221432235381e-01 3.754769164050522079e-01
4.281858710398889212e-01 2.097692915411109027e-01
4.292264199365543043e-01 2.695932826945508509e-01
4.302669688332196873e-01 3.026987212798992744e-01
4.313075177298850704e-01 2.514828839217635448e-01
4.323480666265504535e-01 2.785088409141458499e-01
4.333886155232158366e-01 3.343116603050901858e-01
4.344291644198812197e-01 3.595173271174125773e-01
