# q (1/Angstrom), Intensity (arb)
2.029070354705860696e-02 1.373291915014127653e+02
2.133125244372399004e-02 1.138525713598852178e+02
2.237180134038937659e-02 1.017218238710593710e+02
2.341235023705475968e-02 9.173283772601672581e+01
2.445289913372014276e-02 8.257588216782139057e+01
2.549344803038552584e-02 7.727020271887751335e+01
2.653399692705091240e-02 7.059063801954739859e+01
2.757454582371629548e-02 6.315060398754508242e+01
2.861509472038167856e-02 5.979366879723551165e+01
2.965564361704706164e-02 5.667936214953633112e+01
3.069619251371244473e-02 5.233005451855171941e+01
3.173674141037782781e-02 5.036606735557242587e+01
3.277729030704321089e-02 4.827350520977045534e+01
3.381783920370859398e-02 4.688337843390698367e+01
3.485838810037397706e-02 4.626566879243387120e+01
3.589893699703936014e-02 4.556065465857838603e+01
3.693948589370474322e-02 4.433958229367117809e+01
3.798003479037012631e-02 4.281339763516632502e+01
3.902058368703550939e-02 4.138751664652437512e+01
4.006113258370089247e-02 4.036299727030277751e+01
4.110168148036627556e-02 4.105936274623238802e+01
4.214223037703165864e-02 4.099065593576988675e+01
4.318277927369704866e-02 4.142687616001880713e+01
4.422332817036243174e-02 4.203717660738386286e+01
4.526387706702781483e-02 4.105314742442955378e+01
4.630442596369319791e-02 4.222352909625754336e+01
4.734497486035858099e-02 4.381481024993748008e+01
4.838552375702396408e-02 4.490517865600244107e+01
4.942607265368934716e-02 4.655998800890977662e+01
5.046662155035473024e-02 4.885730984859882398e+01
5.150717044702011332e-02 5.086489543521982171e+01
5.254771934368549641e-02 5.508721101459882874e+01
5.358826824035087949e-02 5.893826076668382541e+01
5.462881713701626257e-02 6.361715163142258689e+01
5.566936603368164566e-02 7.026340152110512349e+01
5.670991493034702874e-02 8.013117556452279189e+01
5.775046382701241182e-02 9.259355171821690078e+01
5.879101272367779490e-02 1.124722889003701880e+02
5.983156162034317799e-02 1.438044496345657990e+02
6.087211051700856107e-02 1.943745919727123805e+02
6.191265941367394415e-02 2.654292196875462650e+02
6.295320831033933417e-02 3.614305128176140443e+02
6.399375720700471726e-02 4.806309432973484945e+02
6.503430610367010034e-02 5.880055722583011857e+02
6.607485500033548342e-02 6.317702521026188833e+02
6.711540389700086651e-02 6.166955219012494354e+02
6.815595279366624959e-02 5.711525600908848901e+02
6.919650169033163267e-02 5.096166504427559403e+02
7.023705058699701576e-02 4.433730540881322781e+02
7.127759948366239884e-02 3.787605232241838280e+02
7.231814838032778192e-02 3.202583313021200411e+02
7.335869727699316500e-02 2.703956870204370944e+02
7.439924617365854809e-02 2.266995132079492237e+02
7.543979507032393117e-02 1.883218449974691566e+02
7.648034396698931425e-02 1.555833736157827332e+02
7.752089286365469734e-02 1.264242543893065971e+02
7.856144176032008042e-02 1.021951374316456906e+02
7.960199065698546350e-02 8.251586429503332454e+01
8.064253955365084658e-02 6.666730865398733386e+01
8.168308845031622967e-02 5.412794897565923691e+01
8.272363734698161275e-02 4.272065275699376485e+01
8.376418624364699583e-02 3.355040683183236894e+01
8.480473514031239279e-02 2.660054599672352538e+01
8.584528403697777588e-02 2.165015364800537867e+01
8.688583293364315896e-02 1.811023518350160089e+01
8.792638183030854204e-02 1.506819333930555871e+01
8.896693072697392513e-02 1.243121629521397153e+01
9.000747962363930821e-02 1.089725567910596737e+01
9.104802852030469129e-02 9.391975786637821955e+00
9.208857741697007437e-02 8.430209738347755888e+00
9.312912631363545746e-02 8.394663082981224989e+00
9.416967521030084054e-02 8.068527375715369487e+00
9.521022410696622362e-02 7.333361537945251030e+00
9.625077300363160671e-02 7.223054713975656682e+00
9.729132190029698979e-02 7.287983741029528062e+00
9.833187079696237287e-02 7.533282769256111067e+00
9.937241969362775595e-02 8.349264518590075568e+00
1.004129685902931390e-01 9.345605792532211353e+00
1.014535174869585221e-01 1.048884764883311504e+01
1.024940663836239052e-01 1.157300661070867420e+01
1.035346152802892883e-01 1.345529001260039337e+01
1.045751641769546714e-01 1.641185954155722015e+01
1.056157130736200545e-01 2.058156634022579112e+01
1.066562619702854375e-01 2.299212896105953519e+01
1.076968108669508206e-01 2.325230267720166211e+01
1.087373597636162037e-01 2.360758031843477767e+01
1.097779086602815868e-01 2.391712603768453249e+01
1.108184575569469699e-01 2.343843009708970015e+01
1.118590064536123529e-01 2.242183008367289432e+01
1.128995553502777360e-01 2.179964716375735634e+01
1.139401042469431191e-01 2.097249345351939098e+01
1.149806531436085022e-01 1.991440802230584950e+01
1.160212020402738853e-01 1.889950387135372978e+01
1.170617509369392684e-01 1.927405481684840538e+01
1.181022998336046514e-01 1.925349417969020038e+01
1.191428487302700345e-01 1.973289535897222891e+01
1.201833976269354176e-01 2.095475889500891498e+01
1.212239465236008007e-01 2.205590579730483114e+01
1.222644954202661838e-01 2.518404300639230797e+01
1.233050443169315669e-01 2.830400473093025226e+01
1.243455932135969499e-01 3.051844464512629429e+01
1.253861421102623330e-01 3.137838531488295502e+01
1.264266910069277161e-01 3.113314959709899199e+01
1.274672399035930992e-01 2.983511373280616397e+01
1.285077888002584823e-01 2.846519163269107366e+01
1.295483376969238654e-01 2.771248006619610038e+01
1.305888865935892484e-01 2.671677289843120917e+01
1.316294354902546315e-01 2.448129995223762023e+01
1.326699843869200146e-01 2.168465107476490061e+01
1.337105332835853977e-01 2.004223583590818336e+01
1.347510821802507808e-01 1.796612486717267387e+01
1.357916310769161639e-01 1.609714665722889748e+01
1.368321799735815469e-01 1.436144402280992693e+01
1.378727288702469300e-01 1.288792269281305636e+01
1.389132777669123131e-01 1.183346844339896720e+01
1.399538266635776962e-01 1.081577225809635934e+01
1.409943755602430793e-01 9.150949644097227775e+00
1.420349244569084624e-01 8.064416965336992149e+00
1.430754733535738454e-01 7.678230163735086933e+00
1.441160222502392285e-01 6.995086392563166555e+00
1.451565711469046116e-01 6.377049963102312091e+00
1.461971200435699947e-01 5.513669350565645999e+00
1.472376689402353778e-01 4.643152354313222929e+00
1.482782178369007609e-01 4.195440940705474020e+00
1.493187667335661439e-01 3.911931017983214076e+00
1.503593156302315270e-01 3.188038022998295418e+00
1.513998645268969101e-01 3.156170940459809060e+00
1.524404134235622932e-01 3.067210834234280981e+00
1.534809623202276763e-01 2.833809058118440305e+00
1.545215112168930593e-01 2.615922235286401332e+00
1.555620601135584424e-01 2.780203960113556860e+00
1.566026090102238255e-01 2.563240590288991427e+00
1.576431579068892086e-01 2.642486230142829129e+00
1.586837068035545917e-01 2.801821485388767741e+00
1.597242557002199748e-01 3.106842427862062550e+00
1.607648045968853578e-01 3.194418538652765704e+00
1.618053534935507409e-01 3.663477394057672143e+00
1.628459023902161240e-01 4.186097003570072417e+00
1.638864512868815071e-01 4.303550101072350031e+00
1.649270001835468902e-01 4.586823974250876290e+00
1.659675490802122733e-01 4.883347712330067480e+00
1.670080979768776563e-01 4.824336250412525118e+00
1.680486468735430672e-01 5.215504025548646894e+00
1.690891957702084503e-01 5.111756759424498142e+00
1.701297446668738333e-01 4.755188939999296593e+00
1.711702935635392164e-01 4.988208351719126910e+00
1.722108424602045995e-01 5.161592683204034415e+00
1.732513913568699826e-01 5.164490947698901380e+00
1.742919402535353657e-01 5.042142098997452138e+00
1.753324891502007488e-01 4.701615244072819166e+00
1.763730380468661318e-01 4.149085125851552647e+00
1.774135869435315149e-01 3.850411795893119660e+00
1.784541358401968980e-01 3.734217740483995129e+00
1.794946847368622811e-01 4.349253845306705557e+00
1.805352336335276642e-01 4.136397463475486092e+00
1.815757825301930473e-01 4.045110384120178537e+00
1.826163314268584303e-01 3.915224825896480354e+00
1.836568803235238134e-01 4.042427149574649548e+00
1.846974292201891965e-01 4.157817489127697996e+00
1.857379781168545796e-01 4.350271792401311899e+00
1.867785270135199627e-01 3.985521659971148267e+00
1.878190759101853458e-01 3.592820132866314964e+00
1.888596248068507288e-01 3.495841398428581215e+00
1.899001737035161119e-01 3.506006686860015265e+00
1.909407226001814950e-01 3.648493896521756596e+00
1.919812714968468781e-01 3.646212266521363432e+00
1.930218203935122612e-01 3.080563106674954810e+00
1.940623692901776443e-01 2.786576692955211598e+00
1.951029181868430273e-01 3.336738658062820662e+00
1.961434670835084104e-01 3.429325133992200847e+00
1.971840159801737935e-01 3.059432412053038064e+00
1.982245648768391766e-01 2.632523010897976690e+00
1.992651137735045597e-01 2.424775919969398785e+00
2.003056626701699428e-01 2.470718553517951221e+00
2.013462115668353813e-01 2.704981833110096545e+00
2.023867604635007644e-01 2.731536862472356830e+00
2.034273093601661475e-01 2.560067120934263585e+00
2.044678582568315306e-01 2.604402318172727604e+00
2.055084071534969137e-01 2.471333540835605191e+00
2.065489560501622968e-01 2.213817123535744003e+00
2.075895049468276798e-01 1.936801015103913670e+00
2.086300538434930629e-01 1.874528507866536131e+00
2.096706027401584460e-01 1.626072747183133771e+00
2.107111516368238291e-01 1.615752028406330254e+00
2.117517005334892122e-01 1.712314889601973533e+00
2.127922494301545953e-01 1.876935504716914949e+00
2.138327983268199783e-01 1.768125408364362272e+00
2.148733472234853614e-01 1.329604434896367593e+00
2.159138961201507445e-01 1.292346130464459009e+00
2.169544450168161276e-01 1.265104158733230122e+00
2.179949939134815107e-01 1.396891238739513597e+00
2.190355428101468938e-01 1.553021615887860918e+00
2.200760917068122768e-01 1.528636345346807701e+00
2.211166406034776599e-01 1.247508837108483704e+00
2.221571895001430430e-01 1.423240810278354473e+00
2.231977383968084261e-01 1.534519131781415524e+00
2.242382872934738092e-01 1.235690213187641717e+00
2.252788361901391923e-01 1.503115179223112108e+00
2.263193850868045753e-01 1.594899979192589967e+00
2.273599339834699584e-01 1.716576144981694085e+00
2.284004828801353415e-01 1.510781994086528357e+00
2.294410317768007246e-01 1.534052433241974711e+00
2.304815806734661077e-01 1.228864146726142081e+00
2.315221295701314908e-01 1.056749313644154142e+00
2.325626784667968738e-01 1.420943600086118863e+00
2.336032273634622569e-01 1.362151274620639896e+00
2.346437762601276400e-01 1.394161304410648228e+00
2.356843251567930231e-01 1.516606515790204668e+00
2.367248740534584062e-01 1.624469992139221830e+00
2.377654229501237892e-01 1.590735487540491988e+00
2.388059718467891723e-01 1.473394967184471938e+00
2.398465207434545554e-01 1.355455320765639016e+00
2.408870696401199385e-01 1.459087755897634509e+00
2.419276185367853216e-01 1.462519162450842458e+00
2.429681674334507047e-01 1.194946732980120885e+00
2.440087163301160877e-01 1.343592089199805883e+00
2.450492652267814708e-01 1.508768512885648505e+00
2.460898141234468539e-01 1.670879793752590103e+00
2.471303630201122370e-01 1.475326115509297153e+00
2.481709119167776201e-01 1.584897111560131577e+00
2.492114608134430032e-01 1.675836939203627196e+00
2.502520097101083585e-01 1.535541623765556807e+00
2.512925586067737416e-01 1.654767411266448107e+00
2.523331075034391247e-01 1.284725467487731976e+00
2.533736564001045077e-01 1.085125278977951524e+00
2.544142052967698908e-01 1.071821791363362308e+00
2.554547541934352739e-01 1.009657549445933000e+00
2.564953030901006570e-01 1.049559415211476221e+00
2.575358519867660401e-01 8.662645671837552186e-01
2.585764008834314231e-01 1.053208235834695472e+00
2.596169497800968062e-01 1.101375753505724475e+00
2.606574986767621893e-01 1.137391843282664183e+00
2.616980475734275724e-01 1.246850336327643305e+00
2.627385964700929555e-01 1.048139321542290503e+00
2.637791453667583386e-01 9.497674064404115768e-01
2.648196942634237216e-01 1.076383221569923165e+00
2.658602431600891047e-01 1.090253267566534845e+00
2.669007920567544878e-01 9.377636781850569037e-01
2.679413409534198709e-01 9.907165103924207017e-01
2.689818898500852540e-01 8.818133189552277429e-01
2.700224387467506371e-01 8.566149565478831107e-01
2.710629876434160201e-01 9.636504258963149994e-01
2.721035365400814032e-01 9.388803231516327230e-01
2.731440854367467863e-01 9.858281074736723326e-01
2.741846343334121694e-01 9.915201446520960360e-01
2.752251832300775525e-01 8.114986784224775818e-01
2.762657321267429356e-01 1.000651491645690783e+00
2.773062810234083186e-01 1.023610889905310017e+00
2.783468299200737017e-01 9.439071422110849596e-01
2.793873788167390848e-01 8.334210417660301573e-01
2.804279277134044679e-01 8.844336048344665357e-01
2.814684766100698510e-01 6.683846151025996107e-01
2.825090255067352341e-01 7.736515458537631673e-01
2.835495744034006171e-01 9.468982011767685947e-01
2.845901233000660002e-01 6.800082209036801828e-01
2.856306721967313833e-01 8.102805154798282672e-01
2.866712210933967664e-01 7.807574946628434986e-01
2.877117699900621495e-01 7.748692053766319532e-01
2.887523188867275326e-01 7.191485611167962588e-01
2.897928677833929156e-01 6.277771858397329652e-01
2.908334166800582987e-01 6.619670440325506888e-01
2.918739655767236818e-01 8.431745993563772856e-01
2.929145144733890649e-01 9.958857184727136769e-01
2.939550633700544480e-01 1.101063989597619752e+00
2.949956122667198311e-01 1.024344352437360328e+00
2.960361611633852141e-01 9.068249877344065624e-01
2.970767100600505972e-01 7.387837659201288432e-01
2.981172589567159803e-01 5.527138753857272491e-01
2.991578078533813634e-01 3.321110753428406781e-01
3.001983567500468020e-01 6.391927070731568961e-01
3.012389056467121851e-01 9.868656932715218488e-01
3.022794545433775681e-01 8.490152545935387707e-01
3.033200034400429512e-01 8.476126058371917793e-01
3.043605523367083343e-01 7.880957277776197145e-01
3.054011012333737174e-01 8.098932518548203063e-01
3.064416501300391005e-01 6.802554348930023309e-01
3.074821990267044836e-01 7.874637738604199910e-01
3.085227479233698666e-01 7.767853038899801277e-01
3.095632968200352497e-01 7.738281121344776636e-01
3.106038457167006328e-01 8.103155442148661791e-01
3.116443946133660159e-01 7.040811522185386195e-01
3.126849435100313990e-01 8.693645525222777337e-01
3.137254924066967821e-01 7.961896866742890211e-01
3.147660413033621651e-01 7.787546873670159187e-01
3.158065902000275482e-01 8.030954966591146160e-01
3.168471390966929313e-01 5.565503410275596252e-01
3.178876879933583144e-01 5.530872757079237090e-01
3.189282368900236975e-01 6.627339123738060778e-01
3.199687857866890806e-01 6.290439432546577336e-01
3.210093346833544636e-01 8.045380550095053707e-01
3.220498835800198467e-01 3.861673425953497940e-01
3.230904324766852298e-01 4.524006002340108523e-01
3.241309813733506129e-01 7.109578220001537829e-01
3.251715302700159960e-01 7.599208078381209930e-01
3.262120791666813790e-01 6.221170001427438478e-01
3.272526280633467621e-01 6.665294994877655199e-01
3.282931769600121452e-01 8.249366942942515379e-01
3.293337258566775283e-01 6.686239597785643696e-01
3.303742747533429114e-01 5.556442007817992135e-01
3.314148236500082945e-01 5.854664544999366171e-01
3.324553725466736775e-01 3.493553723030800029e-01
3.334959214433390606e-01 3.199605981690147871e-01
3.345364703400044437e-01 2.255603152844543047e-01
3.355770192366698268e-01 2.511641310428096574e-01
3.366175681333352099e-01 4.141256587802537581e-01
3.376581170300005930e-01 5.084843596839299096e-01
3.386986659266659760e-01 3.689392395640460620e-01
3.397392148233313591e-01 4.340198621045701088e-01
3.407797637199967422e-01 5.785422768971955065e-01
3.418203126166621253e-01 5.428378980595596204e-01
3.428608615133275084e-01 4.787915606916399724e-01
3.439014104099928915e-01 2.294055478977945484e-01
3.449419593066582745e-01 3.663510097125417531e-01
3.459825082033236576e-01 5.244207144398806975e-01
3.470230570999890407e-01 4.337031996718749838e-01
3.480636059966544238e-01 5.790323906919034869e-01
3.491041548933198069e-01 7.430733292467266438e-01
3.501447037899851900e-01 5.298108450397585045e-01
3.511852526866505730e-01 5.143049900016443132e-01
3.522258015833159561e-01 5.380551495213481417e-01
3.532663504799813392e-01 4.900800876735047495e-01
3.543068993766467223e-01 4.175406575361151340e-01
3.553474482733121054e-01 3.535905257878084740e-01
3.563879971699774885e-01 2.449693138140176529e-01
3.574285460666428715e-01 3.480092314621465732e-01
3.584690949633082546e-01 5.447841814938172433e-01
3.595096438599736377e-01 7.025152492464954435e-01
3.605501927566390208e-01 5.775772451561884679e-01
3.615907416533044039e-01 4.179824978342345787e-01
3.626312905499697870e-01 5.466453583233565894e-01
3.636718394466351700e-01 5.210832071084539052e-01
3.647123883433005531e-01 5.261315022862405044e-01
3.657529372399659362e-01 4.998153730228374059e-01
3.667934861366313193e-01 3.139610885246959526e-01
3.678340350332967024e-01 3.008618837121552758e-01
3.688745839299620854e-01 4.837765287184723206e-01
3.699151328266274685e-01 3.512928416455700642e-01
3.709556817232928516e-01 1.025797053008083992e-01
3.719962306199582347e-01 4.477612777316899439e-01
3.730367795166236178e-01 5.712244728814148687e-01
3.740773284132890009e-01 3.279742015944755451e-01
3.751178773099543839e-01 4.443052514916203677e-01
3.761584262066197670e-01 4.754190265472715282e-01
3.771989751032851501e-01 4.123449730719244144e-01
3.782395239999505332e-01 3.918914179381332019e-01
3.792800728966159163e-01 3.569076133045534505e-01
3.803206217932812994e-01 3.274335526932965479e-01
3.813611706899466824e-01 2.245095878179128590e-01
3.824017195866120655e-01 3.374089838417049236e-01
3.834422684832774486e-01 2.798852626150072354e-01
3.844828173799428317e-01 1.428858182592058768e-01
3.855233662766082148e-01 2.372999764578409554e-01
3.865639151732735979e-01 3.734344556031636841e-01
3.876044640699389809e-01 2.758905295536244751e-01
3.886450129666043640e-01 4.435861539075816040e-01
3.896855618632697471e-01 5.429534381572587165e-01
3.907261107599351302e-01 6.060274325059573641e-01
3.917666596566005133e-01 6.000196051131929664e-01
3.928072085532658964e-01 5.221042374201161351e-01
3.938477574499312794e-01 5.725665752274977649e-01
3.948883063465966625e-01 6.420939231423616889e-01
3.959288552432620456e-01 5.386708366464496578e-01
3.969694041399274287e-01 4.064924469914394933e-01
3.980099530365928118e-01 4.457909223045461999e-01
3.990505019332581949e-01 2.663156577206891029e-01
4.000910508299235779e-01 2.365303638012363763e-01
4.011315997265889610e-01 4.186850556569119419e-01
4.021721486232543441e-01 5.317288483925501907e-01
4.032126975199197272e-01 3.018079606485351007e-01
4.042532464165851103e-01 2.662389540943763677e-01
4.052937953132504934e-01 3.060665868175078685e-01
4.063343442099158764e-01 1.988640237100689490e-01
4.073748931065812595e-01 3.124610451766507424e-01
4.084154420032466426e-01 3.946426436040617602e-01
4.094559908999120257e-01 3.332461566018274368e-01
4.104965397965774088e-01 4.066767850567458709e-01
4.115370886932427918e-01 3.795739206355186468e-01
4.125776375899081749e-01 4.098406371602614229e-01
4.136181864865735580e-01 3.471090380122383579e-01
4.146587353832389411e-01 3.951233376432021771e-01
4.156992842799043242e-01 3.515126305261624395e-01
4.167398331765697073e-01 3.857971124209420566e-01
4.177803820732350903e-01 3.560818669423433391e-01
4.188209309699004734e-01 2.871311488367709330e-01
4.198614798665658565e-01 2.589016545324653862e-01
4.209020287632312396e-01 3.566638900307559368e-01
4.219425776598966227e-01 2.777893554068278092e-01
4.229831265565620058e-01 2.895818398589540266e-01
4.240236754532273888e-01 3.190560808677496141e-01
4.250642243498927719e-01 2.981596617657515935e-01
4.261047732465581550e-01 1.419315603794224501e-01
4.271453221432235381e-01 0.000000000000000000e+00
4.281858710398889212e-01 2.956157714856715302e-01
4.292264199365543043e-01 1.768615867986973456e-01
4.302669688332196873e-01 1.396911918264187591e-01
4.313075177298850704e-01 1.220518812952668952e-01
4.323480666265504535e-01 2.519221175870569596e-01
4.333886155232158366e-01 4.018666778204540435e-01
4.344291644198812197e-01 5.732885964626959208e-01
