# q (1/Angstrom), Intensity (arb)
2.029070354705860696e-02 1.691778086548666806e+02
2.133125244372399004e-02 1.438936829244124169e+02
2.237180134038937659e-02 1.256067191231875881e+02
2.341235023705475968e-02 1.133212595779606602e+02
2.445289913372014276e-02 1.039886952258696056e+02
2.549344803038552584e-02 9.242896402975517844e+01
2.653399692705091240e-02 8.486179685565521424e+01
2.757454582371629548e-02 8.020487383994999675e+01
2.861509472038167856e-02 7.352761804162180681e+01
2.965564361704706164e-02 6.957963231222755951e+01
3.069619251371244473e-02 6.642651210981782128e+01
3.173674141037782781e-02 6.306881679441409005e+01
3.277729030704321089e-02 6.102457807963401848e+01
3.381783920370859398e-02 5.827998045084368783e+01
3.485838810037397706e-02 5.579329890597401231e+01
3.589893699703936014e-02 5.554218423983980557e+01
3.693948589370474322e-02 5.393735658301189773e+01
3.798003479037012631e-02 5.296815292430355271e+01
3.902058368703550939e-02 5.206616696214655349e+01
4.006113258370089247e-02 5.137474561733836254e+01
4.110168148036627556e-02 5.119269233498691563e+01
4.214223037703165864e-02 5.287834538755235059e+01
4.318277927369704866e-02 5.360425793450212950e+01
4.422332817036243174e-02 5.314619573035147937e+01
4.526387706702781483e-02 5.454800878993680868e+01
4.630442596369319791e-02 5.508179974294057502e+01
4.734497486035858099e-02 5.571477252019963089e+01
4.838552375702396408e-02 5.860828061081289775e+01
4.942607265368934716e-02 6.272377878217363190e+01
5.046662155035473024e-02 6.679778086536073545e+01
5.150717044702011332e-02 7.006440030217530079e+01
5.254771934368549641e-02 7.668236274738197267e+01
5.358826824035087949e-02 8.598462086200484578e+01
5.462881713701626257e-02 9.777579986383425137e+01
5.566936603368164566e-02 1.138257066593119191e+02
5.670991493034702874e-02 1.387110071498052832e+02
5.775046382701241182e-02 1.770808098928925460e+02
5.879101272367779490e-02 2.411908299028570468e+02
5.983156162034317799e-02 3.326146612923064936e+02
6.087211051700856107e-02 4.547957159956628175e+02
6.191265941367394415e-02 6.094421531234709164e+02
6.295320831033933417e-02 7.448779796738724599e+02
6.399375720700471726e-02 7.949717675467827576e+02
6.503430610367010034e-02 7.650604841135475453e+02
6.607485500033548342e-02 6.974754387054233575e+02
6.711540389700086651e-02 6.119522656637201408e+02
6.815595279366624959e-02 5.230620187260233251e+02
6.919650169033163267e-02 4.374914011715335391e+02
7.023705058699701576e-02 3.643072995975057893e+02
7.127759948366239884e-02 3.021527914895138451e+02
7.231814838032778192e-02 2.495314150943765981e+02
7.335869727699316500e-02 2.039399371360519524e+02
7.439924617365854809e-02 1.651214987502279712e+02
7.543979507032393117e-02 1.321471678503469320e+02
7.648034396698931425e-02 1.058853275889685506e+02
7.752089286365469734e-02 8.365007238494214903e+01
7.856144176032008042e-02 6.556906990323955142e+01
7.960199065698546350e-02 5.132696011488508958e+01
8.064253955365084658e-02 3.930172407352110753e+01
8.168308845031622967e-02 3.135791938036573612e+01
8.272363734698161275e-02 2.520767075045055350e+01
8.376418624364699583e-02 2.031458111378758247e+01
8.480473514031239279e-02 1.664495445528130091e+01
8.584528403697777588e-02 1.306907781260734680e+01
8.688583293364315896e-02 1.190768655455452318e+01
8.792638183030854204e-02 1.088664829048268246e+01
8.896693072697392513e-02 9.442975788397582448e+00
9.000747962363930821e-02 8.550497039867558158e+00
9.104802852030469129e-02 8.303089099914402027e+00
9.208857741697007437e-02 7.886781993110325573e+00
9.312912631363545746e-02 7.789435111082617880e+00
9.416967521030084054e-02 8.797700322103722215e+00
9.521022410696622362e-02 8.496734798984689974e+00
9.625077300363160671e-02 9.226523777568544915e+00
9.729132190029698979e-02 1.061523176220688924e+01
9.833187079696237287e-02 1.193564052967540334e+01
9.937241969362775595e-02 1.416854017022459544e+01
1.004129685902931390e-01 1.786180228626869848e+01
1.014535174869585221e-01 2.291684878730512054e+01
1.024940663836239052e-01 2.808553474507066028e+01
1.035346152802892883e-01 3.065112040588685005e+01
1.045751641769546714e-01 3.158246331605597845e+01
1.056157130736200545e-01 3.243850931111172287e+01
1.066562619702854375e-01 3.167079157396761957e+01
1.076968108669508206e-01 3.061075183390853738e+01
1.087373597636162037e-01 2.958933757165270606e+01
1.097779086602815868e-01 2.859112948306405144e+01
1.108184575569469699e-01 2.727707693422730983e+01
1.118590064536123529e-01 2.613964793127407660e+01
1.128995553502777360e-01 2.544351720982928100e+01
1.139401042469431191e-01 2.510962094961533353e+01
1.149806531436085022e-01 2.472234971439279860e+01
1.160212020402738853e-01 2.570114960186469943e+01
1.170617509369392684e-01 2.806247379916456453e+01
1.181022998336046514e-01 3.121793906593760681e+01
1.191428487302700345e-01 3.503353321334523685e+01
1.201833976269354176e-01 3.786959113736731553e+01
1.212239465236008007e-01 3.911838187598826977e+01
1.222644954202661838e-01 3.757987911339790088e+01
1.233050443169315669e-01 3.670243409509619426e+01
1.243455932135969499e-01 3.630007920974539104e+01
1.253861421102623330e-01 3.456967740207225148e+01
1.264266910069277161e-01 3.135849472578932762e+01
1.274672399035930992e-01 2.869803881936864798e+01
1.285077888002584823e-01 2.619682785160085814e+01
1.295483376969238654e-01 2.351914565285388647e+01
1.305888865935892484e-01 2.098135440537355834e+01
1.316294354902546315e-01 1.894221368594120491e+01
1.326699843869200146e-01 1.676613798787379750e+01
1.337105332835853977e-01 1.422049569220097709e+01
1.347510821802507808e-01 1.280424701409572208e+01
1.357916310769161639e-01 1.119200258405362547e+01
1.368321799735815469e-01 9.558196035004229429e+00
1.378727288702469300e-01 8.599276368357593014e+00
1.389132777669123131e-01 7.514945807880295092e+00
1.399538266635776962e-01 6.233450057273500988e+00
1.409943755602430793e-01 5.613247452770970369e+00
1.420349244569084624e-01 4.811500217308079641e+00
1.430754733535738454e-01 4.328492761719424209e+00
1.441160222502392285e-01 3.889886304442399023e+00
1.451565711469046116e-01 3.684115766933551583e+00
1.461971200435699947e-01 3.350579065452166105e+00
1.472376689402353778e-01 3.191405451411984728e+00
1.482782178369007609e-01 3.009247243953197426e+00
1.493187667335661439e-01 2.901607579153711924e+00
1.503593156302315270e-01 2.774912656344152850e+00
1.513998645268969101e-01 2.898770495228959021e+00
1.524404134235622932e-01 2.852553363592555513e+00
1.534809623202276763e-01 2.987992881351289043e+00
1.545215112168930593e-01 2.882397084080047023e+00
1.555620601135584424e-01 3.260971773287788977e+00
1.566026090102238255e-01 3.923013623618917478e+00
1.576431579068892086e-01 4.411907767848187945e+00
1.586837068035545917e-01 4.365710732993331789e+00
1.597242557002199748e-01 4.969812969548218717e+00
1.607648045968853578e-01 5.873264849378461605e+00
1.618053534935507409e-01 6.296239340244060401e+00
1.628459023902161240e-01 6.206004174385228112e+00
1.638864512868815071e-01 6.400213334430066681e+00
1.649270001835468902e-01 6.212498413312612655e+00
1.659675490802122733e-01 5.748910510580930833e+00
1.670080979768776563e-01 5.449249056564685390e+00
1.680486468735430672e-01 5.308481029278500074e+00
1.690891957702084503e-01 5.098805708029853889e+00
1.701297446668738333e-01 5.305250694997059924e+00
1.711702935635392164e-01 5.503323866330305236e+00
1.722108424602045995e-01 5.404702053324282218e+00
1.732513913568699826e-01 5.065738869785928244e+00
1.742919402535353657e-01 4.902429972899000177e+00
1.753324891502007488e-01 4.733484358157522109e+00
1.763730380468661318e-01 4.737126150401635982e+00
1.774135869435315149e-01 4.988623867029374992e+00
1.784541358401968980e-01 4.993047198404816811e+00
1.794946847368622811e-01 4.617090564305840417e+00
1.805352336335276642e-01 4.350376041792998194e+00
1.815757825301930473e-01 4.177785311606143637e+00
1.826163314268584303e-01 4.192039708752034244e+00
1.836568803235238134e-01 3.876286203522461449e+00
1.846974292201891965e-01 3.586566525305833864e+00
1.857379781168545796e-01 3.665798314209627762e+00
1.867785270135199627e-01 3.743130093076551645e+00
1.878190759101853458e-01 3.729961141254040768e+00
1.888596248068507288e-01 4.040871102485013466e+00
1.899001737035161119e-01 3.719729202928991896e+00
1.909407226001814950e-01 3.314768695970347068e+00
1.919812714968468781e-01 2.816676908567174564e+00
1.930218203935122612e-01 2.746163362520096740e+00
1.940623692901776443e-01 2.878834677434600309e+00
1.951029181868430273e-01 2.809353794339237709e+00
1.961434670835084104e-01 2.598099578848948710e+00
1.971840159801737935e-01 2.374736549140248343e+00
1.982245648768391766e-01 2.102223541384361738e+00
1.992651137735045597e-01 2.241800991462213233e+00
2.003056626701699428e-01 2.294251743279183131e+00
2.013462115668353813e-01 1.915910194030967517e+00
2.023867604635007644e-01 1.792856516379956133e+00
2.034273093601661475e-01 1.971783899717994615e+00
2.044678582568315306e-01 1.609615916755153364e+00
2.055084071534969137e-01 1.380075879297855579e+00
2.065489560501622968e-01 1.398414933827105244e+00
2.075895049468276798e-01 1.591480901029779460e+00
2.086300538434930629e-01 1.186069975849797231e+00
2.096706027401584460e-01 8.941800371941397430e-01
2.107111516368238291e-01 1.354756574115466350e+00
2.117517005334892122e-01 1.640282701459113923e+00
2.127922494301545953e-01 2.062152129663282096e+00
2.138327983268199783e-01 1.588621797823716264e+00
2.148733472234853614e-01 1.475857495179120349e+00
2.159138961201507445e-01 1.381602330142353452e+00
2.169544450168161276e-01 1.226989138438558058e+00
2.179949939134815107e-01 1.763040245074599000e+00
2.190355428101468938e-01 1.678909030166558125e+00
2.200760917068122768e-01 1.599356434969266161e+00
2.211166406034776599e-01 1.471863748516479831e+00
2.221571895001430430e-01 1.810825100401078913e+00
2.231977383968084261e-01 1.481758109663573464e+00
2.242382872934738092e-01 1.371685023051238517e+00
2.252788361901391923e-01 1.680101438721287366e+00
2.263193850868045753e-01 1.707139434338088790e+00
2.273599339834699584e-01 1.713401346380042156e+00
2.284004828801353415e-01 1.647730624213551209e+00
2.294410317768007246e-01 1.553784308915883372e+00
2.304815806734661077e-01 1.744992145756068425e+00
2.315221295701314908e-01 1.680971926165206298e+00
2.325626784667968738e-01 1.506919677664104285e+00
2.336032273634622569e-01 1.391410358202957553e+00
2.346437762601276400e-01 1.685469154226435506e+00
2.356843251567930231e-01 1.846654040096861848e+00
2.367248740534584062e-01 1.405032706414353072e+00
2.377654229501237892e-01 1.118770515522932385e+00
2.388059718467891723e-01 1.397296275247043695e+00
2.398465207434545554e-01 1.145441841767954827e+00
2.408870696401199385e-01 1.372102382122484698e+00
2.419276185367853216e-01 1.528635576097446602e+00
2.429681674334507047e-01 1.356223785188614528e+00
2.440087163301160877e-01 1.013884958275220072e+00
2.450492652267814708e-01 1.064594116545766411e+00
2.460898141234468539e-01 1.324712722170094281e+00
2.471303630201122370e-01 1.349207400079116326e+00
2.481709119167776201e-01 1.501733963116443249e+00
2.492114608134430032e-01 1.535804898104856875e+00
2.502520097101083585e-01 1.264150664060000651e+00
2.512925586067737416e-01 1.302675148795501059e+00
2.523331075034391247e-01 1.230527869631224291e+00
2.533736564001045077e-01 8.697409355506984241e-01
2.544142052967698908e-01 8.871524285120671038e-01
2.554547541934352739e-01 9.841653562757777252e-01
2.564953030901006570e-01 1.002890324302008196e+00
2.575358519867660401e-01 1.188538663119015126e+00
2.585764008834314231e-01 1.295523043691289899e+00
2.596169497800968062e-01 1.114399651536025715e+00
2.606574986767621893e-01 1.141450650927346544e+00
2.616980475734275724e-01 7.442994378762435304e-01
2.627385964700929555e-01 8.541204859227633506e-01
2.637791453667583386e-01 1.235769315089079612e+00
2.648196942634237216e-01 1.199618414938854016e+00
2.658602431600891047e-01 1.102129187356087670e+00
2.669007920567544878e-01 9.057193831232339676e-01
2.679413409534198709e-01 8.522046874684718887e-01
2.689818898500852540e-01 6.927862744561963382e-01
2.700224387467506371e-01 5.327381524829206683e-01
2.710629876434160201e-01 5.540507574448199080e-01
2.721035365400814032e-01 7.119161164469680614e-01
2.731440854367467863e-01 7.403625718765454167e-01
2.741846343334121694e-01 8.181628717661624250e-01
2.752251832300775525e-01 9.288466306549487683e-01
2.762657321267429356e-01 7.015557461962664831e-01
2.773062810234083186e-01 6.815429992918353719e-01
2.783468299200737017e-01 5.204709892758074830e-01
2.793873788167390848e-01 5.462088006289818054e-01
2.804279277134044679e-01 6.996964907876872530e-01
2.814684766100698510e-01 6.021518834331018866e-01
2.825090255067352341e-01 3.891373793844401519e-01
2.835495744034006171e-01 4.002406183706703757e-01
2.845901233000660002e-01 5.588570740033347306e-01
2.856306721967313833e-01 8.950989516576655092e-01
2.866712210933967664e-01 7.406821823355294043e-01
2.877117699900621495e-01 8.494360985504343375e-01
2.887523188867275326e-01 1.016966356605095712e+00
2.897928677833929156e-01 1.024651882518696766e+00
2.908334166800582987e-01 1.038488737925831629e+00
2.918739655767236818e-01 1.031137085303910794e+00
2.929145144733890649e-01 6.682052879474795759e-01
2.939550633700544480e-01 5.044064582029186283e-01
2.949956122667198311e-01 7.507827928680121943e-01
2.960361611633852141e-01 6.297303920976204950e-01
2.970767100600505972e-01 6.790899532863434729e-01
2.981172589567159803e-01 6.706598504883807266e-01
2.991578078533813634e-01 7.107989780932264523e-01
3.001983567500468020e-01 7.142040784193213199e-01
3.012389056467121851e-01 7.315648581937885808e-01
3.022794545433775681e-01 7.365775192632071366e-01
3.033200034400429512e-01 6.167580220277457670e-01
3.043605523367083343e-01 4.820443324153593778e-01
3.054011012333737174e-01 5.410990569827411889e-01
3.064416501300391005e-01 5.524337380322954516e-01
3.074821990267044836e-01 5.866978164989120614e-01
3.085227479233698666e-01 4.578011993589967688e-01
3.095632968200352497e-01 5.529368889213586158e-01
3.106038457167006328e-01 5.092194417689519526e-01
3.116443946133660159e-01 3.529343826626991643e-01
3.126849435100313990e-01 4.839112854173208689e-01
3.137254924066967821e-01 5.049535242082079378e-01
3.147660413033621651e-01 4.729403107802312434e-01
3.158065902000275482e-01 4.613821078843365342e-01
3.168471390966929313e-01 5.741851089462031155e-01
3.178876879933583144e-01 6.692639626908309936e-01
3.189282368900236975e-01 5.308743948304837090e-01
3.199687857866890806e-01 4.635618557762022363e-01
3.210093346833544636e-01 6.082127307913154368e-01
3.220498835800198467e-01 5.177681736748098729e-01
3.230904324766852298e-01 5.701610644053971555e-01
3.241309813733506129e-01 6.177746912791874934e-01
3.251715302700159960e-01 5.078002624766568829e-01
3.262120791666813790e-01 5.466168289572053141e-01
3.272526280633467621e-01 7.022071726280429971e-01
3.282931769600121452e-01 3.907344144129432095e-01
3.293337258566775283e-01 1.834691944695201471e-01
3.303742747533429114e-01 4.754819341040459335e-01
3.314148236500082945e-01 4.362872495159564323e-01
3.324553725466736775e-01 5.238574125590673702e-01
3.334959214433390606e-01 3.283443951250824000e-01
3.345364703400044437e-01 2.719570325960312118e-01
3.355770192366698268e-01 2.852232053520147304e-01
3.366175681333352099e-01 5.090223935320778992e-01
3.376581170300005930e-01 4.750891672462280724e-01
3.386986659266659760e-01 3.911432408427977236e-01
3.397392148233313591e-01 3.967398537551538595e-01
3.407797637199967422e-01 4.533537219399974560e-01
3.418203126166621253e-01 5.120459361217513106e-01
3.428608615133275084e-01 2.374054351018131115e-01
3.439014104099928915e-01 1.236336083590678925e-01
3.449419593066582745e-01 4.104387341942299372e-01
3.459825082033236576e-01 5.134730622662395660e-01
3.470230570999890407e-01 3.408311037181519509e-01
3.480636059966544238e-01 3.796271953933008092e-01
3.491041548933198069e-01 3.747873683581204318e-01
3.501447037899851900e-01 5.633256549262100066e-01
3.511852526866505730e-01 5.075698611592329712e-01
3.522258015833159561e-01 3.967831265713783750e-01
3.532663504799813392e-01 3.792821194226370096e-01
3.543068993766467223e-01 2.767544871541147700e-01
3.553474482733121054e-01 3.478841151155016576e-01
3.563879971699774885e-01 3.176564543232878179e-01
3.574285460666428715e-01 1.618868202692880232e-01
3.584690949633082546e-01 2.225245955530041897e-01
3.595096438599736377e-01 1.668382790384903558e-01
3.605501927566390208e-01 2.100106143846964812e-01
3.615907416533044039e-01 1.003862365605812101e-01
3.626312905499697870e-01 1.709177001027839538e-01
3.636718394466351700e-01 3.241222702227268826e-01
3.647123883433005531e-01 2.704183049908159830e-01
3.657529372399659362e-01 3.300699940911826502e-01
3.667934861366313193e-01 3.783957454803257292e-01
3.678340350332967024e-01 4.309197921229426242e-01
3.688745839299620854e-01 5.053783886245071244e-01
3.699151328266274685e-01 1.788787624798899856e-01
3.709556817232928516e-01 2.112887328730614911e-01
3.719962306199582347e-01 6.331751029982655155e-01
3.730367795166236178e-01 5.262436059772603869e-01
3.740773284132890009e-01 4.382899943242755114e-01
3.751178773099543839e-01 2.807131402892366623e-01
3.761584262066197670e-01 4.468049451925537596e-01
3.771989751032851501e-01 3.943709094312097818e-01
3.782395239999505332e-01 5.516713771998773552e-01
3.792800728966159163e-01 5.810476076786308397e-01
3.803206217932812994e-01 4.449511982476366256e-01
3.813611706899466824e-01 1.771347517833916640e-01
3.824017195866120655e-01 1.556337555047271337e-01
3.834422684832774486e-01 3.439020060772648435e-01
3.844828173799428317e-01 2.457555345282678161e-01
3.855233662766082148e-01 1.563206195554833755e-01
3.865639151732735979e-01 1.195479108343207031e-01
3.876044640699389809e-01 2.870445406117383413e-02
3.886450129666043640e-01 6.605911431402944345e-02
3.896855618632697471e-01 3.300550542733091675e-01
3.907261107599351302e-01 3.949647750273186375e-01
3.917666596566005133e-01 2.357015651686893420e-01
3.928072085532658964e-01 3.616735683984302341e-01
3.938477574499312794e-01 3.327968488866837049e-01
3.948883063465966625e-01 4.072216843923470719e-01
3.959288552432620456e-01 3.822196415486196486e-01
3.969694041399274287e-01 2.732049249332284546e-01
3.980099530365928118e-01 2.151858110158180182e-01
3.990505019332581949e-01 1.620434050676315962e-01
4.000910508299235779e-01 2.650484285697451980e-01
4.011315997265889610e-01 2.016166485017194532e-01
4.021721486232543441e-01 1.498199029626015033e-01
4.032126975199197272e-01 2.155275659083493167e-01
4.042532464165851103e-01 3.233130633438854318e-01
4.052937953132504934e-01 4.238717611394733353e-01
4.063343442099158764e-01 4.974057684238175625e-01
4.073748931065812595e-01 4.512063288213639112e-01
4.084154420032466426e-01 2.050850633024552394e-01
4.094559908999120257e-01 4.519088572306877438e-01
4.104965397965774088e-01 4.052969037381402018e-01
4.115370886932427918e-01 2.224597748634948857e-01
4.125776375899081749e-01 8.347856919266050113e-02
4.136181864865735580e-01 2.592792153663765475e-01
4.146587353832389411e-01 4.905885016543507504e-01
4.156992842799043242e-01 5.248919639631210998e-01
4.167398331765697073e-01 3.736224685566185144e-01
4.177803820732350903e-01 3.851856958142185761e-01
4.188209309699004734e-01 2.027223723637199271e-01
4.198614798665658565e-01 8.281842554360707709e-02
4.209020287632312396e-01 2.308436356323895211e-02
4.219425776598966227e-01 1.247069641948677088e-01
4.229831265565620058e-01 2.181120433156706895e-01
4.240236754532273888e-01 7.679214881758511524e-02
4.250642243498927719e-01 2.148291779743551899e-01
4.261047732465581550e-01 1.595230303498347268e-01
4.271453221432235381e-01 1.268472796115887036e-01
4.281858710398889212e-01 1.913712271163063861e-01
4.292264199365543043e-01 2.059882430464909930e-01
4.302669688332196873e-01 2.582554903233003074e-01
4.313075177298850704e-01 3.006538849875930453e-01
4.323480666265504535e-01 2.816730627705084089e-01
4.333886155232158366e-01 4.152104272535162011e-01
4.344291644198812197e-01 2.758872151570734843e-01
