# q (1/Angstrom), Intensity (arb)
2.029070354705860696e-02 2.527999006687128940e+02
2.133125244372399004e-02 2.182210044778601059e+02
2.237180134038937659e-02 1.869432365120458712e+02
2.341235023705475968e-02 1.687156832522616128e+02
2.445289913372014276e-02 1.565401142056558967e+02
2.549344803038552584e-02 1.445838621179352117e+02
2.653399692705091240e-02 1.315656754814820601e+02
2.757454582371629548e-02 1.206937979692283562e+02
2.861509472038167856e-02 1.118946253259308605e+02
2.965564361704706164e-02 1.058125401226840268e+02
3.069619251371244473e-02 1.002760943926024169e+02
3.173674141037782781e-02 9.627181730833500239e+01
3.277729030704321089e-02 9.249402008389191110e+01
3.381783920370859398e-02 9.215183424482204089e+01
3.485838810037397706e-02 8.982322452121195511e+01
3.589893699703936014e-02 8.884037788792313961e+01
3.693948589370474322e-02 8.887637085925405245e+01
3.798003479037012631e-02 8.730793383208728642e+01
3.902058368703550939e-02 8.700527368158245167e+01
4.006113258370089247e-02 8.722771507951992476e+01
4.110168148036627556e-02 8.948272439763506725e+01
4.214223037703165864e-02 9.160230202303316105e+01
4.318277927369704866e-02 9.367749608060948674e+01
4.422332817036243174e-02 9.719061903673556913e+01
4.526387706702781483e-02 1.032943596457238016e+02
4.630442596369319791e-02 1.095355033834153602e+02
4.734497486035858099e-02 1.179156674807766336e+02
4.838552375702396408e-02 1.281980533857408773e+02
4.942607265368934716e-02 1.437230419444462086e+02
5.046662155035473024e-02 1.644260968366808697e+02
5.150717044702011332e-02 1.938867232765393851e+02
5.254771934368549641e-02 2.446506376702682815e+02
5.358826824035087949e-02 3.286961541896519066e+02
5.462881713701626257e-02 4.632883439555829455e+02
5.566936603368164566e-02 6.519444507020746187e+02
5.670991493034702874e-02 8.951379383677053738e+02
5.775046382701241182e-02 1.125458393391581239e+03
5.879101272367779490e-02 1.226348084458807989e+03
5.983156162034317799e-02 1.175509181937642552e+03
6.087211051700856107e-02 1.036214877379300106e+03
6.191265941367394415e-02 8.697515401895288960e+02
6.295320831033933417e-02 7.074789111200997240e+02
6.399375720700471726e-02 5.673943113250825263e+02
6.503430610367010034e-02 4.539281308617770492e+02
6.607485500033548342e-02 3.622968841730084932e+02
6.711540389700086651e-02 2.891519645345492791e+02
6.815595279366624959e-02 2.270529910387324151e+02
6.919650169033163267e-02 1.771343584712025176e+02
7.023705058699701576e-02 1.358227732385444710e+02
7.127759948366239884e-02 1.019246522435187501e+02
7.231814838032778192e-02 7.697364880178180613e+01
7.335869727699316500e-02 5.748094347049912756e+01
7.439924617365854809e-02 4.364688168054530593e+01
7.543979507032393117e-02 3.362040931149937251e+01
7.648034396698931425e-02 2.645882691971373646e+01
7.752089286365469734e-02 2.212244584001491177e+01
7.856144176032008042e-02 1.880077592308758483e+01
7.960199065698546350e-02 1.624153803629583592e+01
8.064253955365084658e-02 1.432413901567555570e+01
8.168308845031622967e-02 1.304090656449823626e+01
8.272363734698161275e-02 1.252437654282417157e+01
8.376418624364699583e-02 1.305309431084600646e+01
8.480473514031239279e-02 1.248112626104003198e+01
8.584528403697777588e-02 1.291300429424211416e+01
8.688583293364315896e-02 1.378200403236080973e+01
8.792638183030854204e-02 1.514471969309843047e+01
8.896693072697392513e-02 1.673350027972219323e+01
9.000747962363930821e-02 1.982680522513878429e+01
9.104802852030469129e-02 2.410989211982762015e+01
9.208857741697007437e-02 3.067699722841545906e+01
9.312912631363545746e-02 4.045555473909380595e+01
9.416967521030084054e-02 5.104972734530314682e+01
9.521022410696622362e-02 5.817374937610375696e+01
9.625077300363160671e-02 5.969715338785035641e+01
9.729132190029698979e-02 5.893733185363801397e+01
9.833187079696237287e-02 5.830122820715364185e+01
9.937241969362775595e-02 5.595313807106768422e+01
1.004129685902931390e-01 5.302249949804328111e+01
1.014535174869585221e-01 4.993097983807763995e+01
1.024940663836239052e-01 4.735284974820750392e+01
1.035346152802892883e-01 4.423577899593213658e+01
1.045751641769546714e-01 4.303332322745016825e+01
1.056157130736200545e-01 4.236103878733337069e+01
1.066562619702854375e-01 4.341900922021672216e+01
1.076968108669508206e-01 4.635872862206053213e+01
1.087373597636162037e-01 5.120615455986869335e+01
1.097779086602815868e-01 5.607899723020208427e+01
1.108184575569469699e-01 5.959621762964517444e+01
1.118590064536123529e-01 6.072598837676235206e+01
1.128995553502777360e-01 5.890801230553618240e+01
1.139401042469431191e-01 5.653577582361306497e+01
1.149806531436085022e-01 5.368718010543217645e+01
1.160212020402738853e-01 4.964845561483409853e+01
1.170617509369392684e-01 4.385771405564747738e+01
1.181022998336046514e-01 3.855471328838380174e+01
1.191428487302700345e-01 3.422608693402701618e+01
1.201833976269354176e-01 3.017091911941987803e+01
1.212239465236008007e-01 2.581564457896993758e+01
1.222644954202661838e-01 2.137340051774414462e+01
1.233050443169315669e-01 1.809125488702477469e+01
1.243455932135969499e-01 1.501745304537691794e+01
1.253861421102623330e-01 1.236129544766802013e+01
1.264266910069277161e-01 1.041173175333536705e+01
1.274672399035930992e-01 9.060596137414172802e+00
1.285077888002584823e-01 7.155079290178058216e+00
1.295483376969238654e-01 6.469377697384850023e+00
1.305888865935892484e-01 5.921640614321383111e+00
1.316294354902546315e-01 5.384073322707536136e+00
1.326699843869200146e-01 4.902759859353295724e+00
1.337105332835853977e-01 4.257301868835838832e+00
1.347510821802507808e-01 3.739870323842765742e+00
1.357916310769161639e-01 3.347384608344178503e+00
1.368321799735815469e-01 3.340374797479910285e+00
1.378727288702469300e-01 3.434734397892555080e+00
1.389132777669123131e-01 3.733552747556707629e+00
1.399538266635776962e-01 4.142779378205673879e+00
1.409943755602430793e-01 4.421399360214316232e+00
1.420349244569084624e-01 4.936685298645997477e+00
1.430754733535738454e-01 5.554090063051376092e+00
1.441160222502392285e-01 6.689819563240106959e+00
1.451565711469046116e-01 8.158804749981307225e+00
1.461971200435699947e-01 9.432034766412556337e+00
1.472376689402353778e-01 1.030789835846496061e+01
1.482782178369007609e-01 1.154821189007972748e+01
1.493187667335661439e-01 1.199170754987035536e+01
1.503593156302315270e-01 1.206510859752197007e+01
1.513998645268969101e-01 1.127749837832261903e+01
1.524404134235622932e-01 1.055523365731022523e+01
1.534809623202276763e-01 1.043007688386721554e+01
1.545215112168930593e-01 1.011127381974819173e+01
1.555620601135584424e-01 9.839388489852645137e+00
1.566026090102238255e-01 8.970164023303695444e+00
1.576431579068892086e-01 8.621789890218131802e+00
1.586837068035545917e-01 8.417982720254165940e+00
1.597242557002199748e-01 8.043469990369032985e+00
1.607648045968853578e-01 8.058700352648422438e+00
1.618053534935507409e-01 7.969743271582800048e+00
1.628459023902161240e-01 7.705060692520923737e+00
1.638864512868815071e-01 7.543957851345645338e+00
1.649270001835468902e-01 7.189224919512078316e+00
1.659675490802122733e-01 6.909604384226938123e+00
1.670080979768776563e-01 6.553473262073026717e+00
1.680486468735430672e-01 6.536320282535115211e+00
1.690891957702084503e-01 6.338676775967982735e+00
1.701297446668738333e-01 6.030897230788006880e+00
1.711702935635392164e-01 5.534831463833192799e+00
1.722108424602045995e-01 5.616406595158885295e+00
1.732513913568699826e-01 5.638035709519428451e+00
1.742919402535353657e-01 5.142303917670105307e+00
1.753324891502007488e-01 4.312312770864764389e+00
1.763730380468661318e-01 3.946016005857003961e+00
1.774135869435315149e-01 3.826106264561673242e+00
1.784541358401968980e-01 3.597771031340585068e+00
1.794946847368622811e-01 3.331562714304624251e+00
1.805352336335276642e-01 3.095893819006448666e+00
1.815757825301930473e-01 3.058051119397845241e+00
1.826163314268584303e-01 2.471714997727623597e+00
1.836568803235238134e-01 2.395384966061527621e+00
1.846974292201891965e-01 2.583058809238075071e+00
1.857379781168545796e-01 2.101369095720336588e+00
1.867785270135199627e-01 2.147895151217802834e+00
1.878190759101853458e-01 2.092318268050291863e+00
1.888596248068507288e-01 2.186774731209901290e+00
1.899001737035161119e-01 2.197882028662171194e+00
1.909407226001814950e-01 2.126371373336766624e+00
1.919812714968468781e-01 2.326341732985682142e+00
1.930218203935122612e-01 2.189827696813253510e+00
1.940623692901776443e-01 2.233194862342422482e+00
1.951029181868430273e-01 2.314467714694636413e+00
1.961434670835084104e-01 2.326855961077100687e+00
1.971840159801737935e-01 2.274612919771080044e+00
1.982245648768391766e-01 2.493123657939868565e+00
1.992651137735045597e-01 2.626766075303741843e+00
2.003056626701699428e-01 3.354794187249225956e+00
2.013462115668353813e-01 2.823978362998850855e+00
2.023867604635007644e-01 2.418524139649733229e+00
2.034273093601661475e-01 2.873668181044564562e+00
2.044678582568315306e-01 2.857223974235079567e+00
2.055084071534969137e-01 2.602798702060930225e+00
2.065489560501622968e-01 2.592964542338890510e+00
2.075895049468276798e-01 2.640592853953503294e+00
2.086300538434930629e-01 2.875124180760614934e+00
2.096706027401584460e-01 2.603382968181001900e+00
2.107111516368238291e-01 2.085978505141127926e+00
2.117517005334892122e-01 1.899499208292343866e+00
2.127922494301545953e-01 2.074823628922207064e+00
2.138327983268199783e-01 2.548711058378060557e+00
2.148733472234853614e-01 2.770948135099406073e+00
2.159138961201507445e-01 2.673211885583185676e+00
2.169544450168161276e-01 2.469193635402174181e+00
2.179949939134815107e-01 2.604496748539208539e+00
2.190355428101468938e-01 2.180537496374252981e+00
2.200760917068122768e-01 1.904687560953657766e+00
2.211166406034776599e-01 1.910930852943682368e+00
2.221571895001430430e-01 2.082012687070136536e+00
2.231977383968084261e-01 1.730461515753823676e+00
2.242382872934738092e-01 1.816934356455501387e+00
2.252788361901391923e-01 2.005034060962959330e+00
2.263193850868045753e-01 2.163912087165595466e+00
2.273599339834699584e-01 2.209072601147695991e+00
2.284004828801353415e-01 1.575338138402592847e+00
2.294410317768007246e-01 1.291001975737497531e+00
2.304815806734661077e-01 1.423145637485184523e+00
2.315221295701314908e-01 1.422674066286269579e+00
2.325626784667968738e-01 1.377024169491697592e+00
2.336032273634622569e-01 1.003315559064240858e+00
2.346437762601276400e-01 6.757693723380455708e-01
2.356843251567930231e-01 9.377043197489278725e-01
2.367248740534584062e-01 9.978375002376367320e-01
2.377654229501237892e-01 1.325287878522463103e+00
2.388059718467891723e-01 1.276813855242533435e+00
2.398465207434545554e-01 1.075202451672272019e+00
2.408870696401199385e-01 8.535480130407187005e-01
2.419276185367853216e-01 8.576843200800468026e-01
2.429681674334507047e-01 9.094832132831314198e-01
2.440087163301160877e-01 1.165690682130602340e+00
2.450492652267814708e-01 1.358966411354526116e+00
2.460898141234468539e-01 1.271230698245030766e+00
2.471303630201122370e-01 1.296896158510914887e+00
2.481709119167776201e-01 1.254499279021377589e+00
2.492114608134430032e-01 1.080817939739031175e+00
2.502520097101083585e-01 6.306415540658107943e-01
2.512925586067737416e-01 9.140655512803945726e-01
2.523331075034391247e-01 1.218184300119890651e+00
2.533736564001045077e-01 1.005724650158324351e+00
2.544142052967698908e-01 1.018976864620633194e+00
2.554547541934352739e-01 1.272187314928309831e+00
2.564953030901006570e-01 1.031209324914645009e+00
2.575358519867660401e-01 8.749569289598504440e-01
2.585764008834314231e-01 9.975802508277809011e-01
2.596169497800968062e-01 1.295901166211908873e+00
2.606574986767621893e-01 9.792684418534207680e-01
2.616980475734275724e-01 9.582283591828719693e-01
2.627385964700929555e-01 1.046871866604917045e+00
2.637791453667583386e-01 8.428696889114135615e-01
2.648196942634237216e-01 8.671782070695570610e-01
2.658602431600891047e-01 1.032841745397679034e+00
2.669007920567544878e-01 9.701774986377671439e-01
2.679413409534198709e-01 8.657865476033101970e-01
2.689818898500852540e-01 1.016196525917322901e+00
2.700224387467506371e-01 8.889351475643998413e-01
2.710629876434160201e-01 8.336677952545166193e-01
2.721035365400814032e-01 7.015202506126136939e-01
2.731440854367467863e-01 9.209168327891816830e-01
2.741846343334121694e-01 1.019149129388896569e+00
2.752251832300775525e-01 9.155337103902496665e-01
2.762657321267429356e-01 8.351242841089145941e-01
2.773062810234083186e-01 9.088044473295759929e-01
2.783468299200737017e-01 9.122657536950207202e-01
2.793873788167390848e-01 1.056777022755280626e+00
2.804279277134044679e-01 1.236492501023843005e+00
2.814684766100698510e-01 9.269646765486072582e-01
2.825090255067352341e-01 7.232076299807630448e-01
2.835495744034006171e-01 7.089687784088845035e-01
2.845901233000660002e-01 7.101073678599689742e-01
2.856306721967313833e-01 7.513119551497595694e-01
2.866712210933967664e-01 7.404346871636668936e-01
2.877117699900621495e-01 7.150696003222698494e-01
2.887523188867275326e-01 8.288088861361373461e-01
2.897928677833929156e-01 4.674205582526234082e-01
2.908334166800582987e-01 5.104785574289607553e-01
2.918739655767236818e-01 7.083308066532723046e-01
2.929145144733890649e-01 5.626726910877124510e-01
2.939550633700544480e-01 3.121302658755880088e-01
2.949956122667198311e-01 5.967821734909612985e-01
2.960361611633852141e-01 6.241334940720051350e-01
2.970767100600505972e-01 3.822339057612111901e-01
2.981172589567159803e-01 5.521657499455692175e-01
2.991578078533813634e-01 6.301073690182903420e-01
3.001983567500468020e-01 4.767424229485754950e-01
3.012389056467121851e-01 3.502596065387955093e-01
3.022794545433775681e-01 3.027328331421941243e-01
3.033200034400429512e-01 4.548308600342565455e-01
3.043605523367083343e-01 5.999109109063525125e-01
3.054011012333737174e-01 8.105446376022520383e-01
3.064416501300391005e-01 8.367991574257871434e-01
3.074821990267044836e-01 5.650048589587015613e-01
3.085227479233698666e-01 5.564612807023117114e-01
3.095632968200352497e-01 6.297903506268660578e-01
3.106038457167006328e-01 5.904655779257268478e-01
3.116443946133660159e-01 6.773269468989298048e-01
3.126849435100313990e-01 3.758591017379409038e-01
3.137254924066967821e-01 2.921611371239016819e-01
3.147660413033621651e-01 5.705065146267358500e-01
3.158065902000275482e-01 7.083969085318138070e-01
3.168471390966929313e-01 7.423958880569472285e-01
3.178876879933583144e-01 5.584015588160013976e-01
3.189282368900236975e-01 4.180268651680130176e-01
3.199687857866890806e-01 3.064502025185724676e-01
3.210093346833544636e-01 3.932051378861949331e-01
3.220498835800198467e-01 6.435510905010595195e-01
3.230904324766852298e-01 2.344951204392273780e-01
3.241309813733506129e-01 2.433903490096618327e-01
3.251715302700159960e-01 5.420047325548331685e-01
3.262120791666813790e-01 4.809050738418996218e-01
3.272526280633467621e-01 4.624155935127447492e-01
3.282931769600121452e-01 3.930842457540677515e-01
3.293337258566775283e-01 8.336121484449421359e-02
3.303742747533429114e-01 3.767378549366640073e-02
3.314148236500082945e-01 6.314647223887952521e-01
3.324553725466736775e-01 6.069480985487096802e-01
3.334959214433390606e-01 3.395067101815207877e-01
3.345364703400044437e-01 3.237151326188758560e-01
3.355770192366698268e-01 2.978812401543180499e-01
3.366175681333352099e-01 2.856607241377346895e-01
3.376581170300005930e-01 4.361211802104101309e-01
3.386986659266659760e-01 5.798800483802892813e-01
3.397392148233313591e-01 6.340272801789552659e-01
3.407797637199967422e-01 5.114352205757128900e-01
3.418203126166621253e-01 5.433520967634173360e-01
3.428608615133275084e-01 4.622047794269157350e-01
3.439014104099928915e-01 4.083613040669256122e-01
3.449419593066582745e-01 4.370849160060608085e-01
3.459825082033236576e-01 2.649471122413658009e-01
3.470230570999890407e-01 4.221551866382000640e-01
3.480636059966544238e-01 3.398233461951640777e-01
3.491041548933198069e-01 4.145343106972987357e-01
3.501447037899851900e-01 4.794138339320994646e-01
3.511852526866505730e-01 3.163403267912201500e-01
3.522258015833159561e-01 1.522899160983293143e-01
3.532663504799813392e-01 3.984109688280383921e-01
3.543068993766467223e-01 3.141729648712328071e-01
3.553474482733121054e-01 3.407781873051085597e-01
3.563879971699774885e-01 3.344131469252502598e-01
3.574285460666428715e-01 2.884960390980992884e-01
3.584690949633082546e-01 3.483523033168367533e-01
3.595096438599736377e-01 3.626101586194607762e-02
3.605501927566390208e-01 3.389549676438541326e-01
3.615907416533044039e-01 2.177667204034143822e-01
3.626312905499697870e-01 2.124390608989443763e-01
3.636718394466351700e-01 3.103353006192008934e-01
3.647123883433005531e-01 3.886715328614158693e-01
3.657529372399659362e-01 3.705691133214976674e-01
3.667934861366313193e-01 3.578951830839045556e-01
3.678340350332967024e-01 4.301366277490501489e-01
3.688745839299620854e-01 4.993941378018753596e-01
3.699151328266274685e-01 3.096174950683412419e-01
3.709556817232928516e-01 3.705664147313960655e-01
3.719962306199582347e-01 4.422773670064295004e-01
3.730367795166236178e-01 2.803441506600456989e-01
3.740773284132890009e-01 0.000000000000000000e+00
3.751178773099543839e-01 1.801469555299526348e-01
3.761584262066197670e-01 5.303432090800797027e-01
3.771989751032851501e-01 6.079381064700370985e-01
3.782395239999505332e-01 3.409170066848261627e-01
3.792800728966159163e-01 1.052351653915089003e-01
3.803206217932812994e-01 2.337757641883868587e-01
3.813611706899466824e-01 2.148444497726096358e-01
3.824017195866120655e-01 2.242508906754565601e-01
3.834422684832774486e-01 2.871724429187523242e-01
3.844828173799428317e-01 3.405434872907555643e-01
3.855233662766082148e-01 2.587861794330876819e-01
3.865639151732735979e-01 1.616845539843794199e-01
3.876044640699389809e-01 2.063119445041117217e-01
3.886450129666043640e-01 4.143241165286468686e-01
3.896855618632697471e-01 4.083508516746547912e-01
3.907261107599351302e-01 3.629188261069415944e-01
3.917666596566005133e-01 3.722209945582228841e-01
3.928072085532658964e-01 3.174729925936254915e-01
3.938477574499312794e-01 3.650468463708875788e-01
3.948883063465966625e-01 2.144519179128039355e-01
3.959288552432620456e-01 2.691965501855086984e-01
3.969694041399274287e-01 2.909736743655955138e-01
3.980099530365928118e-01 2.921377756473866327e-01
3.990505019332581949e-01 4.097997300601328163e-01
4.000910508299235779e-01 2.927531315311782123e-01
4.011315997265889610e-01 3.171130644550643751e-01
4.021721486232543441e-01 2.577369485334806143e-01
4.032126975199197272e-01 2.372806726934868493e-01
4.042532464165851103e-01 2.833080019862599386e-01
4.052937953132504934e-01 2.412219163476478911e-01
4.063343442099158764e-01 2.096936183819195776e-01
4.073748931065812595e-01 2.465272797526694148e-01
4.084154420032466426e-01 2.456559467685437426e-01
4.094559908999120257e-01 1.869336338710674283e-01
4.104965397965774088e-01 3.168885882231968765e-01
4.115370886932427918e-01 2.149585921070631400e-01
4.125776375899081749e-01 1.409717290621905761e-01
4.136181864865735580e-01 1.951795127197613056e-01
4.146587353832389411e-01 3.528490837287989734e-01
4.156992842799043242e-01 4.670456944119187881e-01
4.167398331765697073e-01 3.141127459365620211e-01
4.177803820732350903e-01 4.188865894128426248e-01
4.188209309699004734e-01 5.270847281237358573e-01
4.198614798665658565e-01 3.167015114591187341e-01
4.209020287632312396e-01 4.279158972720829013e-01
4.219425776598966227e-01 4.736138600636010665e-01
4.229831265565620058e-01 2.095963217558711733e-01
4.240236754532273888e-01 3.191703780555492642e-01
4.250642243498927719e-01 2.624915747067326777e-01
4.261047732465581550e-01 2.509072692022940032e-01
4.271453221432235381e-01 2.795309077031440381e-01
4.281858710398889212e-01 1.244237195496040727e-01
4.292264199365543043e-01 7.988655988954462828e-02
4.302669688332196873e-01 2.466201716228724194e-01
4.313075177298850704e-01 3.289877586695659772e-01
4.323480666265504535e-01 2.679500134311965098e-01
4.333886155232158366e-01 4.429205746968456481e-01
4.344291644198812197e-01 6.603025376705495830e-01
