# q (1/Angstrom), Intensity (arb)
2.029070354705860696e-02 2.385117490206998241e+02
2.133125244372399004e-02 2.105040321383996229e+02
2.237180134038937659e-02 1.850546510684927171e+02
2.341235023705475968e-02 1.630752760129682315e+02
2.445289913372014276e-02 1.494504286524090730e+02
2.549344803038552584e-02 1.386512768651600709e+02
2.653399692705091240e-02 1.277185577669125962e+02
2.757454582371629548e-02 1.184028627847753370e+02
2.861509472038167856e-02 1.113644074194355937e+02
2.965564361704706164e-02 1.049567309903601284e+02
3.069619251371244473e-02 9.950337005541045698e+01
3.173674141037782781e-02 9.485075655142387063e+01
3.277729030704321089e-02 9.037707925010720089e+01
3.381783920370859398e-02 8.825134335548855802e+01
3.485838810037397706e-02 8.659369211779768705e+01
3.589893699703936014e-02 8.546300866706158672e+01
3.693948589370474322e-02 8.294354287778197943e+01
3.798003479037012631e-02 8.142511815093941152e+01
3.902058368703550939e-02 8.317942480520071058e+01
4.006113258370089247e-02 8.323281598869846221e+01
4.110168148036627556e-02 8.381544714488236991e+01
4.214223037703165864e-02 8.559366143504252022e+01
4.318277927369704866e-02 8.817026754225611285e+01
4.422332817036243174e-02 9.160475563224835582e+01
4.526387706702781483e-02 9.504965374596002903e+01
4.630442596369319791e-02 1.015426359127260980e+02
4.734497486035858099e-02 1.101320868669297255e+02
4.838552375702396408e-02 1.200836557968823683e+02
4.942607265368934716e-02 1.316611010614985275e+02
5.046662155035473024e-02 1.495393394302875834e+02
5.150717044702011332e-02 1.744688962581450937e+02
5.254771934368549641e-02 2.110179883537682599e+02
5.358826824035087949e-02 2.750975350236359418e+02
5.462881713701626257e-02 3.827621382761089421e+02
5.566936603368164566e-02 5.383766159164970304e+02
5.670991493034702874e-02 7.551338653506361425e+02
5.775046382701241182e-02 9.987509908773585039e+02
5.879101272367779490e-02 1.175548709377068008e+03
5.983156162034317799e-02 1.193600712871599399e+03
6.087211051700856107e-02 1.095240027868982679e+03
6.191265941367394415e-02 9.441885539485158461e+02
6.295320831033933417e-02 7.849771033559869693e+02
6.399375720700471726e-02 6.371174300405914437e+02
6.503430610367010034e-02 5.103588699730805160e+02
6.607485500033548342e-02 4.101808103070856646e+02
6.711540389700086651e-02 3.296327405079059645e+02
6.815595279366624959e-02 2.613814312432344309e+02
6.919650169033163267e-02 2.064824229154864952e+02
7.023705058699701576e-02 1.600516099451980665e+02
7.127759948366239884e-02 1.217385483376141053e+02
7.231814838032778192e-02 9.205248776623126616e+01
7.335869727699316500e-02 7.054929200153733859e+01
7.439924617365854809e-02 5.338436663960835915e+01
7.543979507032393117e-02 4.049700299005154136e+01
7.648034396698931425e-02 3.215164050678205854e+01
7.752089286365469734e-02 2.558613465110396845e+01
7.856144176032008042e-02 2.068990757476150577e+01
7.960199065698546350e-02 1.795180869523495204e+01
8.064253955365084658e-02 1.602931594064803278e+01
8.168308845031622967e-02 1.450768343655407477e+01
8.272363734698161275e-02 1.303603008226018289e+01
8.376418624364699583e-02 1.211706071324555722e+01
8.480473514031239279e-02 1.264066096855948018e+01
8.584528403697777588e-02 1.217206384152594723e+01
8.688583293364315896e-02 1.254333624687562576e+01
8.792638183030854204e-02 1.345224827371730925e+01
8.896693072697392513e-02 1.469554625023372552e+01
9.000747962363930821e-02 1.666742831868851482e+01
9.104802852030469129e-02 1.869873845182873140e+01
9.208857741697007437e-02 2.245918961384828805e+01
9.312912631363545746e-02 2.971754316381840511e+01
9.416967521030084054e-02 4.041782186096672547e+01
9.521022410696622362e-02 4.906223733571574286e+01
9.625077300363160671e-02 5.376286679844881888e+01
9.729132190029698979e-02 5.599740462026694132e+01
9.833187079696237287e-02 5.654955897128526487e+01
9.937241969362775595e-02 5.500100050349318082e+01
1.004129685902931390e-01 5.226380663046242603e+01
1.014535174869585221e-01 4.983177335255301443e+01
1.024940663836239052e-01 4.683530248550651720e+01
1.035346152802892883e-01 4.387767575833102285e+01
1.045751641769546714e-01 4.166032950737186979e+01
1.056157130736200545e-01 4.100067104928904627e+01
1.066562619702854375e-01 4.082580997600537387e+01
1.076968108669508206e-01 4.143017513507097505e+01
1.087373597636162037e-01 4.420752381774931905e+01
1.097779086602815868e-01 4.865468425630936622e+01
1.108184575569469699e-01 5.461112914073557789e+01
1.118590064536123529e-01 5.877731806682631088e+01
1.128995553502777360e-01 5.974327328609373922e+01
1.139401042469431191e-01 5.818205646698041278e+01
1.149806531436085022e-01 5.638108811609575355e+01
1.160212020402738853e-01 5.288449398766577048e+01
1.170617509369392684e-01 4.886870680310342152e+01
1.181022998336046514e-01 4.363383946363435228e+01
1.191428487302700345e-01 3.795991801683624800e+01
1.201833976269354176e-01 3.387052944205368732e+01
1.212239465236008007e-01 2.996742781559435542e+01
1.222644954202661838e-01 2.558949495210109149e+01
1.233050443169315669e-01 2.178925506410273982e+01
1.243455932135969499e-01 1.889763394396928220e+01
1.253861421102623330e-01 1.631050692516475209e+01
1.264266910069277161e-01 1.421660959083316556e+01
1.274672399035930992e-01 1.129135842798459777e+01
1.285077888002584823e-01 9.468942822383795033e+00
1.295483376969238654e-01 8.272205088495496739e+00
1.305888865935892484e-01 7.061808141350589096e+00
1.316294354902546315e-01 6.242717725457517020e+00
1.326699843869200146e-01 5.724701669390398706e+00
1.337105332835853977e-01 5.102776924474966336e+00
1.347510821802507808e-01 4.763522612188864969e+00
1.357916310769161639e-01 4.270097790123145387e+00
1.368321799735815469e-01 3.769756930732064859e+00
1.378727288702469300e-01 3.797122800829754397e+00
1.389132777669123131e-01 3.809575129730291110e+00
1.399538266635776962e-01 3.604367969084457002e+00
1.409943755602430793e-01 3.952312109439418464e+00
1.420349244569084624e-01 4.258801639525465532e+00
1.430754733535738454e-01 4.956564890419357994e+00
1.441160222502392285e-01 5.403612906803182625e+00
1.451565711469046116e-01 5.952036586194125789e+00
1.461971200435699947e-01 6.991175216583130236e+00
1.472376689402353778e-01 8.472488711789715410e+00
1.482782178369007609e-01 9.781853394241110777e+00
1.493187667335661439e-01 1.074005359403994930e+01
1.503593156302315270e-01 1.137835816403033107e+01
1.513998645268969101e-01 1.153329812607034910e+01
1.524404134235622932e-01 1.117327764734112350e+01
1.534809623202276763e-01 1.030785449261301778e+01
1.545215112168930593e-01 9.994194786908430217e+00
1.555620601135584424e-01 9.722614460284063398e+00
1.566026090102238255e-01 9.645967125965203337e+00
1.576431579068892086e-01 9.121421124952796333e+00
1.586837068035545917e-01 8.772223727968171403e+00
1.597242557002199748e-01 8.526244895996764939e+00
1.607648045968853578e-01 7.801020283887574180e+00
1.618053534935507409e-01 7.704824076357311924e+00
1.628459023902161240e-01 7.693692477962621012e+00
1.638864512868815071e-01 7.520079826872681394e+00
1.649270001835468902e-01 7.383163764972039189e+00
1.659675490802122733e-01 7.343639474144868728e+00
1.670080979768776563e-01 7.040898777085065063e+00
1.680486468735430672e-01 6.683480067620006793e+00
1.690891957702084503e-01 6.451928218214089128e+00
1.701297446668738333e-01 6.251765793957122952e+00
1.711702935635392164e-01 6.426244641581000394e+00
1.722108424602045995e-01 5.870147985207506025e+00
1.732513913568699826e-01 5.365518552471499447e+00
1.742919402535353657e-01 5.532196435329190365e+00
1.753324891502007488e-01 5.554796540694521667e+00
1.763730380468661318e-01 5.179054913007757222e+00
1.774135869435315149e-01 4.670961180191646633e+00
1.784541358401968980e-01 4.503290630685292228e+00
1.794946847368622811e-01 4.243704082357648844e+00
1.805352336335276642e-01 3.505948710980831606e+00
1.815757825301930473e-01 3.306773803269091871e+00
1.826163314268584303e-01 3.241545781315288366e+00
1.836568803235238134e-01 3.015754739971896470e+00
1.846974292201891965e-01 2.667761428115746014e+00
1.857379781168545796e-01 2.532469297523540774e+00
1.867785270135199627e-01 2.260539228883089891e+00
1.878190759101853458e-01 2.334426573545361094e+00
1.888596248068507288e-01 2.287700217699946137e+00
1.899001737035161119e-01 2.240056965059167737e+00
1.909407226001814950e-01 2.143902847411727208e+00
1.919812714968468781e-01 1.953588064028238591e+00
1.930218203935122612e-01 1.612504040848534714e+00
1.940623692901776443e-01 2.066666879119463118e+00
1.951029181868430273e-01 2.275855193964716250e+00
1.961434670835084104e-01 2.179775525813539616e+00
1.971840159801737935e-01 2.370438097129795807e+00
1.982245648768391766e-01 2.588256286131500161e+00
1.992651137735045597e-01 2.360181859151680328e+00
2.003056626701699428e-01 2.345840147988926816e+00
2.013462115668353813e-01 2.578149000134413171e+00
2.023867604635007644e-01 2.753792463905320176e+00
2.034273093601661475e-01 2.947588311566551766e+00
2.044678582568315306e-01 2.895665259043678219e+00
2.055084071534969137e-01 2.424941576236971486e+00
2.065489560501622968e-01 2.573881582250209021e+00
2.075895049468276798e-01 2.841215967706862244e+00
2.086300538434930629e-01 2.408062664814121234e+00
2.096706027401584460e-01 2.137229492949138887e+00
2.107111516368238291e-01 2.280061962092176486e+00
2.117517005334892122e-01 2.215810539279758018e+00
2.127922494301545953e-01 2.170835374663468542e+00
2.138327983268199783e-01 2.274133364660702483e+00
2.148733472234853614e-01 2.061722773095791439e+00
2.159138961201507445e-01 2.072878355687834073e+00
2.169544450168161276e-01 2.291653296219628544e+00
2.179949939134815107e-01 2.144377832354361857e+00
2.190355428101468938e-01 2.129344088848938554e+00
2.200760917068122768e-01 2.151934813229523513e+00
2.211166406034776599e-01 2.283389065766776582e+00
2.221571895001430430e-01 2.157969304797429544e+00
2.231977383968084261e-01 2.332107471002665022e+00
2.242382872934738092e-01 2.201582983347424971e+00
2.252788361901391923e-01 1.839530241351120310e+00
2.263193850868045753e-01 1.939565157524860695e+00
2.273599339834699584e-01 1.940086213403926507e+00
2.284004828801353415e-01 1.540999690476226647e+00
2.294410317768007246e-01 1.533898766540264802e+00
2.304815806734661077e-01 1.411046301346374321e+00
2.315221295701314908e-01 1.187011195684366527e+00
2.325626784667968738e-01 1.578069252681274293e+00
2.336032273634622569e-01 1.606458452530084458e+00
2.346437762601276400e-01 1.258592682646177963e+00
2.356843251567930231e-01 1.083074527018695221e+00
2.367248740534584062e-01 1.175483184827292860e+00
2.377654229501237892e-01 1.182037873496550873e+00
2.388059718467891723e-01 1.125321823476088667e+00
2.398465207434545554e-01 1.009295053434449585e+00
2.408870696401199385e-01 1.052073862979757024e+00
2.419276185367853216e-01 1.330293680223764596e+00
2.429681674334507047e-01 1.285273199231760088e+00
2.440087163301160877e-01 1.187153565822463008e+00
2.450492652267814708e-01 1.256514518220253507e+00
2.460898141234468539e-01 7.643450635269459781e-01
2.471303630201122370e-01 7.489407594607655483e-01
2.481709119167776201e-01 8.997517639469272410e-01
2.492114608134430032e-01 8.188457584444357451e-01
2.502520097101083585e-01 1.042242400341709896e+00
2.512925586067737416e-01 7.362108506332560864e-01
2.523331075034391247e-01 8.504773026659577795e-01
2.533736564001045077e-01 6.921569232858928444e-01
2.544142052967698908e-01 7.630844332848809586e-01
2.554547541934352739e-01 9.709688731467416289e-01
2.564953030901006570e-01 7.910261237806039958e-01
2.575358519867660401e-01 8.842740566812921088e-01
2.585764008834314231e-01 1.184003738059125510e+00
2.596169497800968062e-01 7.934755263968611416e-01
2.606574986767621893e-01 7.092033642620378942e-01
2.616980475734275724e-01 6.968289947640968762e-01
2.627385964700929555e-01 7.961541922587898057e-01
2.637791453667583386e-01 1.285820504671701059e+00
2.648196942634237216e-01 1.149077526931254312e+00
2.658602431600891047e-01 9.600849317081703305e-01
2.669007920567544878e-01 1.203982369253154161e+00
2.679413409534198709e-01 9.510189286288657229e-01
2.689818898500852540e-01 8.806048026700175058e-01
2.700224387467506371e-01 8.243985119571988207e-01
2.710629876434160201e-01 9.071782195243827118e-01
2.721035365400814032e-01 9.498259533146899969e-01
2.731440854367467863e-01 7.086290254168723379e-01
2.741846343334121694e-01 6.560713913814204545e-01
2.752251832300775525e-01 7.610384264407414889e-01
2.762657321267429356e-01 7.817588304181164460e-01
2.773062810234083186e-01 8.004608889230375723e-01
2.783468299200737017e-01 8.649434351762295137e-01
2.793873788167390848e-01 1.014415343420527194e+00
2.804279277134044679e-01 8.553408177759145303e-01
2.814684766100698510e-01 8.477210204310878794e-01
2.825090255067352341e-01 9.108919465791878167e-01
2.835495744034006171e-01 7.623596390982498860e-01
2.845901233000660002e-01 6.629867877393174069e-01
2.856306721967313833e-01 5.349530477844233189e-01
2.866712210933967664e-01 4.847402162199649922e-01
2.877117699900621495e-01 5.404441691524617397e-01
2.887523188867275326e-01 4.440466935968032658e-01
2.897928677833929156e-01 3.511814979302521067e-01
2.908334166800582987e-01 3.898174706988619675e-01
2.918739655767236818e-01 7.943358070368660151e-01
2.929145144733890649e-01 6.485825214666434135e-01
2.939550633700544480e-01 5.599088954427102749e-01
2.949956122667198311e-01 7.449014373697480096e-01
2.960361611633852141e-01 6.839408171352587829e-01
2.970767100600505972e-01 5.425332990356110940e-01
2.981172589567159803e-01 6.845991581161712247e-01
2.991578078533813634e-01 6.550409260573530901e-01
3.001983567500468020e-01 4.375542848082361047e-01
3.012389056467121851e-01 6.045650940624298642e-01
3.022794545433775681e-01 6.112137245161477495e-01
3.033200034400429512e-01 6.555292267864025746e-01
3.043605523367083343e-01 6.654730920027311925e-01
3.054011012333737174e-01 6.871179893361691882e-01
3.064416501300391005e-01 7.309501308069670245e-01
3.074821990267044836e-01 5.646501004300645832e-01
3.085227479233698666e-01 5.815115004321746994e-01
3.095632968200352497e-01 6.042022369190647169e-01
3.106038457167006328e-01 3.431655653471565870e-01
3.116443946133660159e-01 3.929977343580226545e-01
3.126849435100313990e-01 6.433925614351103661e-01
3.137254924066967821e-01 5.124129555087399979e-01
3.147660413033621651e-01 3.677619821988891147e-01
3.158065902000275482e-01 2.622256767374189224e-01
3.168471390966929313e-01 4.647166294320435043e-01
3.178876879933583144e-01 7.161953587332412496e-01
3.189282368900236975e-01 6.919803684448844194e-01
3.199687857866890806e-01 6.566394146016456546e-01
3.210093346833544636e-01 5.106533150654719577e-01
3.220498835800198467e-01 5.783004578883925717e-01
3.230904324766852298e-01 6.149387585255539079e-01
3.241309813733506129e-01 3.364403519996805869e-01
3.251715302700159960e-01 3.323024133198835273e-01
3.262120791666813790e-01 4.674933081263574763e-01
3.272526280633467621e-01 2.431637970812587923e-01
3.282931769600121452e-01 2.347586739777050013e-01
3.293337258566775283e-01 4.447186506701648057e-01
3.303742747533429114e-01 4.463638823744098261e-01
3.314148236500082945e-01 1.522089924431355712e-01
3.324553725466736775e-01 2.391450929408378556e-01
3.334959214433390606e-01 3.836195780753683948e-01
3.345364703400044437e-01 4.050959098022737237e-01
3.355770192366698268e-01 5.103312434731712699e-01
3.366175681333352099e-01 5.483630121991147632e-01
3.376581170300005930e-01 4.736750764891297649e-01
3.386986659266659760e-01 3.907755135378181421e-01
3.397392148233313591e-01 3.273500808806772966e-01
3.407797637199967422e-01 5.327533540749520569e-01
3.418203126166621253e-01 5.625306631627786658e-01
3.428608615133275084e-01 5.195310446648342406e-01
3.439014104099928915e-01 5.224930470171713637e-01
3.449419593066582745e-01 6.152146592381626533e-01
3.459825082033236576e-01 3.628217665956015026e-01
3.470230570999890407e-01 4.294344392561058044e-01
3.480636059966544238e-01 4.929011622009156213e-01
3.491041548933198069e-01 1.210285024493735762e-01
3.501447037899851900e-01 1.822308379711792270e-01
3.511852526866505730e-01 4.150514667828808513e-01
3.522258015833159561e-01 3.744685531482829788e-01
3.532663504799813392e-01 2.370094886205542650e-01
3.543068993766467223e-01 2.866014419496707433e-01
3.553474482733121054e-01 3.022915945454052178e-01
3.563879971699774885e-01 3.209863051329229222e-01
3.574285460666428715e-01 3.831379535058090369e-01
3.584690949633082546e-01 4.845257614516711442e-01
3.595096438599736377e-01 1.467260814706783378e-01
3.605501927566390208e-01 1.589342219762279740e-01
3.615907416533044039e-01 2.594922039115417078e-01
3.626312905499697870e-01 1.656045080204684439e-01
3.636718394466351700e-01 1.078370137133788376e-01
3.647123883433005531e-01 1.435197392877611833e-01
3.657529372399659362e-01 2.264236747685224316e-01
3.667934861366313193e-01 1.768505085466003379e-01
3.678340350332967024e-01 2.776137382091228289e-01
3.688745839299620854e-01 3.273581783485504104e-01
3.699151328266274685e-01 4.735122765146968504e-01
3.709556817232928516e-01 5.516380099972835183e-01
3.719962306199582347e-01 5.840743166546644716e-01
3.730367795166236178e-01 3.961652362980068176e-01
3.740773284132890009e-01 1.558046816822979963e-01
3.751178773099543839e-01 1.796898436027127843e-01
3.761584262066197670e-01 3.235124676818443845e-01
3.771989751032851501e-01 1.867920066801751489e-01
3.782395239999505332e-01 1.391816842393360787e-01
3.792800728966159163e-01 6.316688789673463589e-02
3.803206217932812994e-01 5.037660427903034588e-02
3.813611706899466824e-01 2.640824867447832958e-01
3.824017195866120655e-01 1.628273220793907683e-01
3.834422684832774486e-01 2.141644756861147414e-01
3.844828173799428317e-01 2.635595532237324790e-01
3.855233662766082148e-01 5.097208232932786132e-01
3.865639151732735979e-01 4.817953610611098725e-01
3.876044640699389809e-01 3.126057448572190367e-01
3.886450129666043640e-01 3.479785605013923089e-01
3.896855618632697471e-01 4.283313307147444959e-01
3.907261107599351302e-01 5.203704703873626158e-01
3.917666596566005133e-01 4.044222956528678026e-01
3.928072085532658964e-01 4.869234510031610341e-01
3.938477574499312794e-01 3.856651282469378827e-01
3.948883063465966625e-01 2.361159753649708648e-01
3.959288552432620456e-01 2.368721176052694943e-01
3.969694041399274287e-01 1.793303796085439217e-01
3.980099530365928118e-01 2.217886536588160595e-01
3.990505019332581949e-01 3.793749321536132868e-01
4.000910508299235779e-01 5.169083796201583425e-01
4.011315997265889610e-01 4.223252387256408724e-01
4.021721486232543441e-01 3.258184351881432406e-01
4.032126975199197272e-01 4.046126844445012694e-01
4.042532464165851103e-01 3.924201071864636958e-01
4.052937953132504934e-01 3.556746387372768936e-01
4.063343442099158764e-01 2.389369919397772435e-01
4.073748931065812595e-01 2.509544630829019241e-01
4.084154420032466426e-01 1.689068263904367484e-01
4.094559908999120257e-01 2.566292085038952564e-01
4.104965397965774088e-01 1.758325172374028966e-01
4.115370886932427918e-01 3.547880503122584628e-01
4.125776375899081749e-01 3.974727504459956151e-01
4.136181864865735580e-01 2.366658142919391139e-01
4.146587353832389411e-01 2.915284747844282265e-01
4.156992842799043242e-01 2.532033390938543960e-01
4.167398331765697073e-01 2.987414852827079415e-01
4.177803820732350903e-01 1.628027293887299720e-01
4.188209309699004734e-01 1.116403670499579448e-01
4.198614798665658565e-01 1.215409380221821323e-01
4.209020287632312396e-01 3.647573177302341207e-01
4.219425776598966227e-01 5.393935213965370679e-01
4.229831265565620058e-01 4.378277866656006267e-01
4.240236754532273888e-01 2.610049520781743126e-01
4.250642243498927719e-01 1.415603020260576272e-01
4.261047732465581550e-01 1.967189954893733272e-01
4.271453221432235381e-01 2.019276850860620698e-01
4.281858710398889212e-01 4.310398754933970622e-01
4.292264199365543043e-01 4.463317626077625278e-01
4.302669688332196873e-01 3.683971966811085963e-01
4.313075177298850704e-01 2.814965824381836512e-01
4.323480666265504535e-01 2.360023266725903568e-01
4.333886155232158366e-01 1.273016352222668957e-01
4.344291644198812197e-01 2.201571858839059814e-01
