# q (1/Angstrom), Intensity (arb)
2.029070354705860696e-02 2.424959134661310713e+02
2.133125244372399004e-02 2.119045297567888611e+02
2.237180134038937659e-02 1.875664983955305161e+02
2.341235023705475968e-02 1.667593125626814867e+02
2.445289913372014276e-02 1.494779984592991582e+02
2.549344803038552584e-02 1.390357516062837817e+02
2.653399692705091240e-02 1.299858242979307477e+02
2.757454582371629548e-02 1.224468548409644768e+02
2.861509472038167856e-02 1.132194754937368941e+02
2.965564361704706164e-02 1.072150243056937740e+02
3.069619251371244473e-02 1.030405566443623826e+02
3.173674141037782781e-02 9.824333228971036647e+01
3.277729030704321089e-02 9.474975824823093262e+01
3.381783920370859398e-02 9.049469256206987211e+01
3.485838810037397706e-02 8.853242264677501794e+01
3.589893699703936014e-02 8.753594857412130636e+01
3.693948589370474322e-02 8.787963976193682925e+01
3.798003479037012631e-02 8.666557624657500014e+01
3.902058368703550939e-02 8.636979466190375376e+01
4.006113258370089247e-02 8.648620109388090782e+01
4.110168148036627556e-02 8.778293584907004288e+01
4.214223037703165864e-02 9.010117439338722534e+01
4.318277927369704866e-02 9.345746673634124591e+01
4.422332817036243174e-02 9.693669757328302694e+01
4.526387706702781483e-02 1.000560221907651623e+02
4.630442596369319791e-02 1.062231764311979703e+02
4.734497486035858099e-02 1.143272955361752850e+02
4.838552375702396408e-02 1.276829458423229369e+02
4.942607265368934716e-02 1.425329339762951122e+02
5.046662155035473024e-02 1.612015212443251642e+02
5.150717044702011332e-02 1.923448616783680052e+02
5.254771934368549641e-02 2.410571987184867453e+02
5.358826824035087949e-02 3.222542787434298361e+02
5.462881713701626257e-02 4.533442398406823486e+02
5.566936603368164566e-02 6.389235449709337900e+02
5.670991493034702874e-02 8.832650914418842376e+02
5.775046382701241182e-02 1.119851626533675926e+03
5.879101272367779490e-02 1.227566312237394868e+03
5.983156162034317799e-02 1.184881081639365902e+03
6.087211051700856107e-02 1.049394288919869268e+03
6.191265941367394415e-02 8.805373169040341281e+02
6.295320831033933417e-02 7.162080530641671885e+02
6.399375720700471726e-02 5.745948697135507928e+02
6.503430610367010034e-02 4.577017492746853122e+02
6.607485500033548342e-02 3.655377518610860079e+02
6.711540389700086651e-02 2.928105743992786074e+02
6.815595279366624959e-02 2.312416906755702541e+02
6.919650169033163267e-02 1.804107790512303495e+02
7.023705058699701576e-02 1.386371842512194803e+02
7.127759948366239884e-02 1.044618748217169895e+02
7.231814838032778192e-02 7.892399868954295528e+01
7.335869727699316500e-02 5.901547274026221857e+01
7.439924617365854809e-02 4.570854441312479821e+01
7.543979507032393117e-02 3.538311869014979294e+01
7.648034396698931425e-02 2.852170192627447420e+01
7.752089286365469734e-02 2.314738042814122565e+01
7.856144176032008042e-02 1.892038035323123779e+01
7.960199065698546350e-02 1.644220986219333724e+01
8.064253955365084658e-02 1.473251191351950951e+01
8.168308845031622967e-02 1.382989129549119411e+01
8.272363734698161275e-02 1.259135363372367067e+01
8.376418624364699583e-02 1.267178990615320089e+01
8.480473514031239279e-02 1.273078875975686231e+01
8.584528403697777588e-02 1.209995466034388301e+01
8.688583293364315896e-02 1.281944757467264395e+01
8.792638183030854204e-02 1.463301324164186212e+01
8.896693072697392513e-02 1.692896844522233835e+01
9.000747962363930821e-02 1.943468384382978087e+01
9.104802852030469129e-02 2.349201036585086655e+01
9.208857741697007437e-02 2.932532750623695250e+01
9.312912631363545746e-02 3.861706075823317974e+01
9.416967521030084054e-02 4.945609679690330296e+01
9.521022410696622362e-02 5.614907063048205060e+01
9.625077300363160671e-02 5.880482225396198714e+01
9.729132190029698979e-02 5.978604229601084086e+01
9.833187079696237287e-02 5.896109349948995515e+01
9.937241969362775595e-02 5.620043772723926168e+01
1.004129685902931390e-01 5.174592223815594139e+01
1.014535174869585221e-01 4.889374114557649875e+01
1.024940663836239052e-01 4.632407231691462357e+01
1.035346152802892883e-01 4.409021471639687206e+01
1.045751641769546714e-01 4.310086341289746059e+01
1.056157130736200545e-01 4.262540903263568737e+01
1.066562619702854375e-01 4.376078626046161446e+01
1.076968108669508206e-01 4.568740117828482994e+01
1.087373597636162037e-01 4.977783161344942897e+01
1.097779086602815868e-01 5.561493501931500560e+01
1.108184575569469699e-01 5.991438462065696768e+01
1.118590064536123529e-01 6.070608567336786621e+01
1.128995553502777360e-01 5.893471636821756476e+01
1.139401042469431191e-01 5.699526775892505270e+01
1.149806531436085022e-01 5.458093149830469315e+01
1.160212020402738853e-01 5.062682879020217541e+01
1.170617509369392684e-01 4.590316647832477770e+01
1.181022998336046514e-01 4.032870596190039691e+01
1.191428487302700345e-01 3.545229520994401895e+01
1.201833976269354176e-01 3.096698741016697198e+01
1.212239465236008007e-01 2.653599211314671180e+01
1.222644954202661838e-01 2.227144152388557075e+01
1.233050443169315669e-01 1.884870792328418077e+01
1.243455932135969499e-01 1.560803805591211102e+01
1.253861421102623330e-01 1.316421901957323115e+01
1.264266910069277161e-01 1.084906478577735101e+01
1.274672399035930992e-01 9.484065245332935490e+00
1.285077888002584823e-01 7.942747509307672260e+00
1.295483376969238654e-01 6.984920388608642838e+00
1.305888865935892484e-01 6.176464431480589212e+00
1.316294354902546315e-01 5.698586227112031111e+00
1.326699843869200146e-01 5.137459369123511976e+00
1.337105332835853977e-01 4.283590930244102424e+00
1.347510821802507808e-01 3.905414913828380463e+00
1.357916310769161639e-01 3.376480905925262732e+00
1.368321799735815469e-01 3.593214840070046989e+00
1.378727288702469300e-01 3.891346500491685845e+00
1.389132777669123131e-01 3.877935325767495556e+00
1.399538266635776962e-01 4.489026632778745807e+00
1.409943755602430793e-01 4.397934325354874829e+00
1.420349244569084624e-01 4.401619055878150277e+00
1.430754733535738454e-01 5.673686958134652514e+00
1.441160222502392285e-01 7.243636543838334774e+00
1.451565711469046116e-01 8.366219331134516324e+00
1.461971200435699947e-01 9.116037330232039437e+00
1.472376689402353778e-01 1.025194355451498041e+01
1.482782178369007609e-01 1.121367062670851311e+01
1.493187667335661439e-01 1.191196011012120692e+01
1.503593156302315270e-01 1.165620422408406398e+01
1.513998645268969101e-01 1.153816527181874818e+01
1.524404134235622932e-01 1.090129662501818331e+01
1.534809623202276763e-01 1.004246866907653413e+01
1.545215112168930593e-01 1.010965364645167597e+01
1.555620601135584424e-01 9.905477202367144685e+00
1.566026090102238255e-01 9.135296864505953351e+00
1.576431579068892086e-01 8.429262884099607334e+00
1.586837068035545917e-01 8.278526190140141239e+00
1.597242557002199748e-01 8.105700673200338713e+00
1.607648045968853578e-01 7.438857310824396052e+00
1.618053534935507409e-01 7.246168362481562042e+00
1.628459023902161240e-01 7.664264842188664772e+00
1.638864512868815071e-01 7.449198241475215809e+00
1.649270001835468902e-01 6.995236759728875597e+00
1.659675490802122733e-01 6.928705879467031536e+00
1.670080979768776563e-01 6.951949353223945138e+00
1.680486468735430672e-01 6.380989082726649997e+00
1.690891957702084503e-01 6.097019780900986063e+00
1.701297446668738333e-01 5.665457156432559316e+00
1.711702935635392164e-01 5.289233474709320149e+00
1.722108424602045995e-01 5.154706687873073179e+00
1.732513913568699826e-01 4.885631026270502275e+00
1.742919402535353657e-01 4.548821899807414582e+00
1.753324891502007488e-01 4.162485574633876695e+00
1.763730380468661318e-01 4.153643820145603627e+00
1.774135869435315149e-01 4.145884691656270604e+00
1.784541358401968980e-01 3.824876510162006582e+00
1.794946847368622811e-01 3.208824264700691486e+00
1.805352336335276642e-01 3.133114945464736678e+00
1.815757825301930473e-01 2.776194662315397466e+00
1.826163314268584303e-01 2.408399238822248378e+00
1.836568803235238134e-01 2.360481993762306274e+00
1.846974292201891965e-01 2.403160651891830923e+00
1.857379781168545796e-01 2.379899832168565155e+00
1.867785270135199627e-01 2.121542965676511017e+00
1.878190759101853458e-01 1.784214300922876362e+00
1.888596248068507288e-01 1.866479454174758246e+00
1.899001737035161119e-01 1.805269742029370406e+00
1.909407226001814950e-01 2.067892277432815007e+00
1.919812714968468781e-01 2.089674816880819463e+00
1.930218203935122612e-01 1.944251825673756429e+00
1.940623692901776443e-01 2.200511248379992679e+00
1.951029181868430273e-01 2.317939932701758465e+00
1.961434670835084104e-01 2.777193699863154563e+00
1.971840159801737935e-01 2.857256926746373438e+00
1.982245648768391766e-01 2.534725164174936651e+00
1.992651137735045597e-01 2.582589314246053647e+00
2.003056626701699428e-01 2.718976269779648902e+00
2.013462115668353813e-01 2.453430286735073906e+00
2.023867604635007644e-01 2.342444385670308549e+00
2.034273093601661475e-01 2.346716080510706348e+00
2.044678582568315306e-01 2.093525748934627728e+00
2.055084071534969137e-01 2.294065866852299962e+00
2.065489560501622968e-01 2.390364443058913935e+00
2.075895049468276798e-01 2.460924031423701308e+00
2.086300538434930629e-01 2.810940029134645357e+00
2.096706027401584460e-01 2.521457647130354474e+00
2.107111516368238291e-01 1.950998331658556850e+00
2.117517005334892122e-01 2.020953103662460393e+00
2.127922494301545953e-01 2.089679845288383575e+00
2.138327983268199783e-01 1.987664399373652913e+00
2.148733472234853614e-01 2.348030675234042519e+00
2.159138961201507445e-01 2.224575536460555725e+00
2.169544450168161276e-01 2.044338602807680871e+00
2.179949939134815107e-01 2.097256548155055356e+00
2.190355428101468938e-01 2.208647680271901947e+00
2.200760917068122768e-01 2.019998527630036733e+00
2.211166406034776599e-01 1.896173907104003575e+00
2.221571895001430430e-01 1.713585346208425619e+00
2.231977383968084261e-01 1.803826342132751392e+00
2.242382872934738092e-01 1.958405044536409179e+00
2.252788361901391923e-01 1.796524777234257186e+00
2.263193850868045753e-01 1.643874918325789025e+00
2.273599339834699584e-01 1.640063428197631623e+00
2.284004828801353415e-01 1.715753144651774420e+00
2.294410317768007246e-01 1.390771111940271254e+00
2.304815806734661077e-01 1.735433325238883384e+00
2.315221295701314908e-01 1.729416690814733926e+00
2.325626784667968738e-01 1.362542694232892870e+00
2.336032273634622569e-01 1.163463032555380749e+00
2.346437762601276400e-01 1.328710317976749877e+00
2.356843251567930231e-01 1.434673476327141373e+00
2.367248740534584062e-01 1.426693796003725367e+00
2.377654229501237892e-01 1.082076855453106390e+00
2.388059718467891723e-01 1.238852781511123879e+00
2.398465207434545554e-01 1.027180940297498069e+00
2.408870696401199385e-01 5.088253781327765068e-01
2.419276185367853216e-01 7.167419586073471294e-01
2.429681674334507047e-01 7.293585928401995488e-01
2.440087163301160877e-01 8.399084782847054953e-01
2.450492652267814708e-01 1.034571067825616808e+00
2.460898141234468539e-01 7.426310511422613558e-01
2.471303630201122370e-01 7.960851960759214307e-01
2.481709119167776201e-01 1.040093322586621127e+00
2.492114608134430032e-01 7.607430498342324654e-01
2.502520097101083585e-01 6.814440599312447944e-01
2.512925586067737416e-01 7.560242014845641734e-01
2.523331075034391247e-01 1.044878058585588576e+00
2.533736564001045077e-01 1.349951758537567770e+00
2.544142052967698908e-01 1.124512231155183173e+00
2.554547541934352739e-01 9.165389266160346438e-01
2.564953030901006570e-01 9.515833832130837777e-01
2.575358519867660401e-01 9.309256983660425533e-01
2.585764008834314231e-01 1.003176411377804556e+00
2.596169497800968062e-01 1.215332695821505382e+00
2.606574986767621893e-01 9.834173377285608808e-01
2.616980475734275724e-01 8.202398334615672582e-01
2.627385964700929555e-01 1.062092921438157589e+00
2.637791453667583386e-01 7.911409083055787050e-01
2.648196942634237216e-01 8.213517706889099657e-01
2.658602431600891047e-01 9.112952995298009284e-01
2.669007920567544878e-01 9.168742413464272545e-01
2.679413409534198709e-01 1.166291808649503992e+00
2.689818898500852540e-01 7.379174649668165387e-01
2.700224387467506371e-01 7.864659677942462679e-01
2.710629876434160201e-01 7.561925132379840875e-01
2.721035365400814032e-01 8.562907088114215526e-01
2.731440854367467863e-01 7.495511396774716673e-01
2.741846343334121694e-01 9.156847438048139054e-01
2.752251832300775525e-01 9.352724036798996110e-01
2.762657321267429356e-01 7.242432458853720334e-01
2.773062810234083186e-01 6.965521104850829204e-01
2.783468299200737017e-01 4.293319548175738021e-01
2.793873788167390848e-01 5.715038517981660959e-01
2.804279277134044679e-01 7.579193608721368491e-01
2.814684766100698510e-01 7.595598497690971840e-01
2.825090255067352341e-01 5.580094084580515812e-01
2.835495744034006171e-01 6.020727348326175843e-01
2.845901233000660002e-01 5.295515304704601078e-01
2.856306721967313833e-01 5.901120221353828299e-01
2.866712210933967664e-01 5.660807983215292438e-01
2.877117699900621495e-01 8.152198397092860205e-01
2.887523188867275326e-01 6.847589190259562031e-01
2.897928677833929156e-01 4.160424881292072996e-01
2.908334166800582987e-01 4.889323587675917793e-01
2.918739655767236818e-01 4.893166285105010616e-01
2.929145144733890649e-01 2.958189800649542178e-01
2.939550633700544480e-01 2.091947526231692223e-01
2.949956122667198311e-01 4.329558557913841810e-01
2.960361611633852141e-01 3.643746984197981931e-01
2.970767100600505972e-01 4.685607263853484028e-01
2.981172589567159803e-01 6.742773842686986541e-01
2.991578078533813634e-01 7.627907157085758172e-01
3.001983567500468020e-01 8.350102886380383893e-01
3.012389056467121851e-01 7.500760854654160426e-01
3.022794545433775681e-01 5.079116498080082920e-01
3.033200034400429512e-01 3.712110902163523463e-01
3.043605523367083343e-01 4.916420378068728780e-01
3.054011012333737174e-01 5.410537519880769253e-01
3.064416501300391005e-01 4.860954172181415345e-01
3.074821990267044836e-01 5.282757395302120074e-01
3.085227479233698666e-01 2.363295030212597680e-01
3.095632968200352497e-01 2.405304711991824718e-01
3.106038457167006328e-01 3.308369823409584853e-01
3.116443946133660159e-01 4.681712540351767871e-01
3.126849435100313990e-01 7.303202674903666036e-01
3.137254924066967821e-01 6.091092674624860592e-01
3.147660413033621651e-01 5.931340910121960519e-01
3.158065902000275482e-01 4.800551149188976297e-01
3.168471390966929313e-01 6.261032282182910080e-01
3.178876879933583144e-01 6.666283867817881514e-01
3.189282368900236975e-01 4.621635792372558171e-01
3.199687857866890806e-01 3.079620977494563761e-01
3.210093346833544636e-01 3.906356915798347984e-01
3.220498835800198467e-01 5.466570921631799251e-01
3.230904324766852298e-01 6.286408062174295708e-01
3.241309813733506129e-01 4.765142127311072784e-01
3.251715302700159960e-01 3.182431732248147682e-01
3.262120791666813790e-01 3.971702248010799963e-01
3.272526280633467621e-01 6.533564502041002697e-01
3.282931769600121452e-01 5.621743850515947827e-01
3.293337258566775283e-01 2.506667031167069126e-01
3.303742747533429114e-01 1.932137649555372150e-01
3.314148236500082945e-01 4.075392385444303045e-01
3.324553725466736775e-01 2.204393853454824637e-01
3.334959214433390606e-01 3.059560190451939832e-01
3.345364703400044437e-01 5.595991137416547190e-01
3.355770192366698268e-01 4.946311772726126321e-01
3.366175681333352099e-01 3.092279920574334540e-01
3.376581170300005930e-01 2.668738156574299580e-01
3.386986659266659760e-01 2.083550731425596325e-01
3.397392148233313591e-01 3.695804059050509238e-01
3.407797637199967422e-01 4.507776422380302961e-01
3.418203126166621253e-01 3.383533155877884724e-01
3.428608615133275084e-01 2.182402468420114872e-01
3.439014104099928915e-01 2.718808774592957889e-01
3.449419593066582745e-01 2.581839371437943953e-01
3.459825082033236576e-01 3.109213928138601091e-01
3.470230570999890407e-01 2.320374847570825239e-01
3.480636059966544238e-01 3.978800002784197432e-01
3.491041548933198069e-01 2.733960602176672694e-01
3.501447037899851900e-01 1.441607826601121189e-01
3.511852526866505730e-01 5.022538617343563772e-01
3.522258015833159561e-01 4.356108050330078640e-01
3.532663504799813392e-01 2.984701563382081702e-01
3.543068993766467223e-01 3.606212361936087518e-01
3.553474482733121054e-01 3.079409940234825172e-01
3.563879971699774885e-01 4.734056528074539472e-01
3.574285460666428715e-01 4.118179379781388150e-01
3.584690949633082546e-01 4.121330059587187122e-01
3.595096438599736377e-01 3.045317148507002969e-01
3.605501927566390208e-01 8.927068602447363332e-02
3.615907416533044039e-01 1.355787452259420434e-01
3.626312905499697870e-01 1.715286861044269529e-01
3.636718394466351700e-01 1.014858797500437504e-01
3.647123883433005531e-01 1.607929903155991269e-02
3.657529372399659362e-01 1.116829401187438009e-01
3.667934861366313193e-01 1.988609163790044931e-01
3.678340350332967024e-01 2.135886501608048604e-01
3.688745839299620854e-01 3.149676350780907796e-01
3.699151328266274685e-01 3.726659565988690304e-01
3.709556817232928516e-01 3.526237103006302220e-01
3.719962306199582347e-01 2.553621632286571241e-01
3.730367795166236178e-01 2.884860052755122695e-01
3.740773284132890009e-01 3.165374779891472201e-01
3.751178773099543839e-01 3.072959147774092514e-01
3.761584262066197670e-01 3.066981297250954697e-01
3.771989751032851501e-01 3.356395764621744604e-01
3.782395239999505332e-01 4.092347999985115337e-01
3.792800728966159163e-01 2.745606398208941812e-01
3.803206217932812994e-01 1.620172396095753697e-01
3.813611706899466824e-01 3.538165075536987558e-01
3.824017195866120655e-01 3.077361091718167074e-01
3.834422684832774486e-01 2.683844181402328388e-01
3.844828173799428317e-01 8.381365894873837874e-02
3.855233662766082148e-01 1.868295537484669921e-01
3.865639151732735979e-01 2.893859602407751197e-01
3.876044640699389809e-01 2.617292681886844719e-01
3.886450129666043640e-01 1.192455944687900171e-01
3.896855618632697471e-01 4.146943931507784953e-01
3.907261107599351302e-01 4.064281026901568339e-01
3.917666596566005133e-01 3.599962371280795992e-01
3.928072085532658964e-01 3.754509508732120082e-01
3.938477574499312794e-01 4.953631826891289336e-01
3.948883063465966625e-01 5.481986583148561465e-01
3.959288552432620456e-01 2.578093508285164148e-01
3.969694041399274287e-01 3.694775272012549294e-01
3.980099530365928118e-01 4.577123099226376723e-01
3.990505019332581949e-01 3.614715488210507033e-01
4.000910508299235779e-01 1.080208612198703122e-01
4.011315997265889610e-01 2.692865368295471740e-02
4.021721486232543441e-01 0.000000000000000000e+00
4.032126975199197272e-01 4.158561691485829215e-02
4.042532464165851103e-01 1.153408081255662410e-01
4.052937953132504934e-01 2.791330033430767799e-01
4.063343442099158764e-01 2.866210171007210761e-01
4.073748931065812595e-01 1.214898735638847427e-01
4.084154420032466426e-01 8.399610108417476795e-02
4.094559908999120257e-01 2.285486631755198061e-01
4.104965397965774088e-01 3.339473204990390798e-01
4.115370886932427918e-01 2.387869302998595344e-01
4.125776375899081749e-01 2.449455871346195579e-01
4.136181864865735580e-01 1.757344745769131578e-01
4.146587353832389411e-01 3.987877140473052862e-01
4.156992842799043242e-01 3.030231990003215969e-01
4.167398331765697073e-01 2.226951009259465764e-01
4.177803820732350903e-01 2.152394002603408296e-01
4.188209309699004734e-01 4.270345579949399450e-01
4.198614798665658565e-01 2.275155985374475165e-01
4.209020287632312396e-01 1.981026831473080563e-01
4.219425776598966227e-01 3.151783181959757485e-01
4.229831265565620058e-01 3.950650414223062512e-01
4.240236754532273888e-01 1.891851348251059051e-01
4.250642243498927719e-01 3.159744911630824049e-01
4.261047732465581550e-01 3.588029013467455286e-01
4.271453221432235381e-01 3.300359631557725493e-01
4.281858710398889212e-01 4.025800896062499135e-01
4.292264199365543043e-01 4.010592236683940826e-01
4.302669688332196873e-01 3.026879317563704319e-01
4.313075177298850704e-01 2.971526879115131692e-01
4.323480666265504535e-01 1.236039241985800174e-01
4.333886155232158366e-01 1.650025393710912169e-01
4.344291644198812197e-01 4.242111034468862840e-01
