# q (1/Angstrom), Intensity (arb)
2.029070354705860696e-02 2.522022044155085041e+02
2.133125244372399004e-02 2.135288787870410943e+02
2.237180134038937659e-02 1.888987134831603498e+02
2.341235023705475968e-02 1.692125909888519004e+02
2.445289913372014276e-02 1.537079120071898899e+02
2.549344803038552584e-02 1.420057276275125560e+02
2.653399692705091240e-02 1.318185541629853219e+02
2.757454582371629548e-02 1.210961329716941037e+02
2.861509472038167856e-02 1.130730010292744083e+02
2.965564361704706164e-02 1.076062839655825485e+02
3.069619251371244473e-02 1.022443215696193022e+02
3.173674141037782781e-02 9.806926336802472122e+01
3.277729030704321089e-02 9.505159760826302318e+01
3.381783920370859398e-02 9.145946765121934163e+01
3.485838810037397706e-02 9.067331698367344472e+01
3.589893699703936014e-02 8.902137197833937421e+01
3.693948589370474322e-02 8.758444251607721753e+01
3.798003479037012631e-02 8.639687030678635438e+01
3.902058368703550939e-02 8.551027194363777539e+01
4.006113258370089247e-02 8.671243927112986682e+01
4.110168148036627556e-02 8.724257566990112878e+01
4.214223037703165864e-02 9.018185585453403519e+01
4.318277927369704866e-02 9.393690092562832206e+01
4.422332817036243174e-02 9.757615351819040939e+01
4.526387706702781483e-02 1.031937197324875797e+02
4.630442596369319791e-02 1.089745818513236202e+02
4.734497486035858099e-02 1.176267722306869246e+02
4.838552375702396408e-02 1.291103617204930174e+02
4.942607265368934716e-02 1.451473730094164125e+02
5.046662155035473024e-02 1.651394433515233970e+02
5.150717044702011332e-02 1.956567337560259432e+02
5.254771934368549641e-02 2.448151588783154011e+02
5.358826824035087949e-02 3.292889961540275294e+02
5.462881713701626257e-02 4.648581466605135688e+02
5.566936603368164566e-02 6.548886800250060105e+02
5.670991493034702874e-02 9.000326577193178537e+02
5.775046382701241182e-02 1.132747025297365553e+03
5.879101272367779490e-02 1.235057351285258392e+03
5.983156162034317799e-02 1.181368266591496422e+03
6.087211051700856107e-02 1.044460820490984133e+03
6.191265941367394415e-02 8.779795865408025293e+02
6.295320831033933417e-02 7.141077664546883170e+02
6.399375720700471726e-02 5.718972675410077500e+02
6.503430610367010034e-02 4.562219305668763241e+02
6.607485500033548342e-02 3.645622234273435538e+02
6.711540389700086651e-02 2.904070214849252238e+02
6.815595279366624959e-02 2.284503279024741857e+02
6.919650169033163267e-02 1.785718399331073556e+02
7.023705058699701576e-02 1.360949755561084373e+02
7.127759948366239884e-02 1.019880440790076079e+02
7.231814838032778192e-02 7.686344485074866384e+01
7.335869727699316500e-02 5.799157085728958805e+01
7.439924617365854809e-02 4.409499099811441880e+01
7.543979507032393117e-02 3.412802026588890669e+01
7.648034396698931425e-02 2.691994858116183309e+01
7.752089286365469734e-02 2.280232022657472157e+01
7.856144176032008042e-02 1.971779946165759867e+01
7.960199065698546350e-02 1.784264860799293473e+01
8.064253955365084658e-02 1.611980166446887353e+01
8.168308845031622967e-02 1.421388774004898181e+01
8.272363734698161275e-02 1.347195864302668156e+01
8.376418624364699583e-02 1.293635948082592790e+01
8.480473514031239279e-02 1.273228752010905396e+01
8.584528403697777588e-02 1.262497095041619133e+01
8.688583293364315896e-02 1.313916798818284803e+01
8.792638183030854204e-02 1.455263766390509517e+01
8.896693072697392513e-02 1.687875948912751767e+01
9.000747962363930821e-02 1.964089584463707894e+01
9.104802852030469129e-02 2.419802447913490795e+01
9.208857741697007437e-02 3.085260842993282182e+01
9.312912631363545746e-02 4.068228318145490618e+01
9.416967521030084054e-02 5.108988933139175259e+01
9.521022410696622362e-02 5.740817365899128077e+01
9.625077300363160671e-02 5.959448731647671593e+01
9.729132190029698979e-02 5.988365574369000655e+01
9.833187079696237287e-02 5.838143551708287049e+01
9.937241969362775595e-02 5.596230165356402608e+01
1.004129685902931390e-01 5.274496701107700858e+01
1.014535174869585221e-01 4.990612687831968941e+01
1.024940663836239052e-01 4.712443033202050202e+01
1.035346152802892883e-01 4.504935664995533529e+01
1.045751641769546714e-01 4.342213697602289102e+01
1.056157130736200545e-01 4.243002716615787051e+01
1.066562619702854375e-01 4.276716377673724878e+01
1.076968108669508206e-01 4.533980619217745556e+01
1.087373597636162037e-01 5.039608145060267930e+01
1.097779086602815868e-01 5.638699770005105449e+01
1.108184575569469699e-01 6.066954847585556365e+01
1.118590064536123529e-01 6.068122045178698443e+01
1.128995553502777360e-01 5.914641900877025904e+01
1.139401042469431191e-01 5.715609686154130031e+01
1.149806531436085022e-01 5.407455867548864603e+01
1.160212020402738853e-01 4.967850940211413047e+01
1.170617509369392684e-01 4.412230075561045339e+01
1.181022998336046514e-01 3.874736317817775699e+01
1.191428487302700345e-01 3.374191853132749941e+01
1.201833976269354176e-01 2.966537772989480715e+01
1.212239465236008007e-01 2.510175913291051586e+01
1.222644954202661838e-01 2.133726178225850845e+01
1.233050443169315669e-01 1.839534744805606437e+01
1.243455932135969499e-01 1.571719737494575497e+01
1.253861421102623330e-01 1.333223604166695253e+01
1.264266910069277161e-01 1.086981487975063487e+01
1.274672399035930992e-01 9.083444687193185985e+00
1.285077888002584823e-01 7.560214230106723221e+00
1.295483376969238654e-01 6.416675313946107906e+00
1.305888865935892484e-01 5.632581833056150344e+00
1.316294354902546315e-01 4.958285242977567009e+00
1.326699843869200146e-01 4.487449040175249593e+00
1.337105332835853977e-01 4.206515555941848561e+00
1.347510821802507808e-01 4.253158399231466547e+00
1.357916310769161639e-01 4.041829320404275450e+00
1.368321799735815469e-01 3.278592927897442166e+00
1.378727288702469300e-01 3.698826349119308077e+00
1.389132777669123131e-01 4.257699022422542612e+00
1.399538266635776962e-01 3.968943586185702088e+00
1.409943755602430793e-01 4.284256987781816406e+00
1.420349244569084624e-01 4.993896115735054764e+00
1.430754733535738454e-01 5.442678277638968609e+00
1.441160222502392285e-01 6.321157942880283542e+00
1.451565711469046116e-01 7.822641355434640786e+00
1.461971200435699947e-01 9.237184106651199045e+00
1.472376689402353778e-01 1.070897796515159683e+01
1.482782178369007609e-01 1.173497086248629273e+01
1.493187667335661439e-01 1.218148950032528433e+01
1.503593156302315270e-01 1.207911265647125987e+01
1.513998645268969101e-01 1.126305479523600184e+01
1.524404134235622932e-01 1.084767070189036531e+01
1.534809623202276763e-01 1.020787698816092615e+01
1.545215112168930593e-01 9.834951444330762627e+00
1.555620601135584424e-01 9.402154427463635500e+00
1.566026090102238255e-01 9.304521625848707345e+00
1.576431579068892086e-01 8.782755280642831508e+00
1.586837068035545917e-01 8.447617538200105969e+00
1.597242557002199748e-01 7.983288522905617413e+00
1.607648045968853578e-01 7.540150849699635671e+00
1.618053534935507409e-01 7.683248866430226087e+00
1.628459023902161240e-01 7.489429271011154299e+00
1.638864512868815071e-01 7.432673521558065488e+00
1.649270001835468902e-01 7.123886741091226327e+00
1.659675490802122733e-01 6.821143394950780703e+00
1.670080979768776563e-01 6.552933896492717736e+00
1.680486468735430672e-01 6.371422596909873448e+00
1.690891957702084503e-01 5.946684556939715094e+00
1.701297446668738333e-01 5.718593857042193918e+00
1.711702935635392164e-01 5.320408507246263241e+00
1.722108424602045995e-01 5.158355797740824755e+00
1.732513913568699826e-01 4.758205412992609240e+00
1.742919402535353657e-01 4.521854369045151145e+00
1.753324891502007488e-01 4.585688980108955093e+00
1.763730380468661318e-01 3.912651396376176649e+00
1.774135869435315149e-01 3.709722243282527643e+00
1.784541358401968980e-01 3.314003031678929290e+00
1.794946847368622811e-01 3.301340355139586791e+00
1.805352336335276642e-01 2.744695226847085223e+00
1.815757825301930473e-01 2.683479390732244951e+00
1.826163314268584303e-01 2.503036640999738438e+00
1.836568803235238134e-01 2.444340885841207012e+00
1.846974292201891965e-01 2.507965270447307660e+00
1.857379781168545796e-01 2.152379280457772381e+00
1.867785270135199627e-01 2.184094646972674525e+00
1.878190759101853458e-01 1.975439760108336884e+00
1.888596248068507288e-01 1.820780114439131125e+00
1.899001737035161119e-01 1.900527383069430698e+00
1.909407226001814950e-01 1.750841122680583339e+00
1.919812714968468781e-01 1.910201537962436191e+00
1.930218203935122612e-01 2.000172810074463570e+00
1.940623692901776443e-01 1.771126000364404263e+00
1.951029181868430273e-01 1.695840654134819658e+00
1.961434670835084104e-01 2.209511720014184277e+00
1.971840159801737935e-01 3.233373409958346656e+00
1.982245648768391766e-01 3.005500002422685668e+00
1.992651137735045597e-01 2.285942298395134742e+00
2.003056626701699428e-01 2.184475472086838010e+00
2.013462115668353813e-01 2.515045927381230229e+00
2.023867604635007644e-01 2.322239249476204748e+00
2.034273093601661475e-01 2.522875239544767112e+00
2.044678582568315306e-01 2.532883975844434588e+00
2.055084071534969137e-01 2.615622323546727301e+00
2.065489560501622968e-01 2.589053218028137593e+00
2.075895049468276798e-01 2.300238696650865222e+00
2.086300538434930629e-01 2.492788909488648841e+00
2.096706027401584460e-01 2.058423610206315146e+00
2.107111516368238291e-01 2.069826396899610899e+00
2.117517005334892122e-01 2.157411931035465358e+00
2.127922494301545953e-01 2.008423628525719096e+00
2.138327983268199783e-01 2.295128820699154915e+00
2.148733472234853614e-01 2.218189836612850740e+00
2.159138961201507445e-01 1.864888317521064209e+00
2.169544450168161276e-01 2.044198440341073564e+00
2.179949939134815107e-01 2.152463783594267710e+00
2.190355428101468938e-01 2.147583357509596169e+00
2.200760917068122768e-01 2.188636414398892782e+00
2.211166406034776599e-01 2.008961930927739559e+00
2.221571895001430430e-01 1.750869797398781458e+00
2.231977383968084261e-01 1.727332340025050428e+00
2.242382872934738092e-01 1.957391663257968872e+00
2.252788361901391923e-01 2.392217786295937287e+00
2.263193850868045753e-01 2.216123869557549142e+00
2.273599339834699584e-01 1.711177470129978673e+00
2.284004828801353415e-01 1.460908489458638826e+00
2.294410317768007246e-01 1.413974929340991338e+00
2.304815806734661077e-01 1.243310624258629815e+00
2.315221295701314908e-01 1.273400158440050944e+00
2.325626784667968738e-01 1.447699135161958139e+00
2.336032273634622569e-01 1.012634054430293418e+00
2.346437762601276400e-01 1.113267768329894380e+00
2.356843251567930231e-01 1.195489913135165949e+00
2.367248740534584062e-01 1.449527188788906074e+00
2.377654229501237892e-01 1.145320895507556003e+00
2.388059718467891723e-01 9.464343675689121937e-01
2.398465207434545554e-01 1.068891420224559852e+00
2.408870696401199385e-01 1.024670866588621720e+00
2.419276185367853216e-01 1.100743228229212889e+00
2.429681674334507047e-01 9.366260324966226847e-01
2.440087163301160877e-01 7.814382726752313602e-01
2.450492652267814708e-01 6.699598476465808972e-01
2.460898141234468539e-01 4.115147013703577272e-01
2.471303630201122370e-01 3.155240665766676500e-01
2.481709119167776201e-01 6.141168409875312761e-01
2.492114608134430032e-01 8.648468583965644996e-01
2.502520097101083585e-01 8.554442966261994741e-01
2.512925586067737416e-01 6.657578350217576713e-01
2.523331075034391247e-01 8.060220572001881578e-01
2.533736564001045077e-01 1.162323349376535475e+00
2.544142052967698908e-01 1.138140381827742686e+00
2.554547541934352739e-01 1.008319009676824862e+00
2.564953030901006570e-01 1.111664159657721029e+00
2.575358519867660401e-01 1.145667039356137451e+00
2.585764008834314231e-01 8.768968508837566844e-01
2.596169497800968062e-01 8.867574597407248405e-01
2.606574986767621893e-01 1.285878881480481795e+00
2.616980475734275724e-01 1.034879178803631561e+00
2.627385964700929555e-01 7.928995691535476453e-01
2.637791453667583386e-01 1.060775760439991444e+00
2.648196942634237216e-01 9.817519215335082094e-01
2.658602431600891047e-01 1.089769619405579704e+00
2.669007920567544878e-01 1.048704420658456371e+00
2.679413409534198709e-01 7.776999251402827440e-01
2.689818898500852540e-01 5.857009873389991128e-01
2.700224387467506371e-01 8.173301957324703437e-01
2.710629876434160201e-01 9.477688423714880628e-01
2.721035365400814032e-01 1.016600882290745744e+00
2.731440854367467863e-01 1.020036487833181127e+00
2.741846343334121694e-01 9.713465920062418490e-01
2.752251832300775525e-01 7.422243131193013710e-01
2.762657321267429356e-01 5.273849653790136927e-01
2.773062810234083186e-01 7.148539207542370377e-01
2.783468299200737017e-01 6.077112995793143568e-01
2.793873788167390848e-01 4.579515308952650798e-01
2.804279277134044679e-01 7.831997730125337398e-01
2.814684766100698510e-01 1.008939398769022944e+00
2.825090255067352341e-01 9.398214107412634633e-01
2.835495744034006171e-01 7.845831607452389278e-01
2.845901233000660002e-01 7.000039785243963308e-01
2.856306721967313833e-01 8.331345308032709340e-01
2.866712210933967664e-01 6.970833798190660957e-01
2.877117699900621495e-01 6.259313440692118036e-01
2.887523188867275326e-01 6.384993576347390842e-01
2.897928677833929156e-01 6.473767412437538837e-01
2.908334166800582987e-01 3.354003448174225355e-01
2.918739655767236818e-01 3.154111797801313344e-01
2.929145144733890649e-01 2.931797349160341071e-01
2.939550633700544480e-01 4.448726561805145252e-01
2.949956122667198311e-01 5.909234040712334490e-01
2.960361611633852141e-01 8.293400058844788703e-01
2.970767100600505972e-01 3.672059529077031925e-01
2.981172589567159803e-01 1.927084166937298448e-01
2.991578078533813634e-01 3.512906762865846133e-01
3.001983567500468020e-01 4.038671021300181962e-01
3.012389056467121851e-01 6.803111682665914373e-01
3.022794545433775681e-01 5.383642999688014186e-01
3.033200034400429512e-01 6.152265359501569719e-01
3.043605523367083343e-01 4.715843370436800797e-01
3.054011012333737174e-01 4.086542506280608222e-01
3.064416501300391005e-01 5.912507989849551393e-01
3.074821990267044836e-01 6.341160974427815233e-01
3.085227479233698666e-01 5.824066476019460481e-01
3.095632968200352497e-01 3.155883311204910058e-01
3.106038457167006328e-01 2.904726557457877334e-01
3.116443946133660159e-01 3.482719645736835901e-01
3.126849435100313990e-01 5.174959736701403301e-01
3.137254924066967821e-01 4.619218747065048092e-01
3.147660413033621651e-01 4.086334255733525822e-01
3.158065902000275482e-01 2.652763437205365449e-01
3.168471390966929313e-01 3.925750573894539741e-01
3.178876879933583144e-01 1.261880467729135091e-01
3.189282368900236975e-01 2.405866554979922967e-01
3.199687857866890806e-01 4.450232036361754240e-01
3.210093346833544636e-01 5.397090534777682080e-01
3.220498835800198467e-01 4.209247928321957488e-01
3.230904324766852298e-01 2.051887482478420566e-01
3.241309813733506129e-01 8.739866636419080237e-02
3.251715302700159960e-01 7.703005206136026572e-02
3.262120791666813790e-01 3.436418049741547520e-01
3.272526280633467621e-01 5.121343273824230380e-01
3.282931769600121452e-01 3.081507047881792971e-01
3.293337258566775283e-01 9.851752274109060181e-02
3.303742747533429114e-01 2.630600812028340840e-01
3.314148236500082945e-01 4.850871215393581792e-01
3.324553725466736775e-01 5.340511820948741217e-01
3.334959214433390606e-01 2.555482929941703674e-01
3.345364703400044437e-01 1.498606321630262528e-01
3.355770192366698268e-01 3.947668926944380985e-01
3.366175681333352099e-01 3.590555326960114257e-01
3.376581170300005930e-01 3.491780910063404519e-01
3.386986659266659760e-01 1.870204798306254190e-01
3.397392148233313591e-01 2.796229507217518062e-01
3.407797637199967422e-01 3.058233319106449244e-01
3.418203126166621253e-01 4.123860319326553281e-01
3.428608615133275084e-01 2.320460160025774599e-01
3.439014104099928915e-01 3.421680337377424053e-01
3.449419593066582745e-01 3.940818929284048977e-01
3.459825082033236576e-01 1.821518548102964985e-01
3.470230570999890407e-01 1.723267686470713045e-01
3.480636059966544238e-01 3.306801976983706481e-01
3.491041548933198069e-01 3.082152572746856833e-01
3.501447037899851900e-01 2.520279942053633704e-01
3.511852526866505730e-01 0.000000000000000000e+00
3.522258015833159561e-01 5.791010314944955439e-02
3.532663504799813392e-01 1.855782897656759189e-01
3.543068993766467223e-01 2.999934189156441278e-01
3.553474482733121054e-01 2.786859428577983522e-01
3.563879971699774885e-01 2.485030494615365626e-01
3.574285460666428715e-01 2.415271797185631897e-01
3.584690949633082546e-01 3.845281307039947194e-01
3.595096438599736377e-01 3.568238482345087448e-01
3.605501927566390208e-01 3.179787452468545439e-01
3.615907416533044039e-01 3.158455532437010049e-01
3.626312905499697870e-01 4.355392611269301995e-01
3.636718394466351700e-01 3.820277645702851999e-01
3.647123883433005531e-01 1.384264297559454349e-01
3.657529372399659362e-01 2.271443437320641578e-01
3.667934861366313193e-01 1.703203457996487202e-01
3.678340350332967024e-01 3.034136398937903323e-01
3.688745839299620854e-01 3.518301428217469606e-01
3.699151328266274685e-01 2.463143283050790444e-01
3.709556817232928516e-01 2.501768053732043029e-01
3.719962306199582347e-01 1.599889221323920196e-01
3.730367795166236178e-01 2.862448938455344205e-01
3.740773284132890009e-01 3.620882363132054138e-01
3.751178773099543839e-01 4.849697573310152166e-01
3.761584262066197670e-01 1.523221733552588830e-01
3.771989751032851501e-01 3.906246661135526210e-01
3.782395239999505332e-01 4.600971154734700974e-01
3.792800728966159163e-01 3.533292863124977146e-01
3.803206217932812994e-01 4.311775740377186139e-01
3.813611706899466824e-01 4.818782440321811578e-01
3.824017195866120655e-01 2.811166128767261796e-01
3.834422684832774486e-01 2.721831846167539481e-01
3.844828173799428317e-01 3.882850299037947650e-01
3.855233662766082148e-01 4.120059808370193366e-01
3.865639151732735979e-01 4.558434080626092566e-01
3.876044640699389809e-01 2.511604590642768642e-01
3.886450129666043640e-01 6.879507205672652503e-02
3.896855618632697471e-01 2.320696362712624250e-01
3.907261107599351302e-01 1.869813420006707361e-01
3.917666596566005133e-01 2.542466611392910636e-01
3.928072085532658964e-01 4.029272654689783906e-01
3.938477574499312794e-01 1.268789418224010035e-01
3.948883063465966625e-01 2.218396661631665268e-01
3.959288552432620456e-01 2.843812495460902312e-01
3.969694041399274287e-01 5.503858970110186988e-02
3.980099530365928118e-01 1.959634551564626292e-01
3.990505019332581949e-01 3.053740452475075529e-01
4.000910508299235779e-01 3.089224637262653061e-01
4.011315997265889610e-01 2.102478405295755692e-01
4.021721486232543441e-01 1.756534552515169878e-01
4.032126975199197272e-01 2.721270933903952027e-01
4.042532464165851103e-01 2.346555749907324184e-01
4.052937953132504934e-01 2.585444710429953830e-01
4.063343442099158764e-01 1.991718302084528602e-01
4.073748931065812595e-01 9.267207627117102220e-02
4.084154420032466426e-01 1.965588961489288522e-01
4.094559908999120257e-01 1.509393272042629519e-01
4.104965397965774088e-01 3.196703905010203073e-01
4.115370886932427918e-01 3.972761990665212295e-01
4.125776375899081749e-01 3.135438248278035189e-01
4.136181864865735580e-01 2.170134289533862670e-01
4.146587353832389411e-01 9.251312952721590932e-02
4.156992842799043242e-01 2.158932636431636354e-01
4.167398331765697073e-01 3.462817077284690015e-01
4.177803820732350903e-01 2.584812044422086785e-01
4.188209309699004734e-01 1.817292452481176213e-01
4.198614798665658565e-01 2.263332560565736173e-01
4.209020287632312396e-01 2.415133633164607829e-01
4.219425776598966227e-01 2.499843616091723675e-01
4.229831265565620058e-01 3.277741715214901319e-01
4.240236754532273888e-01 3.416870393501518777e-01
4.250642243498927719e-01 3.039246561093200683e-01
4.261047732465581550e-01 3.478351334733496003e-01
4.271453221432235381e-01 3.564803748810660977e-01
4.281858710398889212e-01 3.126119098171358246e-01
4.292264199365543043e-01 4.891527580549031029e-01
4.302669688332196873e-01 4.269837498895725503e-01
4.313075177298850704e-01 3.228475907381742616e-01
4.323480666265504535e-01 2.699771307843263912e-01
4.333886155232158366e-01 2.022184616461792928e-01
4.344291644198812197e-01 3.393437986292724418e-01
