# q (1/Angstrom), Intensity (arb)
2.029070354705860696e-02 2.492352968743891211e+02
2.133125244372399004e-02 2.146440803277170630e+02
2.237180134038937659e-02 1.911424606811791591e+02
2.341235023705475968e-02 1.713008051698472514e+02
2.445289913372014276e-02 1.527063701306217069e+02
2.549344803038552584e-02 1.403235712882751045e+02
2.653399692705091240e-02 1.291151534718380276e+02
2.757454582371629548e-02 1.212802622591618018e+02
2.861509472038167856e-02 1.145982499581880489e+02
2.965564361704706164e-02 1.094801880142770045e+02
3.069619251371244473e-02 1.017674039620463731e+02
3.173674141037782781e-02 9.952424607311517946e+01
3.277729030704321089e-02 9.673033401133379527e+01
3.381783920370859398e-02 9.213082637246277784e+01
3.485838810037397706e-02 9.066690699402766995e+01
3.589893699703936014e-02 9.028925417097903505e+01
3.693948589370474322e-02 8.798616209600248794e+01
3.798003479037012631e-02 8.770418217260917970e+01
3.902058368703550939e-02 8.766943368918190060e+01
4.006113258370089247e-02 8.817472638160478482e+01
4.110168148036627556e-02 8.879574862418071746e+01
4.214223037703165864e-02 8.946810476599831929e+01
4.318277927369704866e-02 9.319513230781424795e+01
4.422332817036243174e-02 9.663613275502100919e+01
4.526387706702781483e-02 1.030970988269208419e+02
4.630442596369319791e-02 1.101020335912042043e+02
4.734497486035858099e-02 1.169574239230641126e+02
4.838552375702396408e-02 1.274315925693951215e+02
4.942607265368934716e-02 1.420386750676343013e+02
5.046662155035473024e-02 1.621116824636857245e+02
5.150717044702011332e-02 1.917174744541300129e+02
5.254771934368549641e-02 2.401855301634305135e+02
5.358826824035087949e-02 3.231787497392195405e+02
5.462881713701626257e-02 4.513382071860445421e+02
5.566936603368164566e-02 6.360563890130459868e+02
5.670991493034702874e-02 8.829058777602289183e+02
5.775046382701241182e-02 1.122795378524338958e+03
5.879101272367779490e-02 1.237647673242175415e+03
5.983156162034317799e-02 1.196618996737956422e+03
6.087211051700856107e-02 1.061556211518892951e+03
6.191265941367394415e-02 8.941697270735768370e+02
6.295320831033933417e-02 7.315198720118002029e+02
6.399375720700471726e-02 5.880174445636363316e+02
6.503430610367010034e-02 4.684669274429739971e+02
6.607485500033548342e-02 3.746855378223889943e+02
6.711540389700086651e-02 2.991230322421805568e+02
6.815595279366624959e-02 2.367590628017343874e+02
6.919650169033163267e-02 1.841164874329099916e+02
7.023705058699701576e-02 1.408291150075129963e+02
7.127759948366239884e-02 1.076512789114274824e+02
7.231814838032778192e-02 8.062850700916133917e+01
7.335869727699316500e-02 6.072188636267494388e+01
7.439924617365854809e-02 4.631106572335838223e+01
7.543979507032393117e-02 3.620805801342352481e+01
7.648034396698931425e-02 2.877758402613974198e+01
7.752089286365469734e-02 2.401013683390144138e+01
7.856144176032008042e-02 2.045726701450865193e+01
7.960199065698546350e-02 1.773364381563337844e+01
8.064253955365084658e-02 1.546313056568352806e+01
8.168308845031622967e-02 1.419593535906484760e+01
8.272363734698161275e-02 1.371241706209869449e+01
8.376418624364699583e-02 1.306970357332566124e+01
8.480473514031239279e-02 1.316101386105084003e+01
8.584528403697777588e-02 1.345517573886200324e+01
8.688583293364315896e-02 1.344083789298172604e+01
8.792638183030854204e-02 1.485263258263184127e+01
8.896693072697392513e-02 1.645481393278114979e+01
9.000747962363930821e-02 1.864054245963107093e+01
9.104802852030469129e-02 2.299808488322684497e+01
9.208857741697007437e-02 2.913894864918781735e+01
9.312912631363545746e-02 3.820704540023587015e+01
9.416967521030084054e-02 4.791409254987190991e+01
9.521022410696622362e-02 5.478887616654705539e+01
9.625077300363160671e-02 5.878535817250592288e+01
9.729132190029698979e-02 5.916917139687898697e+01
9.833187079696237287e-02 5.900200343482480037e+01
9.937241969362775595e-02 5.673726959885633647e+01
1.004129685902931390e-01 5.268933484313181026e+01
1.014535174869585221e-01 5.010900012567676498e+01
1.024940663836239052e-01 4.770036598602138866e+01
1.035346152802892883e-01 4.434456708980783901e+01
1.045751641769546714e-01 4.297388348844068418e+01
1.056157130736200545e-01 4.251668670419437035e+01
1.066562619702854375e-01 4.287950490404465853e+01
1.076968108669508206e-01 4.509276299789466691e+01
1.087373597636162037e-01 4.997033539158899629e+01
1.097779086602815868e-01 5.563486822898670425e+01
1.108184575569469699e-01 6.029938828041230181e+01
1.118590064536123529e-01 6.199163781031158038e+01
1.128995553502777360e-01 5.983534134230822588e+01
1.139401042469431191e-01 5.782191579673879289e+01
1.149806531436085022e-01 5.513393413185607272e+01
1.160212020402738853e-01 5.070033646049459009e+01
1.170617509369392684e-01 4.599414459799261579e+01
1.181022998336046514e-01 4.037017901196913527e+01
1.191428487302700345e-01 3.553518270527480638e+01
1.201833976269354176e-01 3.075758375711104264e+01
1.212239465236008007e-01 2.640272816628242936e+01
1.222644954202661838e-01 2.245430983516690304e+01
1.233050443169315669e-01 1.933795839265521010e+01
1.243455932135969499e-01 1.614498533207853370e+01
1.253861421102623330e-01 1.340010047746116584e+01
1.264266910069277161e-01 1.132078736423485310e+01
1.274672399035930992e-01 9.846539419128866655e+00
1.285077888002584823e-01 8.346613744827010350e+00
1.295483376969238654e-01 6.964999539483244462e+00
1.305888865935892484e-01 6.267407479102509171e+00
1.316294354902546315e-01 5.639935064859770364e+00
1.326699843869200146e-01 4.982889910943349321e+00
1.337105332835853977e-01 4.593074717384673988e+00
1.347510821802507808e-01 4.539544398157936200e+00
1.357916310769161639e-01 3.743636900013171953e+00
1.368321799735815469e-01 3.709982882202801591e+00
1.378727288702469300e-01 3.869526627160354337e+00
1.389132777669123131e-01 3.859554305963129650e+00
1.399538266635776962e-01 4.202382449820468935e+00
1.409943755602430793e-01 4.565444151070565226e+00
1.420349244569084624e-01 4.930729444648335402e+00
1.430754733535738454e-01 5.117902960213314145e+00
1.441160222502392285e-01 6.349424910084728424e+00
1.451565711469046116e-01 8.072959558992550910e+00
1.461971200435699947e-01 9.381708342573517712e+00
1.472376689402353778e-01 1.059387832544680919e+01
1.482782178369007609e-01 1.147779625552785632e+01
1.493187667335661439e-01 1.225533917068265310e+01
1.503593156302315270e-01 1.268020575658076865e+01
1.513998645268969101e-01 1.221520899485322786e+01
1.524404134235622932e-01 1.125303738652340257e+01
1.534809623202276763e-01 1.089189212253342021e+01
1.545215112168930593e-01 1.038130010317370022e+01
1.555620601135584424e-01 9.835313212007150696e+00
1.566026090102238255e-01 9.650226875863637588e+00
1.576431579068892086e-01 8.938218654137472186e+00
1.586837068035545917e-01 8.326863246797017837e+00
1.597242557002199748e-01 8.257941916926625936e+00
1.607648045968853578e-01 8.226645411743852776e+00
1.618053534935507409e-01 8.348566672014712253e+00
1.628459023902161240e-01 8.147921251389178110e+00
1.638864512868815071e-01 8.130815400152300754e+00
1.649270001835468902e-01 7.960171338194587776e+00
1.659675490802122733e-01 7.587750552178821550e+00
1.670080979768776563e-01 6.909940326424560908e+00
1.680486468735430672e-01 6.656990762812114326e+00
1.690891957702084503e-01 6.637222875029426206e+00
1.701297446668738333e-01 6.235973044670103604e+00
1.711702935635392164e-01 5.864363565734876715e+00
1.722108424602045995e-01 5.593045574497281791e+00
1.732513913568699826e-01 5.514508246882542153e+00
1.742919402535353657e-01 5.539297668823170540e+00
1.753324891502007488e-01 5.129649081662858379e+00
1.763730380468661318e-01 4.951067175356655525e+00
1.774135869435315149e-01 4.750224769419915560e+00
1.784541358401968980e-01 4.015945447333926666e+00
1.794946847368622811e-01 3.746652926013908314e+00
1.805352336335276642e-01 3.329679567335450230e+00
1.815757825301930473e-01 3.363851783866245171e+00
1.826163314268584303e-01 3.060383347814706667e+00
1.836568803235238134e-01 2.888421410665927169e+00
1.846974292201891965e-01 2.724446985554806133e+00
1.857379781168545796e-01 2.656014800939267673e+00
1.867785270135199627e-01 2.514826906306755205e+00
1.878190759101853458e-01 2.327798337252765748e+00
1.888596248068507288e-01 2.367607372392711795e+00
1.899001737035161119e-01 2.325668006332346494e+00
1.909407226001814950e-01 1.845049882717884060e+00
1.919812714968468781e-01 1.776732507318669718e+00
1.930218203935122612e-01 1.961624901776055196e+00
1.940623692901776443e-01 2.255194898487584254e+00
1.951029181868430273e-01 2.302858153554197429e+00
1.961434670835084104e-01 2.533328171725550249e+00
1.971840159801737935e-01 2.630404730389528822e+00
1.982245648768391766e-01 2.842754964221182234e+00
1.992651137735045597e-01 2.713842032912424429e+00
2.003056626701699428e-01 2.656503926953103445e+00
2.013462115668353813e-01 2.929029143376727262e+00
2.023867604635007644e-01 2.339162107185980943e+00
2.034273093601661475e-01 2.632459967786093813e+00
2.044678582568315306e-01 2.990632906085551213e+00
2.055084071534969137e-01 2.648780455643279907e+00
2.065489560501622968e-01 2.509602728919411163e+00
2.075895049468276798e-01 2.293537784085831532e+00
2.086300538434930629e-01 2.328679727479158856e+00
2.096706027401584460e-01 2.564467199894256311e+00
2.107111516368238291e-01 2.332396164764535484e+00
2.117517005334892122e-01 2.076462787726260473e+00
2.127922494301545953e-01 2.280400489530368446e+00
2.138327983268199783e-01 2.457867078270901118e+00
2.148733472234853614e-01 2.326820455873626514e+00
2.159138961201507445e-01 2.327658869464766411e+00
2.169544450168161276e-01 2.341590687461636122e+00
2.179949939134815107e-01 2.389283286051433919e+00
2.190355428101468938e-01 2.256336458973990489e+00
2.200760917068122768e-01 2.410917728463491727e+00
2.211166406034776599e-01 2.302358095335481636e+00
2.221571895001430430e-01 2.016076914574490786e+00
2.231977383968084261e-01 2.108803329788546677e+00
2.242382872934738092e-01 2.164367698998226786e+00
2.252788361901391923e-01 1.893695179631411207e+00
2.263193850868045753e-01 1.807406395601041993e+00
2.273599339834699584e-01 1.548869838256521803e+00
2.284004828801353415e-01 1.629463554188294694e+00
2.294410317768007246e-01 1.543340614934518129e+00
2.304815806734661077e-01 1.545342230921363580e+00
2.315221295701314908e-01 1.444640502892745815e+00
2.325626784667968738e-01 1.404128711119888351e+00
2.336032273634622569e-01 1.243188700070906094e+00
2.346437762601276400e-01 9.228707167480330043e-01
2.356843251567930231e-01 1.010583017916076187e+00
2.367248740534584062e-01 1.103096368524788318e+00
2.377654229501237892e-01 1.047484950498741796e+00
2.388059718467891723e-01 1.009792942661416504e+00
2.398465207434545554e-01 1.024531359474519121e+00
2.408870696401199385e-01 1.002201584434924797e+00
2.419276185367853216e-01 1.141697572205895739e+00
2.429681674334507047e-01 1.319604792088622247e+00
2.440087163301160877e-01 1.145037566713273947e+00
2.450492652267814708e-01 7.269509972622927307e-01
2.460898141234468539e-01 9.538918553818760415e-01
2.471303630201122370e-01 9.807613333292017899e-01
2.481709119167776201e-01 9.957317510950929318e-01
2.492114608134430032e-01 1.129780721576857161e+00
2.502520097101083585e-01 1.228048543389373748e+00
2.512925586067737416e-01 1.304110273341379411e+00
2.523331075034391247e-01 9.363830213982247130e-01
2.533736564001045077e-01 8.900158838405687334e-01
2.544142052967698908e-01 1.197810981210075454e+00
2.554547541934352739e-01 1.206071975234493721e+00
2.564953030901006570e-01 1.324837244139029480e+00
2.575358519867660401e-01 1.055828306862000687e+00
2.585764008834314231e-01 1.227301021046169893e+00
2.596169497800968062e-01 1.298588067747623143e+00
2.606574986767621893e-01 1.116246811388769800e+00
2.616980475734275724e-01 1.046304251001661356e+00
2.627385964700929555e-01 1.017734859484239252e+00
2.637791453667583386e-01 8.907698766054359396e-01
2.648196942634237216e-01 8.383594428770031470e-01
2.658602431600891047e-01 1.096300678339801493e+00
2.669007920567544878e-01 9.444962409345656340e-01
2.679413409534198709e-01 1.039194125550995551e+00
2.689818898500852540e-01 1.168888053906982805e+00
2.700224387467506371e-01 1.077429359831807432e+00
2.710629876434160201e-01 9.602902061133349321e-01
2.721035365400814032e-01 7.495026677343972210e-01
2.731440854367467863e-01 7.650953806471818552e-01
2.741846343334121694e-01 8.450452337349823040e-01
2.752251832300775525e-01 7.452896582135863923e-01
2.762657321267429356e-01 7.724839096150191153e-01
2.773062810234083186e-01 7.239328293419688976e-01
2.783468299200737017e-01 5.996215940631977048e-01
2.793873788167390848e-01 6.480379969582834576e-01
2.804279277134044679e-01 8.313656396427120399e-01
2.814684766100698510e-01 7.027755792424699166e-01
2.825090255067352341e-01 7.174835797395395787e-01
2.835495744034006171e-01 5.733261977378241170e-01
2.845901233000660002e-01 7.027324102316470089e-01
2.856306721967313833e-01 8.582356305285010478e-01
2.866712210933967664e-01 8.885385187018606246e-01
2.877117699900621495e-01 5.645767291332113302e-01
2.887523188867275326e-01 8.207208890212918106e-01
2.897928677833929156e-01 1.025002598191562697e+00
2.908334166800582987e-01 8.380104828951537854e-01
2.918739655767236818e-01 6.384088661704758749e-01
2.929145144733890649e-01 4.930253044198664725e-01
2.939550633700544480e-01 4.060289503061298433e-01
2.949956122667198311e-01 4.883441625248288176e-01
2.960361611633852141e-01 5.459298435650943304e-01
2.970767100600505972e-01 8.244153903562541075e-01
2.981172589567159803e-01 9.244635771720908224e-01
2.991578078533813634e-01 7.479934432532608923e-01
3.001983567500468020e-01 6.696080276757108152e-01
3.012389056467121851e-01 9.379870118297013448e-01
3.022794545433775681e-01 8.368939934925272439e-01
3.033200034400429512e-01 7.527203176399801521e-01
3.043605523367083343e-01 9.112047886898189120e-01
3.054011012333737174e-01 6.534984540772690309e-01
3.064416501300391005e-01 1.017156169656150411e+00
3.074821990267044836e-01 6.417179770135916783e-01
3.085227479233698666e-01 5.371595506606787751e-01
3.095632968200352497e-01 5.272728590856274877e-01
3.106038457167006328e-01 4.463161574520206898e-01
3.116443946133660159e-01 3.217872356590554261e-01
3.126849435100313990e-01 6.015437379114061400e-01
3.137254924066967821e-01 4.660895202847221697e-01
3.147660413033621651e-01 6.051434304201670500e-01
3.158065902000275482e-01 6.421454676590094834e-01
3.168471390966929313e-01 4.939150462110717399e-01
3.178876879933583144e-01 6.050984705659026019e-01
3.189282368900236975e-01 2.990677777188039954e-01
3.199687857866890806e-01 3.826075621711488850e-01
3.210093346833544636e-01 4.178154155193070096e-01
3.220498835800198467e-01 7.519686446065421137e-01
3.230904324766852298e-01 5.206436698152216991e-01
3.241309813733506129e-01 3.878001868442417788e-01
3.251715302700159960e-01 5.261563649278642174e-01
3.262120791666813790e-01 3.353262052171004370e-01
3.272526280633467621e-01 4.449991415643452797e-01
3.282931769600121452e-01 5.146298504782684802e-01
3.293337258566775283e-01 3.972056871965214953e-01
3.303742747533429114e-01 4.972198851209235215e-01
3.314148236500082945e-01 2.270104331952289556e-01
3.324553725466736775e-01 3.716692783271007272e-01
3.334959214433390606e-01 5.481466444949951722e-01
3.345364703400044437e-01 1.156418640773217987e-01
3.355770192366698268e-01 0.000000000000000000e+00
3.366175681333352099e-01 1.985064168000079121e-01
3.376581170300005930e-01 3.865154941947146483e-01
3.386986659266659760e-01 4.969287157257049614e-01
3.397392148233313591e-01 5.546323906425953965e-01
3.407797637199967422e-01 5.860940035163970663e-01
3.418203126166621253e-01 5.087411927376273013e-01
3.428608615133275084e-01 4.695728779785142137e-01
3.439014104099928915e-01 2.085439395583605915e-01
3.449419593066582745e-01 3.795459029306655907e-01
3.459825082033236576e-01 5.624050500762578508e-01
3.470230570999890407e-01 6.680915087472314440e-01
3.480636059966544238e-01 5.408769876117283104e-01
3.491041548933198069e-01 4.957949657353886153e-01
3.501447037899851900e-01 3.582649887886404372e-01
3.511852526866505730e-01 1.469939323184661362e-01
3.522258015833159561e-01 3.047990290660180790e-01
3.532663504799813392e-01 6.416913017280094778e-01
3.543068993766467223e-01 5.862325045536174173e-01
3.553474482733121054e-01 3.115160883671350689e-01
3.563879971699774885e-01 2.349961884632385534e-01
3.574285460666428715e-01 2.213965875962742302e-01
3.584690949633082546e-01 2.012533858165816980e-01
3.595096438599736377e-01 4.001290034771045612e-01
3.605501927566390208e-01 2.190514147802851141e-01
3.615907416533044039e-01 1.597667898076302606e-01
3.626312905499697870e-01 2.279122260401678091e-01
3.636718394466351700e-01 3.152051218370246488e-01
3.647123883433005531e-01 2.576221296403247152e-01
3.657529372399659362e-01 3.232481645739966325e-01
3.667934861366313193e-01 2.472518879254899105e-01
3.678340350332967024e-01 3.385503557448714673e-01
3.688745839299620854e-01 4.026669324543057371e-01
3.699151328266274685e-01 3.723023207843425553e-01
3.709556817232928516e-01 3.462204833186959263e-01
3.719962306199582347e-01 4.582101134466789460e-01
3.730367795166236178e-01 5.121200653935105152e-01
3.740773284132890009e-01 4.099627138265766746e-01
3.751178773099543839e-01 3.582187163799304130e-01
3.761584262066197670e-01 4.442616925595714861e-01
3.771989751032851501e-01 4.995662029026490814e-01
3.782395239999505332e-01 5.545129258398766581e-01
3.792800728966159163e-01 5.423121304474598503e-01
3.803206217932812994e-01 3.494432666338909144e-01
3.813611706899466824e-01 4.224364008374408286e-01
3.824017195866120655e-01 4.955072965499347504e-01
3.834422684832774486e-01 4.128331760937591355e-01
3.844828173799428317e-01 4.435527927913724966e-01
3.855233662766082148e-01 3.787645146667557583e-01
3.865639151732735979e-01 3.257492717593066800e-01
3.876044640699389809e-01 2.805250003839354633e-01
3.886450129666043640e-01 3.066722995332895607e-01
3.896855618632697471e-01 3.333583864961298104e-01
3.907261107599351302e-01 2.904112681757453629e-01
3.917666596566005133e-01 4.396176250039225408e-01
3.928072085532658964e-01 5.376941999242923487e-01
3.938477574499312794e-01 3.729735047627649180e-01
3.948883063465966625e-01 2.309638599492771505e-01
3.959288552432620456e-01 3.878699873901219064e-01
3.969694041399274287e-01 3.550642738410942911e-01
3.980099530365928118e-01 2.815522201510489708e-01
3.990505019332581949e-01 3.234030936449627802e-01
4.000910508299235779e-01 3.567300463582405712e-01
4.011315997265889610e-01 3.045832617173260815e-01
4.021721486232543441e-01 4.218691331720449966e-01
4.032126975199197272e-01 1.486975171092765891e-01
4.042532464165851103e-01 6.106366341584390511e-02
4.052937953132504934e-01 3.830800414048241009e-01
4.063343442099158764e-01 4.184511257847525201e-01
4.073748931065812595e-01 3.134744149996286922e-01
4.084154420032466426e-01 3.723041516127238992e-01
4.094559908999120257e-01 5.300672900920773145e-01
4.104965397965774088e-01 3.421608784582730323e-01
4.115370886932427918e-01 3.577264158007302797e-01
4.125776375899081749e-01 3.271218851865889121e-01
4.136181864865735580e-01 2.145706572500394316e-01
4.146587353832389411e-01 1.895659946364958159e-01
4.156992842799043242e-01 2.605968249638337397e-01
4.167398331765697073e-01 2.906850149242288239e-01
4.177803820732350903e-01 2.022550707943935322e-01
4.188209309699004734e-01 2.845654561502577451e-01
4.198614798665658565e-01 3.046475564744781650e-01
4.209020287632312396e-01 3.971132158560521930e-01
4.219425776598966227e-01 5.294485506020194521e-01
4.229831265565620058e-01 3.758049994362160362e-01
4.240236754532273888e-01 2.890097898449752734e-01
4.250642243498927719e-01 3.142418651061547052e-01
4.261047732465581550e-01 4.592490062877807588e-01
4.271453221432235381e-01 3.963115139836510536e-01
4.281858710398889212e-01 3.730696784297400370e-01
4.292264199365543043e-01 3.309113562100911565e-01
4.302669688332196873e-01 2.185250899638475630e-01
4.313075177298850704e-01 3.093294841887477276e-01
4.323480666265504535e-01 2.747421629089927819e-01
4.333886155232158366e-01 3.542438751465191160e-01
4.344291644198812197e-01 4.649012932268838938e-01
