# q (1/Angstrom), Intensity (arb)
2.029070354705860696e-02 2.472466397426479148e+02
2.133125244372399004e-02 2.167884047611865697e+02
2.237180134038937659e-02 1.920556007765143818e+02
2.341235023705475968e-02 1.724658014126791841e+02
2.445289913372014276e-02 1.558867862369001784e+02
2.549344803038552584e-02 1.432958245993384594e+02
2.653399692705091240e-02 1.302813550005854779e+02
2.757454582371629548e-02 1.188210659961643927e+02
2.861509472038167856e-02 1.115335496119748484e+02
2.965564361704706164e-02 1.061572201601248935e+02
3.069619251371244473e-02 1.013437146506219619e+02
3.173674141037782781e-02 9.800298397726510302e+01
3.277729030704321089e-02 9.533554783440752090e+01
3.381783920370859398e-02 9.227843406465026987e+01
3.485838810037397706e-02 9.067509135508495888e+01
3.589893699703936014e-02 8.954950963740836301e+01
3.693948589370474322e-02 8.761248080596750754e+01
3.798003479037012631e-02 8.763720485788796566e+01
3.902058368703550939e-02 8.735180883538333774e+01
4.006113258370089247e-02 8.691792090680239369e+01
4.110168148036627556e-02 8.713424381040181288e+01
4.214223037703165864e-02 8.918575961691854559e+01
4.318277927369704866e-02 9.373448233110917727e+01
4.422332817036243174e-02 9.737355710105143203e+01
4.526387706702781483e-02 1.036724577306551112e+02
4.630442596369319791e-02 1.100075716397692531e+02
4.734497486035858099e-02 1.168668930930214032e+02
4.838552375702396408e-02 1.272665297827586102e+02
4.942607265368934716e-02 1.436822064434211654e+02
5.046662155035473024e-02 1.634109357318478715e+02
5.150717044702011332e-02 1.946943602190096954e+02
5.254771934368549641e-02 2.429528423352938660e+02
5.358826824035087949e-02 3.264248383823409654e+02
5.462881713701626257e-02 4.598050972943466377e+02
5.566936603368164566e-02 6.470713398846261271e+02
5.670991493034702874e-02 8.934708465538172959e+02
5.775046382701241182e-02 1.122413207984323435e+03
5.879101272367779490e-02 1.221008168270058604e+03
5.983156162034317799e-02 1.169194298698030252e+03
6.087211051700856107e-02 1.034448075508602415e+03
6.191265941367394415e-02 8.679586117736536153e+02
6.295320831033933417e-02 7.047060805026849266e+02
6.399375720700471726e-02 5.625161085703537083e+02
6.503430610367010034e-02 4.505776777042923982e+02
6.607485500033548342e-02 3.597749004547906679e+02
6.711540389700086651e-02 2.850707116587544192e+02
6.815595279366624959e-02 2.246277948536425697e+02
6.919650169033163267e-02 1.756539594135612674e+02
7.023705058699701576e-02 1.346875325498174334e+02
7.127759948366239884e-02 1.021020555365170424e+02
7.231814838032778192e-02 7.678204831360604032e+01
7.335869727699316500e-02 5.714315697249981696e+01
7.439924617365854809e-02 4.385350265581511309e+01
7.543979507032393117e-02 3.555102390520123379e+01
7.648034396698931425e-02 2.796048356884828934e+01
7.752089286365469734e-02 2.232478342770582458e+01
7.856144176032008042e-02 1.830305613505223761e+01
7.960199065698546350e-02 1.572705873208598604e+01
8.064253955365084658e-02 1.401166024191777382e+01
8.168308845031622967e-02 1.326513256739048785e+01
8.272363734698161275e-02 1.313685367099579793e+01
8.376418624364699583e-02 1.320418549176558543e+01
8.480473514031239279e-02 1.303798506886289488e+01
8.584528403697777588e-02 1.379669011429677994e+01
8.688583293364315896e-02 1.451557636439225973e+01
8.792638183030854204e-02 1.531157187645922590e+01
8.896693072697392513e-02 1.629263937740218182e+01
9.000747962363930821e-02 1.970060527858566246e+01
9.104802852030469129e-02 2.435675741740677580e+01
9.208857741697007437e-02 3.067801212592926419e+01
9.312912631363545746e-02 3.995555148901010512e+01
9.416967521030084054e-02 5.003063061821480773e+01
9.521022410696622362e-02 5.632708603344654819e+01
9.625077300363160671e-02 5.966883015393716505e+01
9.729132190029698979e-02 6.064455559913830029e+01
9.833187079696237287e-02 5.881797298940239926e+01
9.937241969362775595e-02 5.563294978183773054e+01
1.004129685902931390e-01 5.271861532764372527e+01
1.014535174869585221e-01 4.987318701391570386e+01
1.024940663836239052e-01 4.657306803220590297e+01
1.035346152802892883e-01 4.408182511578142027e+01
1.045751641769546714e-01 4.246915489410721989e+01
1.056157130736200545e-01 4.147029225305569611e+01
1.066562619702854375e-01 4.324078453429462598e+01
1.076968108669508206e-01 4.610590089249629386e+01
1.087373597636162037e-01 5.053868469517274775e+01
1.097779086602815868e-01 5.609087667799053634e+01
1.108184575569469699e-01 5.982722157226684345e+01
1.118590064536123529e-01 5.985249134628284651e+01
1.128995553502777360e-01 5.838973644915913752e+01
1.139401042469431191e-01 5.713372558790896250e+01
1.149806531436085022e-01 5.412404645740689091e+01
1.160212020402738853e-01 4.943250533100000155e+01
1.170617509369392684e-01 4.436807734854222929e+01
1.181022998336046514e-01 3.915315916835199062e+01
1.191428487302700345e-01 3.441400239963318342e+01
1.201833976269354176e-01 2.989432196162557887e+01
1.212239465236008007e-01 2.524898436333263163e+01
1.222644954202661838e-01 2.115086979872965856e+01
1.233050443169315669e-01 1.799198367579450064e+01
1.243455932135969499e-01 1.539898712457943475e+01
1.253861421102623330e-01 1.320469417280398972e+01
1.264266910069277161e-01 1.072155978434754076e+01
1.274672399035930992e-01 8.877613550414231725e+00
1.285077888002584823e-01 8.234965551763785641e+00
1.295483376969238654e-01 6.820302728325550845e+00
1.305888865935892484e-01 5.569448493419947965e+00
1.316294354902546315e-01 5.266484702476709856e+00
1.326699843869200146e-01 4.540574959327294380e+00
1.337105332835853977e-01 4.076275595828811049e+00
1.347510821802507808e-01 3.668576202424915778e+00
1.357916310769161639e-01 3.858650227568993785e+00
1.368321799735815469e-01 3.671816407427854756e+00
1.378727288702469300e-01 3.904802923984590279e+00
1.389132777669123131e-01 4.204902215515922137e+00
1.399538266635776962e-01 3.968724937818244314e+00
1.409943755602430793e-01 4.527494983163919073e+00
1.420349244569084624e-01 5.047252784088705369e+00
1.430754733535738454e-01 5.831977624549189443e+00
1.441160222502392285e-01 6.649072474798991550e+00
1.451565711469046116e-01 8.157331275490214750e+00
1.461971200435699947e-01 9.237734304431285182e+00
1.472376689402353778e-01 1.023629233361894109e+01
1.482782178369007609e-01 1.146471559941536356e+01
1.493187667335661439e-01 1.213267107681954826e+01
1.503593156302315270e-01 1.204889837183954171e+01
1.513998645268969101e-01 1.168684881761683414e+01
1.524404134235622932e-01 1.105878723137220732e+01
1.534809623202276763e-01 1.045296954556800273e+01
1.545215112168930593e-01 1.002589147384941271e+01
1.555620601135584424e-01 9.589368847080002922e+00
1.566026090102238255e-01 9.034288754257609355e+00
1.576431579068892086e-01 8.539764200149392082e+00
1.586837068035545917e-01 8.188632072224130809e+00
1.597242557002199748e-01 7.750586277576431371e+00
1.607648045968853578e-01 7.582492394739077213e+00
1.618053534935507409e-01 7.546269239812644969e+00
1.628459023902161240e-01 7.231656569780504640e+00
1.638864512868815071e-01 7.326636602638274098e+00
1.649270001835468902e-01 7.133142326144287892e+00
1.659675490802122733e-01 6.801552004391140827e+00
1.670080979768776563e-01 6.511459995372163689e+00
1.680486468735430672e-01 5.897634625670889363e+00
1.690891957702084503e-01 6.147242613468975492e+00
1.701297446668738333e-01 5.714842734993730744e+00
1.711702935635392164e-01 5.175570921137918390e+00
1.722108424602045995e-01 4.914299680771932799e+00
1.732513913568699826e-01 4.960332882413652555e+00
1.742919402535353657e-01 4.617730415572601999e+00
1.753324891502007488e-01 4.357972503271504650e+00
1.763730380468661318e-01 3.935303279375503394e+00
1.774135869435315149e-01 3.551947228525747846e+00
1.784541358401968980e-01 3.323978466840600277e+00
1.794946847368622811e-01 3.069203197874458056e+00
1.805352336335276642e-01 2.950976392049589947e+00
1.815757825301930473e-01 3.095104878493707190e+00
1.826163314268584303e-01 2.807077678479082294e+00
1.836568803235238134e-01 3.077757822248329944e+00
1.846974292201891965e-01 2.762249871073031215e+00
1.857379781168545796e-01 2.455767080280160997e+00
1.867785270135199627e-01 2.294916090896215621e+00
1.878190759101853458e-01 2.283305274710833999e+00
1.888596248068507288e-01 2.060635861152100290e+00
1.899001737035161119e-01 2.111551252228473174e+00
1.909407226001814950e-01 2.328909985345418932e+00
1.919812714968468781e-01 2.429728333292811016e+00
1.930218203935122612e-01 2.292657940823097817e+00
1.940623692901776443e-01 2.117846363529519493e+00
1.951029181868430273e-01 2.375902750894173465e+00
1.961434670835084104e-01 2.715716563216997059e+00
1.971840159801737935e-01 2.676012910093341191e+00
1.982245648768391766e-01 2.761223714981930755e+00
1.992651137735045597e-01 2.536949464415862110e+00
2.003056626701699428e-01 2.832266281273497555e+00
2.013462115668353813e-01 2.976590606546118067e+00
2.023867604635007644e-01 2.617116504354701334e+00
2.034273093601661475e-01 2.537456455886335505e+00
2.044678582568315306e-01 2.576542386782968208e+00
2.055084071534969137e-01 2.700401892464903142e+00
2.065489560501622968e-01 2.797118868846048656e+00
2.075895049468276798e-01 2.882649093104951987e+00
2.086300538434930629e-01 3.017091945770573602e+00
2.096706027401584460e-01 3.029218453019190349e+00
2.107111516368238291e-01 2.788902584389706618e+00
2.117517005334892122e-01 2.239884607695980634e+00
2.127922494301545953e-01 2.099778179642090237e+00
2.138327983268199783e-01 2.196279323700885300e+00
2.148733472234853614e-01 1.973042740786350890e+00
2.159138961201507445e-01 2.006730126679499904e+00
2.169544450168161276e-01 2.020960165923320062e+00
2.179949939134815107e-01 1.890858373971465056e+00
2.190355428101468938e-01 1.968256158716506832e+00
2.200760917068122768e-01 2.183301753514363952e+00
2.211166406034776599e-01 2.124444113682084634e+00
2.221571895001430430e-01 1.892735663771109245e+00
2.231977383968084261e-01 2.093042679773748915e+00
2.242382872934738092e-01 1.846527996247107950e+00
2.252788361901391923e-01 2.165453736882106739e+00
2.263193850868045753e-01 2.202178467365524028e+00
2.273599339834699584e-01 1.907283269116945235e+00
2.284004828801353415e-01 1.570720963048838570e+00
2.294410317768007246e-01 1.485955473755684153e+00
2.304815806734661077e-01 1.443057748474092961e+00
2.315221295701314908e-01 1.212895912758963135e+00
2.325626784667968738e-01 1.037779395918573044e+00
2.336032273634622569e-01 8.574031936920079033e-01
2.346437762601276400e-01 8.112893150864053382e-01
2.356843251567930231e-01 1.030724110263633975e+00
2.367248740534584062e-01 1.271570982585899401e+00
2.377654229501237892e-01 1.143494666808326343e+00
2.388059718467891723e-01 8.424079513579272316e-01
2.398465207434545554e-01 8.981500821024752668e-01
2.408870696401199385e-01 8.668322357068944939e-01
2.419276185367853216e-01 6.941487078097630103e-01
2.429681674334507047e-01 1.017395386323073581e+00
2.440087163301160877e-01 1.048026756544590654e+00
2.450492652267814708e-01 7.416153469336101978e-01
2.460898141234468539e-01 6.725150078232324802e-01
2.471303630201122370e-01 1.006040013886448037e+00
2.481709119167776201e-01 1.054857676348593287e+00
2.492114608134430032e-01 9.469556200666175982e-01
2.502520097101083585e-01 1.053454734502619061e+00
2.512925586067737416e-01 1.176225970017835465e+00
2.523331075034391247e-01 1.163439400659896705e+00
2.533736564001045077e-01 1.096490805391347578e+00
2.544142052967698908e-01 9.841114308989062920e-01
2.554547541934352739e-01 7.998420779128636582e-01
2.564953030901006570e-01 8.915864694183248673e-01
2.575358519867660401e-01 7.875987501776720023e-01
2.585764008834314231e-01 1.142730190536397572e+00
2.596169497800968062e-01 1.561498543157977537e+00
2.606574986767621893e-01 1.332874502305624986e+00
2.616980475734275724e-01 1.119261685889085811e+00
2.627385964700929555e-01 1.189251531505995274e+00
2.637791453667583386e-01 8.794647212096151634e-01
2.648196942634237216e-01 7.533046057256029826e-01
2.658602431600891047e-01 7.504011009719633307e-01
2.669007920567544878e-01 6.134217162639217236e-01
2.679413409534198709e-01 7.718644765800064533e-01
2.689818898500852540e-01 9.875751075896239684e-01
2.700224387467506371e-01 1.076239687582052795e+00
2.710629876434160201e-01 1.149177877221486455e+00
2.721035365400814032e-01 1.061748967620083306e+00
2.731440854367467863e-01 9.300039055194631032e-01
2.741846343334121694e-01 8.203262516347109568e-01
2.752251832300775525e-01 4.843017468343902010e-01
2.762657321267429356e-01 7.556089592755803608e-01
2.773062810234083186e-01 6.831474288367651582e-01
2.783468299200737017e-01 8.079096434598369569e-01
2.793873788167390848e-01 9.103945875471914917e-01
2.804279277134044679e-01 6.738364130465406276e-01
2.814684766100698510e-01 8.112248406516364696e-01
2.825090255067352341e-01 9.091053666085286977e-01
2.835495744034006171e-01 7.696145057433945169e-01
2.845901233000660002e-01 7.735458446940306487e-01
2.856306721967313833e-01 4.708382177500638477e-01
2.866712210933967664e-01 4.627504459260158853e-01
2.877117699900621495e-01 6.457134578224170696e-01
2.887523188867275326e-01 7.937766442009284162e-01
2.897928677833929156e-01 7.735364176660013413e-01
2.908334166800582987e-01 6.342855378447715964e-01
2.918739655767236818e-01 4.405791977661230874e-01
2.929145144733890649e-01 3.079612718096278456e-01
2.939550633700544480e-01 3.865692158482154639e-01
2.949956122667198311e-01 6.621106322396954624e-01
2.960361611633852141e-01 6.703330593162171169e-01
2.970767100600505972e-01 8.060023948578880493e-01
2.981172589567159803e-01 6.493353169151561133e-01
2.991578078533813634e-01 5.396746823804576820e-01
3.001983567500468020e-01 6.511886797932895377e-01
3.012389056467121851e-01 8.364266107721363142e-01
3.022794545433775681e-01 7.239636826204076669e-01
3.033200034400429512e-01 5.205389561173774382e-01
3.043605523367083343e-01 3.813231380914920976e-01
3.054011012333737174e-01 5.610704132219126450e-01
3.064416501300391005e-01 6.045835427551189412e-01
3.074821990267044836e-01 4.203249814885232638e-01
3.085227479233698666e-01 3.530809720765226700e-01
3.095632968200352497e-01 4.691715150959119285e-01
3.106038457167006328e-01 3.330863536734653962e-01
3.116443946133660159e-01 5.194043450762961811e-01
3.126849435100313990e-01 6.791224237340145464e-01
3.137254924066967821e-01 5.791409230267809960e-01
3.147660413033621651e-01 5.941255142542054557e-01
3.158065902000275482e-01 7.493644553009630727e-01
3.168471390966929313e-01 6.085912011997578475e-01
3.178876879933583144e-01 4.801815684953361085e-01
3.189282368900236975e-01 4.051454763146828952e-01
3.199687857866890806e-01 4.191201176810572804e-01
3.210093346833544636e-01 1.476942330575532480e-01
3.220498835800198467e-01 4.018080624312858617e-01
3.230904324766852298e-01 6.239809369583113607e-01
3.241309813733506129e-01 4.622608774746517213e-01
3.251715302700159960e-01 5.650575610407955196e-01
3.262120791666813790e-01 7.373707571798000515e-01
3.272526280633467621e-01 4.435283802174865286e-01
3.282931769600121452e-01 4.899377473657509086e-01
3.293337258566775283e-01 4.381502246332438233e-01
3.303742747533429114e-01 3.981286309263651901e-01
3.314148236500082945e-01 4.082645171084635649e-01
3.324553725466736775e-01 3.358673939744818426e-01
3.334959214433390606e-01 4.643874165822126088e-01
3.345364703400044437e-01 4.539050990282866849e-01
3.355770192366698268e-01 3.547472499885628849e-01
3.366175681333352099e-01 3.988005088602939452e-01
3.376581170300005930e-01 3.988350907621693864e-01
3.386986659266659760e-01 3.069259396316041943e-01
3.397392148233313591e-01 5.843659496591371294e-01
3.407797637199967422e-01 5.339422077018696200e-01
3.418203126166621253e-01 3.683031193785666346e-01
3.428608615133275084e-01 3.454557384968239830e-01
3.439014104099928915e-01 3.504530935777943057e-01
3.449419593066582745e-01 4.213707910189725681e-01
3.459825082033236576e-01 2.148155740181643125e-01
3.470230570999890407e-01 3.345551654022891341e-01
3.480636059966544238e-01 3.764416602526239330e-01
3.491041548933198069e-01 4.417122028838775805e-01
3.501447037899851900e-01 4.856027442670303174e-01
3.511852526866505730e-01 3.443048508517740913e-01
3.522258015833159561e-01 3.104380430512101441e-01
3.532663504799813392e-01 2.294549434116390785e-01
3.543068993766467223e-01 2.905646331704119234e-01
3.553474482733121054e-01 3.333447942652583151e-01
3.563879971699774885e-01 4.945779872076450090e-01
3.574285460666428715e-01 6.025618103755157051e-01
3.584690949633082546e-01 6.343335139977739345e-01
3.595096438599736377e-01 3.728646125570875824e-01
3.605501927566390208e-01 3.802946314717985388e-01
3.615907416533044039e-01 3.228772675832907169e-01
3.626312905499697870e-01 1.144513807374032410e-01
3.636718394466351700e-01 3.038126858385048479e-01
3.647123883433005531e-01 2.143215785760368419e-01
3.657529372399659362e-01 4.011858266086676394e-01
3.667934861366313193e-01 5.239834766177828840e-01
3.678340350332967024e-01 5.198252077093954426e-01
3.688745839299620854e-01 4.428223696641246931e-01
3.699151328266274685e-01 4.782828783250430149e-01
3.709556817232928516e-01 4.747305941153783237e-01
3.719962306199582347e-01 3.598376957027831224e-01
3.730367795166236178e-01 1.395472707918870015e-01
3.740773284132890009e-01 0.000000000000000000e+00
3.751178773099543839e-01 1.872226765301334694e-01
3.761584262066197670e-01 2.687888792654611336e-01
3.771989751032851501e-01 2.753487183607425948e-01
3.782395239999505332e-01 4.923089559863846887e-01
3.792800728966159163e-01 4.695824041881522248e-01
3.803206217932812994e-01 5.410902529689174401e-01
3.813611706899466824e-01 4.879429371765802159e-01
3.824017195866120655e-01 4.505218318337540495e-01
3.834422684832774486e-01 1.489647626895305166e-01
3.844828173799428317e-01 3.717225862480155740e-01
3.855233662766082148e-01 4.355071892392530231e-01
3.865639151732735979e-01 2.531954477977187423e-01
3.876044640699389809e-01 3.005802701842874569e-01
3.886450129666043640e-01 4.573443004541637436e-01
3.896855618632697471e-01 4.924118171392031229e-01
3.907261107599351302e-01 5.020735461455636539e-01
3.917666596566005133e-01 5.734410868297850072e-01
3.928072085532658964e-01 3.705893340319654783e-01
3.938477574499312794e-01 3.691762574321408863e-01
3.948883063465966625e-01 4.223840070680289216e-01
3.959288552432620456e-01 3.099288096510228740e-01
3.969694041399274287e-01 4.612076655305372697e-01
3.980099530365928118e-01 5.233660991411035468e-01
3.990505019332581949e-01 3.953716923284282814e-01
4.000910508299235779e-01 3.204113239918058298e-01
4.011315997265889610e-01 1.213668767981594954e-01
4.021721486232543441e-01 1.587799323381027250e-01
4.032126975199197272e-01 1.899734484088675401e-01
4.042532464165851103e-01 5.012149416458697715e-01
4.052937953132504934e-01 5.302490850014400792e-01
4.063343442099158764e-01 5.157393017080593722e-01
4.073748931065812595e-01 5.250936669449934868e-01
4.084154420032466426e-01 3.264926996165193884e-01
4.094559908999120257e-01 2.482328799878352754e-01
4.104965397965774088e-01 4.535676154147871841e-01
4.115370886932427918e-01 4.560351764187728918e-01
4.125776375899081749e-01 3.737930927972143991e-01
4.136181864865735580e-01 2.659157600738488725e-01
4.146587353832389411e-01 2.748767810355090546e-01
4.156992842799043242e-01 3.941491881849579215e-01
4.167398331765697073e-01 3.374055121215739916e-01
4.177803820732350903e-01 5.023763611693894404e-01
4.188209309699004734e-01 4.960886233370871423e-01
4.198614798665658565e-01 4.647911154021500124e-01
4.209020287632312396e-01 4.346750665218230836e-01
4.219425776598966227e-01 4.253703543015383559e-01
4.229831265565620058e-01 2.980741473013921450e-01
4.240236754532273888e-01 2.064753068473947906e-01
4.250642243498927719e-01 2.461995887879417921e-01
4.261047732465581550e-01 2.229542045751031765e-01
4.271453221432235381e-01 4.435185461513135863e-01
4.281858710398889212e-01 4.341387976877832955e-01
4.292264199365543043e-01 4.259742834897828345e-01
4.302669688332196873e-01 4.428316183529581451e-01
4.313075177298850704e-01 5.990646538487816031e-01
4.323480666265504535e-01 4.066550073734731541e-01
4.333886155232158366e-01 3.941004461597898967e-01
4.344291644198812197e-01 4.229245153339462604e-01
