# q (1/Angstrom), Intensity (arb)
2.029070354705860696e-02 5.847135552365028843e+01
2.133125244372399004e-02 5.037300721863013564e+01
2.237180134038937659e-02 4.632105775454411400e+01
2.341235023705475968e-02 4.026663112811877454e+01
2.445289913372014276e-02 3.435077964305378373e+01
2.549344803038552584e-02 3.102912957421487761e+01
2.653399692705091240e-02 2.804175029134867714e+01
2.757454582371629548e-02 2.562639901535138165e+01
2.861509472038167856e-02 2.344818425431876108e+01
2.965564361704706164e-02 2.222259625797161675e+01
3.069619251371244473e-02 2.193347953254657057e+01
3.173674141037782781e-02 2.041280343862069913e+01
3.277729030704321089e-02 1.842254821360356232e+01
3.381783920370859398e-02 1.747005767740193249e+01
3.485838810037397706e-02 1.737177339632697937e+01
3.589893699703936014e-02 1.747370748392145856e+01
3.693948589370474322e-02 1.685797321555956074e+01
3.798003479037012631e-02 1.699271318957710974e+01
3.902058368703550939e-02 1.638751704972482770e+01
4.006113258370089247e-02 1.656280704613227073e+01
4.110168148036627556e-02 1.578640399905400216e+01
4.214223037703165864e-02 1.504108565836433797e+01
4.318277927369704866e-02 1.480948971875906750e+01
4.422332817036243174e-02 1.469081939735017528e+01
4.526387706702781483e-02 1.372244677086677456e+01
4.630442596369319791e-02 1.288282349463209187e+01
4.734497486035858099e-02 1.272956774756721643e+01
4.838552375702396408e-02 1.314677197346892257e+01
4.942607265368934716e-02 1.291459989715486500e+01
5.046662155035473024e-02 1.293243302820164331e+01
5.150717044702011332e-02 1.301657333959420981e+01
5.254771934368549641e-02 1.252485077887343579e+01
5.358826824035087949e-02 1.358815959033184129e+01
5.462881713701626257e-02 1.427951790308139124e+01
5.566936603368164566e-02 1.504198058878582600e+01
5.670991493034702874e-02 1.520100476473449902e+01
5.775046382701241182e-02 1.572320861883319054e+01
5.879101272367779490e-02 1.708088263504272675e+01
5.983156162034317799e-02 1.844246270156097012e+01
6.087211051700856107e-02 1.923374610019108388e+01
6.191265941367394415e-02 2.024960598400096501e+01
6.295320831033933417e-02 2.231657775695514800e+01
6.399375720700471726e-02 2.406735353098573427e+01
6.503430610367010034e-02 2.584409349061090211e+01
6.607485500033548342e-02 2.876150818707696999e+01
6.711540389700086651e-02 3.113000296885135043e+01
6.815595279366624959e-02 3.327561772958737407e+01
6.919650169033163267e-02 3.546450820458994002e+01
7.023705058699701576e-02 3.611082530086346054e+01
7.127759948366239884e-02 3.774355873943271433e+01
7.231814838032778192e-02 4.081427368962714297e+01
7.335869727699316500e-02 4.401299583473164034e+01
7.439924617365854809e-02 5.165524874601479866e+01
7.543979507032393117e-02 7.484228274329433361e+01
7.648034396698931425e-02 1.312353633006067639e+02
7.752089286365469734e-02 2.197933536409403814e+02
7.856144176032008042e-02 3.058989464842443340e+02
7.960199065698546350e-02 4.226061903151438059e+02
8.064253955365084658e-02 7.192779490716314967e+02
8.168308845031622967e-02 1.189675041722489141e+03
8.272363734698161275e-02 1.300607664680998596e+03
8.376418624364699583e-02 8.550350916800651930e+02
8.480473514031239279e-02 4.530874177152604716e+02
8.584528403697777588e-02 2.981959458429682286e+02
8.688583293364315896e-02 2.365338380072726636e+02
8.792638183030854204e-02 1.958279420415873915e+02
8.896693072697392513e-02 1.659300710968653618e+02
9.000747962363930821e-02 1.434869693986817083e+02
9.104802852030469129e-02 1.284995584035550280e+02
9.208857741697007437e-02 1.248193920052461294e+02
9.312912631363545746e-02 1.388816680993423347e+02
9.416967521030084054e-02 1.642011130846774449e+02
9.521022410696622362e-02 1.612208516950832973e+02
9.625077300363160671e-02 1.101434557949799853e+02
9.729132190029698979e-02 5.604047509961924334e+01
9.833187079696237287e-02 2.919598725524166838e+01
9.937241969362775595e-02 1.847749682492729306e+01
1.004129685902931390e-01 1.298187244314848954e+01
1.014535174869585221e-01 9.680343420832983270e+00
1.024940663836239052e-01 7.993686329930376644e+00
1.035346152802892883e-01 6.397549995184078853e+00
1.045751641769546714e-01 5.000591178265935355e+00
1.056157130736200545e-01 4.556139904691349329e+00
1.066562619702854375e-01 3.828187955584404278e+00
1.076968108669508206e-01 3.237709926463175236e+00
1.087373597636162037e-01 3.229582832019936234e+00
1.097779086602815868e-01 3.179872033645331442e+00
1.108184575569469699e-01 2.811909237318637622e+00
1.118590064536123529e-01 2.097427489062532402e+00
1.128995553502777360e-01 2.059735161930376535e+00
1.139401042469431191e-01 2.018119538900414511e+00
1.149806531436085022e-01 1.917901455701915836e+00
1.160212020402738853e-01 2.330317308096084616e+00
1.170617509369392684e-01 2.310775086487979024e+00
1.181022998336046514e-01 2.104916734595505545e+00
1.191428487302700345e-01 2.174009531017482288e+00
1.201833976269354176e-01 2.258560543269460652e+00
1.212239465236008007e-01 2.400487646826327648e+00
1.222644954202661838e-01 2.686755345678768947e+00
1.233050443169315669e-01 2.621697199214018781e+00
1.243455932135969499e-01 3.002767280813721129e+00
1.253861421102623330e-01 2.898309466809799062e+00
1.264266910069277161e-01 3.143379097872418981e+00
1.274672399035930992e-01 3.477889502024090973e+00
1.285077888002584823e-01 4.256171773305553074e+00
1.295483376969238654e-01 4.641835775520128493e+00
1.305888865935892484e-01 6.140537143663102881e+00
1.316294354902546315e-01 1.123853246035350395e+01
1.326699843869200146e-01 2.090797789222106218e+01
1.337105332835853977e-01 3.333968678636952632e+01
1.347510821802507808e-01 3.639876947813974084e+01
1.357916310769161639e-01 2.685163793604420590e+01
1.368321799735815469e-01 1.530703416029806618e+01
1.378727288702469300e-01 9.305180150595028010e+00
1.389132777669123131e-01 7.521193534813505721e+00
1.399538266635776962e-01 7.199610144926467115e+00
1.409943755602430793e-01 6.749484126405583595e+00
1.420349244569084624e-01 6.610538592590451401e+00
1.430754733535738454e-01 6.686136687988103233e+00
1.441160222502392285e-01 6.653276032867850631e+00
1.451565711469046116e-01 6.564746335195422944e+00
1.461971200435699947e-01 6.766110459238433350e+00
1.472376689402353778e-01 6.709248076053150101e+00
1.482782178369007609e-01 7.049204441235794150e+00
1.493187667335661439e-01 7.209828247665356571e+00
1.503593156302315270e-01 7.498215880202103278e+00
1.513998645268969101e-01 8.181421530920381713e+00
1.524404134235622932e-01 9.684655704544496757e+00
1.534809623202276763e-01 1.354337967269293586e+01
1.545215112168930593e-01 2.214221426736595078e+01
1.555620601135584424e-01 3.942734280269534963e+01
1.566026090102238255e-01 6.187129365976744566e+01
1.576431579068892086e-01 7.349249550925250674e+01
1.586837068035545917e-01 6.045044996012036620e+01
1.597242557002199748e-01 3.778398185327101544e+01
1.607648045968853578e-01 2.311097235639103431e+01
1.618053534935507409e-01 1.808650004492952590e+01
1.628459023902161240e-01 1.791202878933973963e+01
1.638864512868815071e-01 1.993244603500425072e+01
1.649270001835468902e-01 1.890131404771098289e+01
1.659675490802122733e-01 1.320175388422113727e+01
1.670080979768776563e-01 7.768313325782653322e+00
1.680486468735430672e-01 4.709046556588496912e+00
1.690891957702084503e-01 3.682496378265941672e+00
1.701297446668738333e-01 2.898809497358978859e+00
1.711702935635392164e-01 2.204953656468184420e+00
1.722108424602045995e-01 1.758581536514629562e+00
1.732513913568699826e-01 1.410060841871693782e+00
1.742919402535353657e-01 1.610031247401348509e+00
1.753324891502007488e-01 1.601754154492628146e+00
1.763730380468661318e-01 1.297766532889117030e+00
1.774135869435315149e-01 1.271626385698912287e+00
1.784541358401968980e-01 1.203327430230707762e+00
1.794946847368622811e-01 1.543433477271619836e+00
1.805352336335276642e-01 1.275813129909050048e+00
1.815757825301930473e-01 8.341919626089868700e-01
1.826163314268584303e-01 9.644695382646091275e-01
1.836568803235238134e-01 9.404796478497594592e-01
1.846974292201891965e-01 9.435619235487706646e-01
1.857379781168545796e-01 1.044955023929368565e+00
1.867785270135199627e-01 1.259075102674223956e+00
1.878190759101853458e-01 1.047311380107991852e+00
1.888596248068507288e-01 9.014335798272412603e-01
1.899001737035161119e-01 9.356542301448520504e-01
1.909407226001814950e-01 1.087855786773769040e+00
1.919812714968468781e-01 1.464594842302641808e+00
1.930218203935122612e-01 1.185019317845522835e+00
1.940623692901776443e-01 8.617004172433659903e-01
1.951029181868430273e-01 9.845502415520321904e-01
1.961434670835084104e-01 6.519962938843235634e-01
1.971840159801737935e-01 7.493289812091923352e-01
1.982245648768391766e-01 7.558446288087843357e-01
1.992651137735045597e-01 6.154039331231189180e-01
2.003056626701699428e-01 4.837552427652553888e-01
2.013462115668353813e-01 6.174715265613741622e-01
2.023867604635007644e-01 7.673705956863265953e-01
2.034273093601661475e-01 7.427145878764136455e-01
2.044678582568315306e-01 7.519148653488905154e-01
2.055084071534969137e-01 6.481794995390153247e-01
2.065489560501622968e-01 1.218268354392954222e+00
2.075895049468276798e-01 1.643720406953626423e+00
2.086300538434930629e-01 1.968449651144350554e+00
2.096706027401584460e-01 2.532311242280950836e+00
2.107111516368238291e-01 2.195673388466286013e+00
2.117517005334892122e-01 2.643178124228331427e+00
2.127922494301545953e-01 2.473625869656338239e+00
2.138327983268199783e-01 2.026248728022249423e+00
2.148733472234853614e-01 1.389056073033742678e+00
2.159138961201507445e-01 1.097581364753501987e+00
2.169544450168161276e-01 1.032546005630042174e+00
2.179949939134815107e-01 1.113134607581898194e+00
2.190355428101468938e-01 1.173787135873261889e+00
2.200760917068122768e-01 1.033133814447896981e+00
2.211166406034776599e-01 1.000919375191315908e+00
2.221571895001430430e-01 9.208695486283247078e-01
2.231977383968084261e-01 9.137183371535755327e-01
2.242382872934738092e-01 1.046349760487711222e+00
2.252788361901391923e-01 1.052685194791507683e+00
2.263193850868045753e-01 1.189893154240607487e+00
2.273599339834699584e-01 1.436683990014184786e+00
2.284004828801353415e-01 1.680782839471746115e+00
2.294410317768007246e-01 2.210585354736274155e+00
2.304815806734661077e-01 2.991394678971456500e+00
2.315221295701314908e-01 3.758040575691875773e+00
2.325626784667968738e-01 4.165099061622210996e+00
2.336032273634622569e-01 3.848038143003464029e+00
2.346437762601276400e-01 3.323873767779684130e+00
2.356843251567930231e-01 2.767745132132443331e+00
2.367248740534584062e-01 2.033305663880554448e+00
2.377654229501237892e-01 1.755014390194645557e+00
2.388059718467891723e-01 1.735195588870197980e+00
2.398465207434545554e-01 1.489882839854523411e+00
2.408870696401199385e-01 1.451200726596056256e+00
2.419276185367853216e-01 1.767207597600016555e+00
2.429681674334507047e-01 2.173964531726650051e+00
2.440087163301160877e-01 2.442728238528069085e+00
2.450492652267814708e-01 3.230157662659497220e+00
2.460898141234468539e-01 3.876522513545328508e+00
2.471303630201122370e-01 4.153693713902509188e+00
2.481709119167776201e-01 3.602652717210368394e+00
2.492114608134430032e-01 2.815150391461560986e+00
2.502520097101083585e-01 1.607129956628128298e+00
2.512925586067737416e-01 9.120326473309781079e-01
2.523331075034391247e-01 7.294483052196341077e-01
2.533736564001045077e-01 6.447690202285514260e-01
2.544142052967698908e-01 5.763417847330174482e-01
2.554547541934352739e-01 6.829107700671173120e-01
2.564953030901006570e-01 7.448452389379198735e-01
2.575358519867660401e-01 7.969245732056080556e-01
2.585764008834314231e-01 8.587114483502418238e-01
2.596169497800968062e-01 8.750436305592828035e-01
2.606574986767621893e-01 7.067961863510028309e-01
2.616980475734275724e-01 3.815397940166924684e-01
2.627385964700929555e-01 3.638692887793268937e-01
2.637791453667583386e-01 5.878975825199397320e-01
2.648196942634237216e-01 6.674482583817820114e-01
2.658602431600891047e-01 6.361440135497957726e-01
2.669007920567544878e-01 4.560198978370593181e-01
2.679413409534198709e-01 5.397424532060490776e-01
2.689818898500852540e-01 6.619834541407385586e-01
2.700224387467506371e-01 6.945797024318522972e-01
2.710629876434160201e-01 3.368144661991614441e-01
2.721035365400814032e-01 1.862711893950823594e-01
2.731440854367467863e-01 3.559610847181176041e-01
2.741846343334121694e-01 4.579597363035503577e-01
2.752251832300775525e-01 6.228437320982038727e-02
2.762657321267429356e-01 3.017233866657313968e-01
2.773062810234083186e-01 3.243796357183654777e-01
2.783468299200737017e-01 0.000000000000000000e+00
2.793873788167390848e-01 1.820153906126371623e-01
2.804279277134044679e-01 2.809693209055197372e-01
2.814684766100698510e-01 2.684536705196016726e-01
2.825090255067352341e-01 1.916580611036202697e-01
2.835495744034006171e-01 2.148624392062963295e-01
2.845901233000660002e-01 2.620853766545643282e-01
2.856306721967313833e-01 3.705163373946227523e-01
2.866712210933967664e-01 4.793186670624365320e-01
2.877117699900621495e-01 5.440187206482107740e-01
2.887523188867275326e-01 5.099688058101676802e-01
2.897928677833929156e-01 2.484536055577351021e-01
2.908334166800582987e-01 3.064304418760102067e-01
2.918739655767236818e-01 3.590664592633032726e-01
2.929145144733890649e-01 2.911903086006368824e-01
2.939550633700544480e-01 3.998594390345111549e-01
2.949956122667198311e-01 4.742332270355866797e-01
2.960361611633852141e-01 4.173132076043515326e-01
2.970767100600505972e-01 5.995875085156683326e-01
2.981172589567159803e-01 7.664655328750242802e-01
2.991578078533813634e-01 7.638598774835543281e-01
3.001983567500468020e-01 5.503150332027537672e-01
3.012389056467121851e-01 7.059046143343437052e-01
3.022794545433775681e-01 6.827925202285527462e-01
3.033200034400429512e-01 6.132830429649089865e-01
3.043605523367083343e-01 9.272173021698328910e-01
3.054011012333737174e-01 8.217315537666962655e-01
3.064416501300391005e-01 8.881446235869816519e-01
3.074821990267044836e-01 8.281166964547495013e-01
3.085227479233698666e-01 8.228901034254114677e-01
3.095632968200352497e-01 8.644947772348459125e-01
3.106038457167006328e-01 9.161109381209193714e-01
3.116443946133660159e-01 1.256066119479424259e+00
3.126849435100313990e-01 1.201589062846274203e+00
3.137254924066967821e-01 1.015944346551254540e+00
3.147660413033621651e-01 8.964161175174965024e-01
3.158065902000275482e-01 8.783566749184110733e-01
3.168471390966929313e-01 9.690102150733643782e-01
3.178876879933583144e-01 9.386975736719236352e-01
3.189282368900236975e-01 7.783383496171758509e-01
3.199687857866890806e-01 6.832750703100920475e-01
3.210093346833544636e-01 3.940400639591885579e-01
3.220498835800198467e-01 4.702451431963972084e-01
3.230904324766852298e-01 6.901296297378536337e-01
3.241309813733506129e-01 7.320921673979441380e-01
3.251715302700159960e-01 5.168617833196549327e-01
3.262120791666813790e-01 5.216606734716791038e-01
3.272526280633467621e-01 5.118488311101430099e-01
3.282931769600121452e-01 6.068305579525379301e-01
3.293337258566775283e-01 6.539086569029137763e-01
3.303742747533429114e-01 4.979153051356561832e-01
3.314148236500082945e-01 3.313921915257367345e-01
3.324553725466736775e-01 4.331227731502167444e-01
3.334959214433390606e-01 5.335797258871934901e-01
3.345364703400044437e-01 5.846492245320931147e-01
3.355770192366698268e-01 8.008658368201189148e-01
3.366175681333352099e-01 8.910436847076361744e-01
3.376581170300005930e-01 7.988834349250488742e-01
3.386986659266659760e-01 8.640413750119009251e-01
3.397392148233313591e-01 1.083241036575056881e+00
3.407797637199967422e-01 1.052394392573017257e+00
3.418203126166621253e-01 1.072619266292210938e+00
3.428608615133275084e-01 6.855791554382300035e-01
3.439014104099928915e-01 6.242685506414566987e-01
3.449419593066582745e-01 5.190650581161371235e-01
3.459825082033236576e-01 4.362226631105059482e-01
3.470230570999890407e-01 5.522739440191095639e-01
3.480636059966544238e-01 4.799338206264209816e-01
3.491041548933198069e-01 5.898144581266535624e-01
3.501447037899851900e-01 6.738218240695807992e-01
3.511852526866505730e-01 5.753343709058924560e-01
3.522258015833159561e-01 3.734481874424915304e-01
3.532663504799813392e-01 3.862640041313589734e-01
3.543068993766467223e-01 6.138407487820387587e-01
3.553474482733121054e-01 6.448190756304690296e-01
3.563879971699774885e-01 3.781975639310211079e-01
3.574285460666428715e-01 4.545881146766141967e-01
3.584690949633082546e-01 2.743704040869126004e-01
3.595096438599736377e-01 1.476918262601998322e-01
3.605501927566390208e-01 2.466085803020696687e-01
3.615907416533044039e-01 3.725238835149262684e-01
3.626312905499697870e-01 3.417810946463184507e-01
3.636718394466351700e-01 2.709517356512378683e-01
3.647123883433005531e-01 5.864252314101143781e-01
3.657529372399659362e-01 5.318981168924103997e-01
3.667934861366313193e-01 2.705354725007786953e-01
3.678340350332967024e-01 3.803047904529037737e-01
3.688745839299620854e-01 3.120788056466459182e-01
3.699151328266274685e-01 3.932304914546485008e-01
3.709556817232928516e-01 2.605249704074523720e-01
3.719962306199582347e-01 4.111341643387547151e-01
3.730367795166236178e-01 3.823971295363115530e-01
3.740773284132890009e-01 6.251931240950341362e-01
3.751178773099543839e-01 5.923574392993060655e-01
3.761584262066197670e-01 3.580571040547972927e-01
3.771989751032851501e-01 3.882814561611205306e-01
3.782395239999505332e-01 4.577501861527615290e-01
3.792800728966159163e-01 4.753025124811820490e-01
3.803206217932812994e-01 3.327648522214374793e-01
3.813611706899466824e-01 4.141928507855539010e-01
3.824017195866120655e-01 3.065583523459665116e-01
3.834422684832774486e-01 3.586037908118768769e-01
3.844828173799428317e-01 4.505490943356598166e-01
3.855233662766082148e-01 4.239876790422236752e-01
3.865639151732735979e-01 2.298262665815791195e-01
3.876044640699389809e-01 5.175920893613472629e-01
3.886450129666043640e-01 7.772291466060536891e-01
3.896855618632697471e-01 7.054329492151723002e-01
3.907261107599351302e-01 4.957297511319431749e-01
3.917666596566005133e-01 3.683214461261279382e-01
3.928072085532658964e-01 5.259182877496044739e-01
3.938477574499312794e-01 4.274205768504621972e-01
3.948883063465966625e-01 3.538186901841342547e-01
3.959288552432620456e-01 2.748388990684880184e-01
3.969694041399274287e-01 3.940467021903160116e-01
3.980099530365928118e-01 4.116854923122197363e-01
3.990505019332581949e-01 4.028423514081396206e-01
4.000910508299235779e-01 6.279968127228379160e-01
4.011315997265889610e-01 6.598091233280030110e-01
4.021721486232543441e-01 6.881449432750557094e-01
4.032126975199197272e-01 5.639598914058794321e-01
4.042532464165851103e-01 5.086229049054118434e-01
4.052937953132504934e-01 5.298733493558103191e-01
4.063343442099158764e-01 2.729896958764719272e-01
4.073748931065812595e-01 3.281617157608565094e-01
4.084154420032466426e-01 5.979660081901627677e-01
4.094559908999120257e-01 5.113212724952802546e-01
4.104965397965774088e-01 6.401000322108139073e-01
4.115370886932427918e-01 8.385639934564217413e-01
4.125776375899081749e-01 6.452731337306758519e-01
4.136181864865735580e-01 6.800301637281158662e-01
4.146587353832389411e-01 7.213136058091365044e-01
4.156992842799043242e-01 5.253976005777509783e-01
4.167398331765697073e-01 4.169484225922026610e-01
4.177803820732350903e-01 3.820596489060044121e-01
4.188209309699004734e-01 5.168873000175544519e-01
4.198614798665658565e-01 5.976038894220643272e-01
4.209020287632312396e-01 4.925797780130167780e-01
4.219425776598966227e-01 5.924507318862417549e-01
4.229831265565620058e-01 5.330571453391783621e-01
4.240236754532273888e-01 4.725119170730600615e-01
4.250642243498927719e-01 4.767423459942143893e-01
4.261047732465581550e-01 5.022044917777712669e-01
4.271453221432235381e-01 5.995563436172375305e-01
4.281858710398889212e-01 3.674571790413843075e-01
4.292264199365543043e-01 2.313380205739292705e-01
4.302669688332196873e-01 2.795709949465106092e-01
4.313075177298850704e-01 3.516929071914844940e-01
4.323480666265504535e-01 3.225062963447484776e-01
4.333886155232158366e-01 2.437516193411504162e-01
4.344291644198812197e-01 5.700690106109149724e-01
