# q (1/Angstrom), Intensity (arb)
2.029070354705860696e-02 6.142187497367638116e+01
2.133125244372399004e-02 5.173650953603731750e+01
2.237180134038937659e-02 4.533719514574417531e+01
2.341235023705475968e-02 3.964549513980460915e+01
2.445289913372014276e-02 3.618767579704544346e+01
2.549344803038552584e-02 3.304133384786197780e+01
2.653399692705091240e-02 3.010980104452144701e+01
2.757454582371629548e-02 2.884112455052371615e+01
2.861509472038167856e-02 2.675684990082798720e+01
2.965564361704706164e-02 2.443409560802935232e+01
3.069619251371244473e-02 2.413002960777870953e+01
3.173674141037782781e-02 2.282036884129585985e+01
3.277729030704321089e-02 2.050293733448989997e+01
3.381783920370859398e-02 1.921770626218432199e+01
3.485838810037397706e-02 1.846142371111715619e+01
3.589893699703936014e-02 1.784256398408519573e+01
3.693948589370474322e-02 1.704806244863171116e+01
3.798003479037012631e-02 1.607953530062948033e+01
3.902058368703550939e-02 1.591638985855475852e+01
4.006113258370089247e-02 1.639300930772406417e+01
4.110168148036627556e-02 1.617994352949713033e+01
4.214223037703165864e-02 1.482170223356569494e+01
4.318277927369704866e-02 1.518125483646064566e+01
4.422332817036243174e-02 1.570958884238309849e+01
4.526387706702781483e-02 1.477856032365336603e+01
4.630442596369319791e-02 1.459231564606250231e+01
4.734497486035858099e-02 1.507590602283198677e+01
4.838552375702396408e-02 1.513297340249012279e+01
4.942607265368934716e-02 1.550411118625836338e+01
5.046662155035473024e-02 1.574402078789700710e+01
5.150717044702011332e-02 1.608553416824094739e+01
5.254771934368549641e-02 1.530369730038114540e+01
5.358826824035087949e-02 1.541332314573335793e+01
5.462881713701626257e-02 1.554834915798746664e+01
5.566936603368164566e-02 1.674978517118568533e+01
5.670991493034702874e-02 1.759666413095216342e+01
5.775046382701241182e-02 1.749186125212164455e+01
5.879101272367779490e-02 1.853399522683290002e+01
5.983156162034317799e-02 1.930839367180575294e+01
6.087211051700856107e-02 2.132891721034614818e+01
6.191265941367394415e-02 2.353768476090906603e+01
6.295320831033933417e-02 2.482941468376313310e+01
6.399375720700471726e-02 2.719263569317372742e+01
6.503430610367010034e-02 2.900290060993577868e+01
6.607485500033548342e-02 3.150561035140251676e+01
6.711540389700086651e-02 3.412763675028221400e+01
6.815595279366624959e-02 3.590917997152629937e+01
6.919650169033163267e-02 3.696244146995227453e+01
7.023705058699701576e-02 3.809707408532111117e+01
7.127759948366239884e-02 4.039009404207530451e+01
7.231814838032778192e-02 4.404717806418210557e+01
7.335869727699316500e-02 5.308078781342294405e+01
7.439924617365854809e-02 7.755760624223978539e+01
7.543979507032393117e-02 1.373037469853443895e+02
7.648034396698931425e-02 2.285179466556293733e+02
7.752089286365469734e-02 3.178033542084142482e+02
7.856144176032008042e-02 4.499775158917376530e+02
7.960199065698546350e-02 7.881387152485576735e+02
8.064253955365084658e-02 1.248010433925944653e+03
8.168308845031622967e-02 1.262270452404829939e+03
8.272363734698161275e-02 7.806270304220787466e+02
8.376418624364699583e-02 4.210361637677605131e+02
8.480473514031239279e-02 2.856552478139323625e+02
8.584528403697777588e-02 2.272938217415540976e+02
8.688583293364315896e-02 1.881204053236860432e+02
8.792638183030854204e-02 1.585869576828591221e+02
8.896693072697392513e-02 1.371550201008549266e+02
9.000747962363930821e-02 1.242654550313456525e+02
9.104802852030469129e-02 1.243096775810431325e+02
9.208857741697007437e-02 1.433882636195885425e+02
9.312912631363545746e-02 1.626941956376597886e+02
9.416967521030084054e-02 1.410744135455564674e+02
9.521022410696622362e-02 8.586537277632595533e+01
9.625077300363160671e-02 4.263564927531743365e+01
9.729132190029698979e-02 2.380375093647240448e+01
9.833187079696237287e-02 1.501440154883908207e+01
9.937241969362775595e-02 1.057541918525596003e+01
1.004129685902931390e-01 7.903016539866015933e+00
1.014535174869585221e-01 6.020763850338916257e+00
1.024940663836239052e-01 4.919347412123705965e+00
1.035346152802892883e-01 4.204090544595544543e+00
1.045751641769546714e-01 3.488136468664635004e+00
1.056157130736200545e-01 3.388999830492075205e+00
1.066562619702854375e-01 2.785130074103300046e+00
1.076968108669508206e-01 2.486241038958617366e+00
1.087373597636162037e-01 2.177458008828672575e+00
1.097779086602815868e-01 1.826804417545950798e+00
1.108184575569469699e-01 1.703731303213658066e+00
1.118590064536123529e-01 1.698950901314105977e+00
1.128995553502777360e-01 1.775810172160852574e+00
1.139401042469431191e-01 1.848159837273442463e+00
1.149806531436085022e-01 2.377040385297277680e+00
1.160212020402738853e-01 2.155849033681185745e+00
1.170617509369392684e-01 1.724723032138953727e+00
1.181022998336046514e-01 1.982097238680530893e+00
1.191428487302700345e-01 2.190512946444414411e+00
1.201833976269354176e-01 2.430680831925478458e+00
1.212239465236008007e-01 2.310915737865435915e+00
1.222644954202661838e-01 2.876908073145798994e+00
1.233050443169315669e-01 3.204484626919516188e+00
1.243455932135969499e-01 3.247242534102596778e+00
1.253861421102623330e-01 3.694513246822857866e+00
1.264266910069277161e-01 3.841758956442788531e+00
1.274672399035930992e-01 4.600415668249418388e+00
1.285077888002584823e-01 6.742378688489999661e+00
1.295483376969238654e-01 1.074189514040996585e+01
1.305888865935892484e-01 2.097022089704746151e+01
1.316294354902546315e-01 3.577135636532889151e+01
1.326699843869200146e-01 4.158761121713170894e+01
1.337105332835853977e-01 3.134311627854467019e+01
1.347510821802507808e-01 1.793745901965103684e+01
1.357916310769161639e-01 1.050241582566381027e+01
1.368321799735815469e-01 7.991670122713983915e+00
1.378727288702469300e-01 7.366302942676654197e+00
1.389132777669123131e-01 7.113874264397992420e+00
1.399538266635776962e-01 7.006405332205766001e+00
1.409943755602430793e-01 6.477426986241468398e+00
1.420349244569084624e-01 6.643990488439747821e+00
1.430754733535738454e-01 6.662589797387688861e+00
1.441160222502392285e-01 6.559368008778427850e+00
1.451565711469046116e-01 6.972059537382605754e+00
1.461971200435699947e-01 6.809311849598550737e+00
1.472376689402353778e-01 6.614690025335896451e+00
1.482782178369007609e-01 7.386685486084786589e+00
1.493187667335661439e-01 8.683190675750111609e+00
1.503593156302315270e-01 1.106160395243862382e+01
1.513998645268969101e-01 1.547787881635372997e+01
1.524404134235622932e-01 2.587688306724982823e+01
1.534809623202276763e-01 4.456277339447262875e+01
1.545215112168930593e-01 6.714260873766446025e+01
1.555620601135584424e-01 7.471297220227918956e+01
1.566026090102238255e-01 5.731791177604107190e+01
1.576431579068892086e-01 3.494788073291532982e+01
1.586837068035545917e-01 2.227063339829189914e+01
1.597242557002199748e-01 1.795295792223823383e+01
1.607648045968853578e-01 1.900893961771374308e+01
1.618053534935507409e-01 2.017863645184090871e+01
1.628459023902161240e-01 1.764446590048495267e+01
1.638864512868815071e-01 1.158318616232044462e+01
1.649270001835468902e-01 6.728039117913816369e+00
1.659675490802122733e-01 3.733323591881017478e+00
1.670080979768776563e-01 2.618232650317267485e+00
1.680486468735430672e-01 2.239336143266847046e+00
1.690891957702084503e-01 2.118458252771205252e+00
1.701297446668738333e-01 1.897267056824901488e+00
1.711702935635392164e-01 2.004281199779995859e+00
1.722108424602045995e-01 1.734683377026904338e+00
1.732513913568699826e-01 1.076145960330130436e+00
1.742919402535353657e-01 9.557232619588944544e-01
1.753324891502007488e-01 1.131654329080184596e+00
1.763730380468661318e-01 1.396491745558151365e+00
1.774135869435315149e-01 1.133278640772928725e+00
1.784541358401968980e-01 9.375306449025302413e-01
1.794946847368622811e-01 1.010092579582931194e+00
1.805352336335276642e-01 8.619878149064739148e-01
1.815757825301930473e-01 7.543819401079403519e-01
1.826163314268584303e-01 7.487983404016240740e-01
1.836568803235238134e-01 1.039406792821797154e+00
1.846974292201891965e-01 9.634492790269568729e-01
1.857379781168545796e-01 6.497862562372098694e-01
1.867785270135199627e-01 9.470695799479038612e-01
1.878190759101853458e-01 9.769530557678614002e-01
1.888596248068507288e-01 7.936560507379546436e-01
1.899001737035161119e-01 7.017541986513720076e-01
1.909407226001814950e-01 5.106346730519213395e-01
1.919812714968468781e-01 5.705190600852922955e-01
1.930218203935122612e-01 4.594617003160372803e-01
1.940623692901776443e-01 6.692965265915837847e-01
1.951029181868430273e-01 8.025846928034567895e-01
1.961434670835084104e-01 4.443437772651677165e-01
1.971840159801737935e-01 4.175435075983777722e-01
1.982245648768391766e-01 4.899997802207387565e-01
1.992651137735045597e-01 6.051044140127217474e-01
2.003056626701699428e-01 8.882040153796353366e-01
2.013462115668353813e-01 1.475768940378593186e+00
2.023867604635007644e-01 1.460068623713890901e+00
2.034273093601661475e-01 1.640541722917596701e+00
2.044678582568315306e-01 1.781947581999258290e+00
2.055084071534969137e-01 1.883887821259229156e+00
2.065489560501622968e-01 2.335613292017026055e+00
2.075895049468276798e-01 2.631650246144854322e+00
2.086300538434930629e-01 2.970472217353645306e+00
2.096706027401584460e-01 2.977016867191554894e+00
2.107111516368238291e-01 2.695152316153144767e+00
2.117517005334892122e-01 2.131373766507913103e+00
2.127922494301545953e-01 1.747267870500238018e+00
2.138327983268199783e-01 1.076361706859913170e+00
2.148733472234853614e-01 6.822615382632086778e-01
2.159138961201507445e-01 7.130355285877634230e-01
2.169544450168161276e-01 8.383466990502626004e-01
2.179949939134815107e-01 8.716260848032355568e-01
2.190355428101468938e-01 8.967950345941524404e-01
2.200760917068122768e-01 9.485582754999057897e-01
2.211166406034776599e-01 1.144664108323301122e+00
2.221571895001430430e-01 1.088838949290067859e+00
2.231977383968084261e-01 1.076771051403291324e+00
2.242382872934738092e-01 1.366530572674307109e+00
2.252788361901391923e-01 1.536685245770677000e+00
2.263193850868045753e-01 2.010012730775255108e+00
2.273599339834699584e-01 2.962864063589663033e+00
2.284004828801353415e-01 4.276574180004395487e+00
2.294410317768007246e-01 4.594313721416252605e+00
2.304815806734661077e-01 3.898128233896567707e+00
2.315221295701314908e-01 3.243830387513472857e+00
2.325626784667968738e-01 2.155301901926623742e+00
2.336032273634622569e-01 1.837588262705985187e+00
2.346437762601276400e-01 1.588464700410312958e+00
2.356843251567930231e-01 1.516296477111580998e+00
2.367248740534584062e-01 1.535859562281974178e+00
2.377654229501237892e-01 1.526128574105211300e+00
2.388059718467891723e-01 1.934139943955209162e+00
2.398465207434545554e-01 2.321340390683978683e+00
2.408870696401199385e-01 3.050973222714677746e+00
2.419276185367853216e-01 3.797226264465862755e+00
2.429681674334507047e-01 3.942248980017534876e+00
2.440087163301160877e-01 3.642682961865435942e+00
2.450492652267814708e-01 2.575487516950644817e+00
2.460898141234468539e-01 1.928655428846973052e+00
2.471303630201122370e-01 1.540578755881327311e+00
2.481709119167776201e-01 1.103118384457165035e+00
2.492114608134430032e-01 6.622161422443753054e-01
2.502520097101083585e-01 7.784671264446423322e-01
2.512925586067737416e-01 8.018844777356832765e-01
2.523331075034391247e-01 4.791774964309425400e-01
2.533736564001045077e-01 4.403200761190646517e-01
2.544142052967698908e-01 3.722107027637306942e-01
2.554547541934352739e-01 4.482324966826816137e-01
2.564953030901006570e-01 2.968068680444559959e-01
2.575358519867660401e-01 2.608616061060686775e-01
2.585764008834314231e-01 3.684445625900636401e-01
2.596169497800968062e-01 1.326177818177676215e-01
2.606574986767621893e-01 4.246044824061101508e-01
2.616980475734275724e-01 5.438466396782750678e-01
2.627385964700929555e-01 5.615670406680486337e-01
2.637791453667583386e-01 3.859231181877653682e-01
2.648196942634237216e-01 3.697870071115225699e-01
2.658602431600891047e-01 5.852089134856974795e-01
2.669007920567544878e-01 3.593793586625473324e-01
2.679413409534198709e-01 1.715723829933502032e-01
2.689818898500852540e-01 0.000000000000000000e+00
2.700224387467506371e-01 4.031431774604143925e-02
2.710629876434160201e-01 1.788121417759249709e-01
2.721035365400814032e-01 3.504166329419611259e-01
2.731440854367467863e-01 6.980219532479736699e-01
2.741846343334121694e-01 3.740136192717677943e-01
2.752251832300775525e-01 1.291477890951462371e-01
2.762657321267429356e-01 6.293301820703334215e-02
2.773062810234083186e-01 1.639668596241143916e-01
2.783468299200737017e-01 3.691547061670839014e-01
2.793873788167390848e-01 1.610408061469144059e-01
2.804279277134044679e-01 5.462243564320701239e-02
2.814684766100698510e-01 1.046448684316523270e-01
2.825090255067352341e-01 9.254876789215771282e-02
2.835495744034006171e-01 2.564314238295395398e-01
2.845901233000660002e-01 4.723270140785196247e-01
2.856306721967313833e-01 3.194982286650258629e-01
2.866712210933967664e-01 3.314045329825532349e-01
2.877117699900621495e-01 4.832503141369706157e-01
2.887523188867275326e-01 3.752538860181822145e-01
2.897928677833929156e-01 2.788723939384141204e-01
2.908334166800582987e-01 3.181611622497619862e-01
2.918739655767236818e-01 3.340728843159013195e-01
2.929145144733890649e-01 4.974706912445299167e-01
2.939550633700544480e-01 3.806049598522811550e-01
2.949956122667198311e-01 3.864369804106893014e-01
2.960361611633852141e-01 4.250372764564325223e-01
2.970767100600505972e-01 5.457559653871193461e-01
2.981172589567159803e-01 6.905628119482365435e-01
2.991578078533813634e-01 5.416660704035223262e-01
3.001983567500468020e-01 2.951286311975032106e-01
3.012389056467121851e-01 5.624022685002572075e-01
3.022794545433775681e-01 4.504277978352853040e-01
3.033200034400429512e-01 5.606744028900365606e-01
3.043605523367083343e-01 8.224233268048877221e-01
3.054011012333737174e-01 8.942596123758512761e-01
3.064416501300391005e-01 8.965172238768701618e-01
3.074821990267044836e-01 1.001083494930828266e+00
3.085227479233698666e-01 1.081759151277779551e+00
3.095632968200352497e-01 1.041604094122991597e+00
3.106038457167006328e-01 1.077223910286498665e+00
3.116443946133660159e-01 1.082031442648514030e+00
3.126849435100313990e-01 8.450294951343266803e-01
3.137254924066967821e-01 8.679933868913281003e-01
3.147660413033621651e-01 7.501986673019800378e-01
3.158065902000275482e-01 5.584614314099347609e-01
3.168471390966929313e-01 8.151228379854451589e-01
3.178876879933583144e-01 7.068193607839745596e-01
3.189282368900236975e-01 5.702172257116870924e-01
3.199687857866890806e-01 3.933156606800700672e-01
3.210093346833544636e-01 6.148391219185036505e-01
3.220498835800198467e-01 7.072333069227383362e-01
3.230904324766852298e-01 3.987208973485145691e-01
3.241309813733506129e-01 2.874777498550429300e-01
3.251715302700159960e-01 3.808740729723112395e-01
3.262120791666813790e-01 1.129946703989048729e-01
3.272526280633467621e-01 1.870912982049972584e-01
3.282931769600121452e-01 2.997421223435452475e-01
3.293337258566775283e-01 5.181477017478961500e-01
3.303742747533429114e-01 7.578231301290259125e-01
3.314148236500082945e-01 8.844778155575987455e-01
3.324553725466736775e-01 9.215307375772354703e-01
3.334959214433390606e-01 9.669743143601756685e-01
3.345364703400044437e-01 1.124567117674317274e+00
3.355770192366698268e-01 9.391225127191447086e-01
3.366175681333352099e-01 8.644919223147020659e-01
3.376581170300005930e-01 5.436828865902114671e-01
3.386986659266659760e-01 5.801632831755441089e-01
3.397392148233313591e-01 2.897764336635759719e-01
3.407797637199967422e-01 3.205941642716751971e-01
3.418203126166621253e-01 1.452941149388209396e-01
3.428608615133275084e-01 9.027129916693965583e-02
3.439014104099928915e-01 2.992573449785105311e-01
3.449419593066582745e-01 3.983826361651168213e-01
3.459825082033236576e-01 3.868120460700978924e-01
3.470230570999890407e-01 5.174429788581988987e-01
3.480636059966544238e-01 3.996768046070009461e-01
3.491041548933198069e-01 2.990222365232497737e-01
3.501447037899851900e-01 3.411221685924914482e-01
3.511852526866505730e-01 2.804855585477987745e-01
3.522258015833159561e-01 3.840965408533243419e-01
3.532663504799813392e-01 2.907065210265180610e-01
3.543068993766467223e-01 1.966274691566880506e-01
3.553474482733121054e-01 5.605550573007178627e-02
3.563879971699774885e-01 1.605452598526611041e-01
3.574285460666428715e-01 2.301150783182634996e-01
3.584690949633082546e-01 3.391474401467462485e-01
3.595096438599736377e-01 4.274272325550505514e-01
3.605501927566390208e-01 3.545518827704441378e-01
3.615907416533044039e-01 5.045869609821487245e-01
3.626312905499697870e-01 5.302343151866288906e-01
3.636718394466351700e-01 2.602234793799382828e-01
3.647123883433005531e-01 8.399390670195572284e-02
3.657529372399659362e-01 4.148213094655481825e-01
3.667934861366313193e-01 3.836847139093748638e-01
3.678340350332967024e-01 2.341077622491702925e-01
3.688745839299620854e-01 5.668511050137325924e-01
3.699151328266274685e-01 4.915586661166990723e-01
3.709556817232928516e-01 4.809649394228046049e-01
3.719962306199582347e-01 2.450002599833283057e-01
3.730367795166236178e-01 2.758843097479335427e-01
3.740773284132890009e-01 3.288243928282668094e-01
3.751178773099543839e-01 3.293681421638936513e-01
3.761584262066197670e-01 4.163661632181394623e-01
3.771989751032851501e-01 4.120748062691639291e-01
3.782395239999505332e-01 3.408711885186868074e-01
3.792800728966159163e-01 1.834142518971511038e-01
3.803206217932812994e-01 2.204037139273928858e-01
3.813611706899466824e-01 4.272642973238909292e-01
3.824017195866120655e-01 7.566727874767913420e-01
3.834422684832774486e-01 7.058967945850831427e-01
3.844828173799428317e-01 7.959193487742446393e-01
3.855233662766082148e-01 5.247309054815296747e-01
3.865639151732735979e-01 5.296863018797175471e-01
3.876044640699389809e-01 6.019445310921724968e-01
3.886450129666043640e-01 5.928280100438279021e-01
3.896855618632697471e-01 4.364494298999801458e-01
3.907261107599351302e-01 3.474151148840576298e-01
3.917666596566005133e-01 1.398002215470732779e-01
3.928072085532658964e-01 2.013752930961061338e-01
3.938477574499312794e-01 3.915203371760576090e-01
3.948883063465966625e-01 4.351090325046342855e-01
3.959288552432620456e-01 4.656951310872656791e-01
3.969694041399274287e-01 5.862600880611807952e-01
3.980099530365928118e-01 4.322162336365948931e-01
3.990505019332581949e-01 6.277083735660120567e-01
4.000910508299235779e-01 5.786794765788307870e-01
4.011315997265889610e-01 3.331998581003219329e-01
4.021721486232543441e-01 3.669672871039182382e-01
4.032126975199197272e-01 3.250469769439732204e-01
4.042532464165851103e-01 4.692455221625699835e-01
4.052937953132504934e-01 5.056809731432565513e-01
4.063343442099158764e-01 5.278966129283837461e-01
4.073748931065812595e-01 4.481676461921324517e-01
4.084154420032466426e-01 4.894295002838937592e-01
4.094559908999120257e-01 3.922934616788715800e-01
4.104965397965774088e-01 3.357353596394077044e-01
4.115370886932427918e-01 4.574595448709679602e-01
4.125776375899081749e-01 7.597344881296805852e-01
4.136181864865735580e-01 6.072312576718132959e-01
4.146587353832389411e-01 3.480971503068133188e-01
4.156992842799043242e-01 2.716229047601892432e-01
4.167398331765697073e-01 3.463159014855996531e-01
4.177803820732350903e-01 4.110135838135207109e-01
4.188209309699004734e-01 3.105562962241315006e-01
4.198614798665658565e-01 3.839114860160108833e-01
4.209020287632312396e-01 4.814648878170402213e-01
4.219425776598966227e-01 4.846596919374981383e-01
4.229831265565620058e-01 4.404842425406449991e-01
4.240236754532273888e-01 4.445547919008276949e-01
4.250642243498927719e-01 4.790580475330337151e-01
4.261047732465581550e-01 4.697695923597464684e-01
4.271453221432235381e-01 4.538509912739243646e-01
4.281858710398889212e-01 3.983168904884806238e-01
4.292264199365543043e-01 2.106721358968606239e-01
4.302669688332196873e-01 3.850318430247519075e-01
4.313075177298850704e-01 5.252116563591577858e-01
4.323480666265504535e-01 4.308147058595643841e-01
4.333886155232158366e-01 2.912845975776434670e-01
4.344291644198812197e-01 2.544620470362382036e-01
