# q (1/Angstrom), Intensity (arb)
3.063590265382597211e-02 0.000000000000000000e+00
3.167440782643154290e-02 1.427072366333842268e+00
3.271291299903710675e-02 2.443763110194041133e+00
3.375141817164267755e-02 3.119532369914011838e+00
3.478992334424824834e-02 3.865141925526259570e+00
3.582842851685381913e-02 4.582207734935888510e+00
3.686693368945938992e-02 5.025020990302268231e+00
3.790543886206496071e-02 5.404739111698402709e+00
3.894394403467052457e-02 5.855404449885204698e+00
3.998244920727608842e-02 6.004579851366541376e+00
4.102095437988165921e-02 6.417425211174291988e+00
4.205945955248723001e-02 6.648229730930694359e+00
4.309796472509280080e-02 6.967346939358094460e+00
4.413646989769837159e-02 7.116674625907821294e+00
4.517497507030393544e-02 7.275673571044725563e+00
4.621348024290949930e-02 7.329666538366559791e+00
4.725198541551507009e-02 7.641411482525926502e+00
4.829049058812064088e-02 8.094197287391203588e+00
4.932899576072621167e-02 8.350445670229676765e+00
5.036750093333178246e-02 8.448535316696151654e+00
5.140600610593734632e-02 8.739481408522529193e+00
5.244451127854291711e-02 8.960459478431205937e+00
5.348301645114848096e-02 9.097555202137188601e+00
5.452152162375405869e-02 9.245257083534497156e+00
5.556002679635962255e-02 9.608649935158940281e+00
5.659853196896519334e-02 9.813582045685713240e+00
5.763703714157075719e-02 9.921021816214201650e+00
5.867554231417632105e-02 9.901776043835928576e+00
5.971404748678189878e-02 9.943289300462062386e+00
6.075255265938746263e-02 1.006996431960578953e+01
6.179105783199304036e-02 1.021106853853379803e+01
6.282956300459860421e-02 1.031788403466212856e+01
6.386806817720418195e-02 1.032281519768090483e+01
6.490657334980974580e-02 1.026541575718366417e+01
6.594507852241530965e-02 1.036530215189815962e+01
6.698358369502087351e-02 1.040287079536888371e+01
6.802208886762643736e-02 1.038252374164263436e+01
6.906059404023201509e-02 1.028187563605512977e+01
7.009909921283757894e-02 1.018661331675659021e+01
7.113760438544315667e-02 1.019819091676865597e+01
7.217610955804872053e-02 1.042779825720133502e+01
7.321461473065429826e-02 1.047068395375843508e+01
7.425311990325986211e-02 1.018129446300051200e+01
7.529162507586543984e-02 1.028376738345914987e+01
7.633013024847100370e-02 1.021109058760405297e+01
7.736863542107656755e-02 1.010822643900055340e+01
7.840714059368214528e-02 9.934658126319821037e+00
7.944564576628770913e-02 9.926563950278788795e+00
8.048415093889327299e-02 9.818625118053766698e+00
8.152265611149883684e-02 9.552123340051196010e+00
8.256116128410441457e-02 9.235764166214517346e+00
8.359966645670997842e-02 9.186550948693568586e+00
8.463817162931554228e-02 8.954985650451638080e+00
8.567667680192112001e-02 8.702064062844556247e+00
8.671518197452668386e-02 8.313593638580767831e+00
8.775368714713226159e-02 7.995385072580978303e+00
8.879219231973782545e-02 7.640390286611919990e+00
8.983069749234340318e-02 7.164218210126621855e+00
9.086920266494896703e-02 6.566585357811442591e+00
9.190770783755453088e-02 6.166885146156154462e+00
9.294621301016009474e-02 5.802880103612446661e+00
9.398471818276565859e-02 5.550454878190647534e+00
9.502322335537123632e-02 5.319581703654657545e+00
9.606172852797680017e-02 5.179353095943818985e+00
9.710023370058237790e-02 5.482426684703179731e+00
9.813873887318794176e-02 5.783218820946091299e+00
9.917724404579351949e-02 6.137951301017961825e+00
1.002157492183990695e-01 6.532020922226966064e+00
1.012542543910046472e-01 6.902006805506466947e+00
1.022927595636101972e-01 7.140917464388708780e+00
1.033312647362157749e-01 7.444809474837354557e+00
1.043697699088213526e-01 7.878767208865125937e+00
1.054082750814269165e-01 8.372784467289832833e+00
1.064467802540324803e-01 8.896378393461128908e+00
1.074852854266380442e-01 9.431635986493962065e+00
1.085237905992436219e-01 9.712931921209674968e+00
1.095622957718491719e-01 1.004061642058443304e+01
1.106008009444547496e-01 1.036424033494719588e+01
1.116393061170603274e-01 1.063049902340944186e+01
1.126778112896659051e-01 1.080061020599936406e+01
1.137163164622714551e-01 1.113520395889366910e+01
1.147548216348770328e-01 1.130655152857941736e+01
1.157933268074826105e-01 1.142401598937604490e+01
1.168318319800881605e-01 1.156630982187337331e+01
1.178703371526937382e-01 1.178166615231000591e+01
1.189088423252993021e-01 1.193477458880169806e+01
1.199473474979048798e-01 1.184843487605318124e+01
1.209858526705104298e-01 1.180343396937834655e+01
1.220243578431160075e-01 1.191026308087043262e+01
1.230628630157215853e-01 1.200328075444004128e+01
1.241013681883271630e-01 1.202629825272398456e+01
1.251398733609327130e-01 1.203265742030068353e+01
1.261783785335382768e-01 1.209595524596042537e+01
1.272168837061438684e-01 1.209575474795014216e+01
1.282553888787494045e-01 1.225410056141395643e+01
1.292938940513549961e-01 1.230028431513001763e+01
1.303323992239605600e-01 1.220586365714236265e+01
1.313709043965661516e-01 1.233712757662543069e+01
1.324094095691716877e-01 1.244972519130118371e+01
1.334479147417772793e-01 1.231529467580484294e+01
1.344864199143828432e-01 1.236253711465263549e+01
1.355249250869884070e-01 1.239613724307475096e+01
1.365634302595939709e-01 1.240983757354313965e+01
1.376019354321995347e-01 1.232427193653073516e+01
1.386404406048051263e-01 1.236560261467173305e+01
1.396789457774106624e-01 1.238946314929373926e+01
1.407174509500162540e-01 1.235825556852009477e+01
1.417559561226218179e-01 1.234589632739248266e+01
1.427944612952273817e-01 1.241556890411083813e+01
1.438329664678329456e-01 1.244292203869394342e+01
1.448714716404385372e-01 1.239452864451479464e+01
1.459099768130441011e-01 1.241365409131550557e+01
1.469484819856496649e-01 1.247998737777021994e+01
1.479869871582552288e-01 1.245301310764241443e+01
1.490254923308607926e-01 1.244527196294902538e+01
1.500639975034663842e-01 1.248076793992148481e+01
1.511025026760719481e-01 1.252301929179013662e+01
1.521410078486775119e-01 1.248735846906766866e+01
1.531795130212830758e-01 1.251571774519464242e+01
1.542180181938886396e-01 1.242165079952556894e+01
1.552565233664942035e-01 1.238266545230692550e+01
1.562950285390997951e-01 1.248679026254475666e+01
1.573335337117053589e-01 1.243802153248699938e+01
1.583720388843109228e-01 1.243067715684701824e+01
1.594105440569164867e-01 1.238152723975300518e+01
1.604490492295220783e-01 1.238929293763655437e+01
1.614875544021276144e-01 1.243478348141286816e+01
1.625260595747332060e-01 1.240043848225078804e+01
1.635645647473387698e-01 1.248535380078347501e+01
1.646030699199443337e-01 1.241102060729390466e+01
1.656415750925498975e-01 1.248855146774923242e+01
1.666800802651554614e-01 1.247808234425447793e+01
1.677185854377610530e-01 1.237346706696831689e+01
1.687570906103665891e-01 1.233048259101633093e+01
1.697955957829721807e-01 1.237616132208827580e+01
1.708341009555777446e-01 1.238268990117559909e+01
1.718726061281833362e-01 1.235507562382201030e+01
1.729111113007888723e-01 1.226842985651978779e+01
1.739496164733944639e-01 1.234242346191131290e+01
1.749881216460000277e-01 1.234483736450754421e+01
1.760266268186055916e-01 1.234294273341958181e+01
1.770651319912111554e-01 1.232076740581049812e+01
1.781036371638167193e-01 1.226247110403448559e+01
1.791421423364223109e-01 1.233822336315321166e+01
1.801806475090278470e-01 1.235040329551912919e+01
1.812191526816334386e-01 1.235165002022465153e+01
1.822576578542390024e-01 1.232782283051910710e+01
1.832961630268445663e-01 1.231397452827546957e+01
1.843346681994501302e-01 1.217916106587595237e+01
1.853731733720557218e-01 1.222468761383040992e+01
1.864116785446612856e-01 1.222884645026641692e+01
1.874501837172668495e-01 1.222919466115752130e+01
1.884886888898724133e-01 1.226654892286345344e+01
1.895271940624779772e-01 1.225024368387429163e+01
1.905656992350835688e-01 1.236746047333533305e+01
1.916042044076891049e-01 1.246372297061875933e+01
1.926427095802946965e-01 1.226435927296298445e+01
1.936812147529002603e-01 1.226218786783902104e+01
1.947197199255058242e-01 1.224265177973707353e+01
1.957582250981113881e-01 1.220903062653311366e+01
1.967967302707169797e-01 1.229413688968211460e+01
1.978352354433225435e-01 1.230227216623728381e+01
1.988737406159281074e-01 1.230828700429424494e+01
1.999122457885336712e-01 1.226247659717623506e+01
2.009507509611392351e-01 1.224890192926295995e+01
2.019892561337448267e-01 1.229388801425536926e+01
2.030277613063503905e-01 1.237624217378520619e+01
2.040662664789559266e-01 1.237043982824572552e+01
2.051047716515614905e-01 1.231482560533468273e+01
2.061432768241670821e-01 1.222375427894674615e+01
2.071817819967726459e-01 1.221927236458637012e+01
2.082202871693782376e-01 1.225165840706373643e+01
2.092587923419838014e-01 1.235907272781880550e+01
2.102972975145893653e-01 1.245575922221195064e+01
2.113358026871949014e-01 1.242634867818230937e+01
2.123743078598004930e-01 1.232339504019973297e+01
2.134128130324060568e-01 1.231730009376770951e+01
2.144513182050116207e-01 1.226000781308068355e+01
2.154898233776172123e-01 1.231496771132220225e+01
2.165283285502227761e-01 1.226200814877822864e+01
2.175668337228283677e-01 1.230028590284394596e+01
2.186053388954338761e-01 1.228922462208424449e+01
2.196438440680394677e-01 1.224629330586357057e+01
2.206823492406450316e-01 1.229512127308301039e+01
2.217208544132506232e-01 1.235719801688386354e+01
2.227593595858561870e-01 1.233108679229630056e+01
2.237978647584617509e-01 1.231886643433447759e+01
2.248363699310673425e-01 1.234784946506284342e+01
2.258748751036728786e-01 1.232897458741189212e+01
2.269133802762784424e-01 1.224779607853228569e+01
2.279518854488840063e-01 1.223231530067470629e+01
2.289903906214895979e-01 1.235543309653693100e+01
2.300288957940951617e-01 1.236656120156667882e+01
2.310674009667007534e-01 1.235278809167944125e+01
2.321059061393063172e-01 1.232926241446393334e+01
2.331444113119118533e-01 1.233075463648894399e+01
2.341829164845174172e-01 1.234284430591981518e+01
2.352214216571230088e-01 1.235414918826262642e+01
2.362599268297285726e-01 1.232713146376778113e+01
2.372984320023341365e-01 1.226164569008681049e+01
2.383369371749397281e-01 1.223482151777857396e+01
2.393754423475452919e-01 1.230726104330643267e+01
2.404139475201508835e-01 1.227123168266112430e+01
2.414524526927563919e-01 1.232614537205979843e+01
2.424909578653619835e-01 1.233801413438629524e+01
2.435294630379675473e-01 1.223910293613718636e+01
2.445679682105731390e-01 1.231618481232668749e+01
2.456064733831787028e-01 1.232593587781161304e+01
2.466449785557842667e-01 1.218652804894070130e+01
2.476834837283898583e-01 1.226658416001957974e+01
2.487219889009953944e-01 1.237135064670417073e+01
2.497604940736009582e-01 1.223797786667262777e+01
2.507989992462065221e-01 1.217455918838222217e+01
2.518375044188120859e-01 1.221601757099634611e+01
2.528760095914177053e-01 1.234895078723312700e+01
2.539145147640232691e-01 1.227226888273738581e+01
2.549530199366288330e-01 1.226367954152665263e+01
2.559915251092343413e-01 1.224747800351588722e+01
2.570300302818399607e-01 1.221596614711066664e+01
2.580685354544455246e-01 1.214206892464604159e+01
2.591070406270510884e-01 1.220013633178144197e+01
2.601455457996566523e-01 1.219226668836212468e+01
2.611840509722622161e-01 1.222176419736308617e+01
2.622225561448678355e-01 1.222868463025409724e+01
2.632610613174733438e-01 1.217855883359262847e+01
2.642995664900789077e-01 1.217144208052077659e+01
2.653380716626844715e-01 1.219191147263560993e+01
2.663765768352900909e-01 1.218077416766143450e+01
2.674150820078956547e-01 1.223451457621225913e+01
2.684535871805012186e-01 1.217204429470879745e+01
2.694920923531067825e-01 1.216840793347397565e+01
2.705305975257123463e-01 1.225289429567549426e+01
2.715691026983179102e-01 1.232924982134028191e+01
2.726076078709234740e-01 1.222106634958363003e+01
2.736461130435290379e-01 1.217503797873199645e+01
2.746846182161346017e-01 1.216093843091327997e+01
2.757231233887402211e-01 1.215013051021823465e+01
2.767616285613457849e-01 1.218056203914262525e+01
2.778001337339512933e-01 1.218713431741749353e+01
2.788386389065568571e-01 1.221492372968035234e+01
2.798771440791624765e-01 1.214091539482750903e+01
2.809156492517680404e-01 1.215932791261840329e+01
2.819541544243736042e-01 1.218941700462795907e+01
2.829926595969791681e-01 1.218782713979592991e+01
2.840311647695847319e-01 1.215291262000347672e+01
2.850696699421902958e-01 1.212020617847389126e+01
2.861081751147958596e-01 1.208899331602860450e+01
2.871466802874014235e-01 1.216892938667704627e+01
2.881851854600069873e-01 1.215637928724206951e+01
2.892236906326126067e-01 1.210342098408919398e+01
2.902621958052181705e-01 1.209122688837013904e+01
2.913007009778237344e-01 1.211100464388777631e+01
2.923392061504292427e-01 1.210858648391384662e+01
2.933777113230348621e-01 1.208009596650631146e+01
2.944162164956404260e-01 1.208242623558198048e+01
2.954547216682459898e-01 1.210835707484701729e+01
2.964932268408515537e-01 1.211561956248065108e+01
2.975317320134571175e-01 1.215656205236841814e+01
2.985702371860627369e-01 1.215841533484671189e+01
2.996087423586683007e-01 1.213526269613960196e+01
3.006472475312738091e-01 1.212511590808923145e+01
3.016857527038794284e-01 1.209475992591571014e+01
3.027242578764849923e-01 1.208825066266344805e+01
3.037627630490905561e-01 1.204841645019143925e+01
3.048012682216961200e-01 1.205251070028344884e+01
3.058397733943016839e-01 1.204679415799606268e+01
3.068782785669073032e-01 1.204264167793511575e+01
3.079167837395128116e-01 1.203744918205527981e+01
3.089552889121183754e-01 1.211945615659484687e+01
3.099937940847239393e-01 1.207618241384329671e+01
3.110322992573295586e-01 1.203480651263447498e+01
3.120708044299351225e-01 1.203127887377904059e+01
3.131093096025406863e-01 1.198985160132244943e+01
3.141478147751462502e-01 1.204500436396417484e+01
3.151863199477518140e-01 1.208181622591358817e+01
3.162248251203573779e-01 1.203340519057822888e+01
3.172633302929629417e-01 1.207834439598071086e+01
3.183018354655685056e-01 1.201413961633399907e+01
3.193403406381740695e-01 1.197287345627713151e+01
3.203788458107796888e-01 1.202025206748923480e+01
3.214173509833852527e-01 1.206033917985830151e+01
3.224558561559907610e-01 1.206524232872603797e+01
3.234943613285963249e-01 1.205855754382735867e+01
3.245328665012019442e-01 1.204366183946820357e+01
3.255713716738075081e-01 1.199502120359485957e+01
3.266098768464130719e-01 1.201291989177063080e+01
3.276483820190186358e-01 1.198911389175853337e+01
3.286868871916241996e-01 1.194260902578219863e+01
3.297253923642297635e-01 1.197431182337231625e+01
3.307638975368353274e-01 1.197688065226608956e+01
3.318024027094408912e-01 1.196955324734529924e+01
3.328409078820464551e-01 1.199724873565931915e+01
3.338794130546520744e-01 1.197903831998417701e+01
3.349179182272576383e-01 1.199978284982441323e+01
3.359564233998632021e-01 1.194346028465315790e+01
3.369949285724687105e-01 1.192330913602103770e+01
3.380334337450743298e-01 1.190062593826261761e+01
3.390719389176798937e-01 1.196386346127295042e+01
3.401104440902854575e-01 1.197728842494110779e+01
3.411489492628910214e-01 1.195365308088781831e+01
3.421874544354965852e-01 1.195785612287176392e+01
3.432259596081022046e-01 1.198232960880985054e+01
3.442644647807077130e-01 1.195868334051159998e+01
3.453029699533132768e-01 1.194268354721876690e+01
3.463414751259188407e-01 1.189169724846162168e+01
3.473799802985244600e-01 1.189337384871539349e+01
3.484184854711300239e-01 1.192091709416758505e+01
3.494569906437355877e-01 1.194504723260176604e+01
3.504954958163411516e-01 1.189113626157169179e+01
3.515340009889467154e-01 1.187757333559254036e+01
3.525725061615522793e-01 1.188814342362770304e+01
3.536110113341578431e-01 1.189598539288530432e+01
3.546495165067634070e-01 1.192215317702864397e+01
3.556880216793689709e-01 1.187821816297145894e+01
3.567265268519745902e-01 1.190715799373909434e+01
3.577650320245801541e-01 1.190422757313328006e+01
3.588035371971856624e-01 1.191136022462344357e+01
3.598420423697912263e-01 1.187501554836039830e+01
3.608805475423968456e-01 1.190127596247749153e+01
3.619190527150024095e-01 1.194908920423775278e+01
3.629575578876079733e-01 1.194798061633785125e+01
3.639960630602135372e-01 1.195277384039827595e+01
3.650345682328191010e-01 1.189153622008308631e+01
3.660730734054246649e-01 1.193308845058328060e+01
3.671115785780302287e-01 1.195343393598827753e+01
3.681500837506357926e-01 1.186747766739986787e+01
3.691885889232413565e-01 1.184730616457541785e+01
3.702270940958469758e-01 1.187689075088095692e+01
3.712655992684525397e-01 1.188954976706310163e+01
3.723041044410581035e-01 1.192080864400645623e+01
3.733426096136636674e-01 1.189974984593973062e+01
3.743811147862692312e-01 1.183625882031532583e+01
3.754196199588747951e-01 1.179333194641856153e+01
3.764581251314803589e-01 1.182446105059017327e+01
3.774966303040859228e-01 1.186988052162805118e+01
3.785351354766914866e-01 1.181063034671492673e+01
3.795736406492971060e-01 1.180320729324229312e+01
3.806121458219026699e-01 1.180839010029114000e+01
3.816506509945081782e-01 1.174678154439110145e+01
3.826891561671137421e-01 1.178516883559263917e+01
3.837276613397193614e-01 1.179600093475457179e+01
3.847661665123249253e-01 1.183227966363915229e+01
3.858046716849304891e-01 1.175062947900959998e+01
3.868431768575360530e-01 1.173026189201350356e+01
3.878816820301416168e-01 1.175982530742477827e+01
3.889201872027471807e-01 1.179784933048958173e+01
3.899586923753527445e-01 1.176152470027929553e+01
3.909971975479583084e-01 1.174055221175167674e+01
3.920357027205638722e-01 1.179479277021007633e+01
3.930742078931694916e-01 1.184945943580104100e+01
3.941127130657750555e-01 1.182850214903235653e+01
3.951512182383806193e-01 1.180214633959893078e+01
3.961897234109861277e-01 1.181690320268372929e+01
3.972282285835917470e-01 1.176605422250295696e+01
3.982667337561973109e-01 1.176308442829332535e+01
3.993052389288028747e-01 1.171161185105526137e+01
4.003437441014084941e-01 1.172643934569042301e+01
4.013822492740140579e-01 1.178603965286775335e+01
4.024207544466196218e-01 1.174334471886334441e+01
4.034592596192252412e-01 1.171354865657320588e+01
4.044977647918308050e-01 1.168778232249449189e+01
4.055362699644363689e-01 1.164139052299800525e+01
4.065747751370419327e-01 1.168193485677863919e+01
4.076132803096474411e-01 1.169937966403126239e+01
4.086517854822530049e-01 1.166935687194759552e+01
4.096902906548585688e-01 1.166164283880448949e+01
4.107287958274641326e-01 1.167209479574452224e+01
4.117673010000697520e-01 1.170831507545360850e+01
4.128058061726753158e-01 1.168133986294263948e+01
4.138443113452808797e-01 1.164423113497112361e+01
4.148828165178864436e-01 1.172585917229936747e+01
4.159213216904920074e-01 1.171763934948549490e+01
4.169598268630976268e-01 1.164112264270453601e+01
4.179983320357031906e-01 1.161436062117743084e+01
4.190368372083087545e-01 1.164459573437263984e+01
4.200753423809143183e-01 1.166385089340236192e+01
4.211138475535198822e-01 1.163135723744957417e+01
4.221523527261253905e-01 1.169609910833524324e+01
4.231908578987309544e-01 1.166782171139524138e+01
4.242293630713365182e-01 1.160169486173471931e+01
4.252678682439421376e-01 1.161470666054517054e+01
4.263063734165477014e-01 1.166436957835886545e+01
4.273448785891532653e-01 1.162405616506431016e+01
4.283833837617588292e-01 1.161924344126160946e+01
4.294218889343643930e-01 1.158364480464607382e+01
4.304603941069700124e-01 1.157194671084452864e+01
4.314988992795755762e-01 1.162291865689240744e+01
4.325374044521811401e-01 1.160719781747021528e+01
4.335759096247867039e-01 1.159874575245700612e+01
4.346144147973922678e-01 1.157918572388725664e+01
4.356529199699978872e-01 1.166951997516672179e+01
4.366914251426033400e-01 1.167475052242464173e+01
4.377299303152089038e-01 1.160183568650420938e+01
4.387684354878145232e-01 1.157689703244179391e+01
4.398069406604200871e-01 1.158107836146714220e+01
4.408454458330256509e-01 1.161401536621126951e+01
4.418839510056312148e-01 1.159449703723194602e+01
4.429224561782367786e-01 1.154348277610807116e+01
4.439609613508423980e-01 1.155599772398123903e+01
