# q (1/angstrom), Intensity (arb)
2.064195147861814378e-02 3.969189856490847887e+02
2.170051308966736495e-02 4.367569582394156669e+02
2.275907470071658611e-02 4.612125097504589348e+02
2.381763631176580728e-02 4.803874612904212995e+02
2.487619792281502498e-02 4.940368900324180572e+02
2.593475953386424615e-02 4.992286278704636970e+02
2.699332114491346385e-02 5.036732045918056997e+02
2.805188275596268849e-02 5.135700229348688026e+02
2.911044436701190619e-02 5.103229950431721136e+02
3.016900597806112735e-02 5.064700332566857242e+02
3.122756758911034505e-02 5.016615833487624059e+02
3.228612920015957316e-02 4.954053485367942358e+02
3.334469081120879086e-02 4.922948998446761948e+02
3.440325242225800856e-02 4.878930497931264654e+02
3.546181403330722626e-02 4.800740402076881992e+02
3.652037564435644396e-02 4.740444708726016074e+02
3.757893725540567553e-02 4.690744014521857252e+02
3.863749886645489323e-02 4.653033355686845880e+02
3.969606047750411093e-02 4.573576996168605433e+02
4.075462208855332863e-02 4.528137663724669437e+02
4.181318369960255327e-02 4.476976585645201112e+02
4.287174531065177097e-02 4.404359480998903678e+02
4.393030692170099560e-02 4.326721716561378344e+02
4.498886853275021330e-02 4.244556954915052529e+02
4.604743014379943100e-02 4.155345653058272433e+02
4.710599175484865564e-02 4.082369682504940442e+02
4.816455336589787334e-02 4.027324093393515341e+02
4.922311497694709104e-02 3.951308556848637181e+02
5.028167658799630874e-02 3.885474242020617339e+02
5.134023819904553337e-02 3.812673807104169441e+02
5.239879981009475801e-02 3.728370937726347165e+02
5.345736142114396877e-02 3.661458510025516375e+02
5.451592303219319341e-02 3.587686463319921586e+02
5.557448464324241805e-02 3.535664309867321435e+02
5.663304625429163575e-02 3.451916050576123212e+02
5.769160786534086038e-02 3.367386382640681290e+02
5.875016947639008502e-02 3.281202637522615078e+02
5.980873108743929578e-02 3.215488030127169168e+02
6.086729269848852042e-02 3.142554802009497052e+02
6.192585430953773118e-02 3.068486882239071178e+02
6.298441592058695582e-02 2.982374658172515183e+02
6.404297753163618045e-02 2.918000112565276822e+02
6.510153914268539121e-02 2.853404902666461567e+02
6.616010075373461585e-02 2.778585592006206753e+02
6.721866236478384049e-02 2.704747735991816171e+02
6.827722397583306513e-02 2.625107997742005068e+02
6.933578558688228977e-02 2.566383078245550564e+02
7.039434719793150053e-02 2.485319860716446954e+02
7.145290880898072516e-02 2.423730691285152830e+02
7.251147042002993592e-02 2.352383640509732459e+02
7.357003203107916056e-02 2.290504104247206669e+02
7.462859364212838520e-02 2.214845934250784296e+02
7.568715525317759596e-02 2.156073508007096109e+02
7.674571686422682060e-02 2.086926613790548117e+02
7.780427847527604523e-02 2.010481492486664763e+02
7.886284008632526987e-02 1.943533225374202686e+02
7.992140169737449451e-02 1.886972140206200947e+02
8.097996330842370527e-02 1.823162888711894425e+02
8.203852491947292991e-02 1.765079948765688869e+02
8.309708653052215455e-02 1.700058759136959736e+02
8.415564814157136531e-02 1.637768290228040087e+02
8.521420975262058994e-02 1.579065257508614479e+02
8.627277136366980070e-02 1.522734314840526793e+02
8.733133297471902534e-02 1.461553942807190367e+02
8.838989458576824998e-02 1.411464335486938353e+02
8.944845619681746074e-02 1.364476711366375810e+02
9.050701780786668538e-02 1.301692057162934759e+02
9.156557941891591001e-02 1.255297887534673720e+02
9.262414102996513465e-02 1.206858020274331835e+02
9.368270264101435929e-02 1.144054393136320016e+02
9.474126425206357005e-02 1.090800726909484979e+02
9.579982586311279469e-02 1.045249369139157238e+02
9.685838747416200545e-02 9.981022339551881828e+01
9.791694908521123009e-02 9.631515501919787425e+01
9.897551069626045472e-02 9.223174882577914957e+01
1.000340723073096516e-01 8.756866284950169188e+01
1.010926339183588762e-01 8.312034491384474677e+01
1.021511955294081009e-01 7.960304392500280812e+01
1.032097571404573255e-01 7.585705680008037177e+01
1.042683187515065502e-01 7.238976421072885614e+01
1.053268803625557748e-01 6.875701865352783670e+01
1.063854419736049856e-01 6.499916026903295574e+01
1.074440035846542102e-01 6.185538463019099709e+01
1.085025651957034348e-01 5.843016831980532544e+01
1.095611268067526595e-01 5.556543812528764903e+01
1.106196884178018841e-01 5.281954299106541839e+01
1.116782500288510810e-01 4.995789181243624455e+01
1.127368116399003056e-01 4.725987984292349608e+01
1.137953732509495303e-01 4.429571099318212646e+01
1.148539348619987549e-01 4.208211775439923485e+01
1.159124964730479795e-01 3.981330131437472630e+01
1.169710580840972042e-01 3.709507929366598944e+01
1.180296196951464149e-01 3.497738312940022354e+01
1.190881813061956396e-01 3.240436312561691778e+01
1.201467429172448642e-01 3.031750712178082807e+01
1.212053045282940889e-01 2.884378069365770259e+01
1.222638661393433135e-01 2.738982212472112110e+01
1.233224277503925104e-01 2.524728657589923131e+01
1.243809893614417350e-01 2.303279931466824593e+01
1.254395509724909596e-01 2.158829356822664636e+01
1.264981125835401843e-01 2.024633820549853525e+01
1.275566741945894089e-01 1.930220297643669625e+01
1.286152358056386058e-01 1.807283065953189904e+01
1.296737974166878304e-01 1.594017436450954506e+01
1.307323590277370551e-01 1.510543233861118395e+01
1.317909206387862797e-01 1.422464259119206531e+01
1.328494822498355044e-01 1.291988201726375962e+01
1.339080438608847012e-01 1.166894730263844338e+01
1.349666054719339259e-01 1.114413936151539630e+01
1.360251670829831505e-01 1.069915727313404830e+01
1.370837286940323752e-01 9.750863152489085195e+00
1.381422903050815998e-01 9.017822464948800132e+00
1.392008519161308244e-01 8.541075368581271476e+00
1.402594135271800491e-01 7.804838835474743775e+00
1.413179751382292737e-01 6.832341921254144523e+00
1.423765367492784983e-01 6.302139540728209255e+00
1.434350983603277230e-01 5.891161398339527011e+00
1.444936599713769199e-01 5.710853848921221498e+00
1.455522215824261445e-01 5.143133699475267662e+00
1.466107831934753691e-01 4.541996790303549858e+00
1.476693448045245938e-01 4.111570681174555375e+00
1.487279064155738184e-01 3.857601736822015681e+00
1.497864680266230153e-01 3.698242274478669600e+00
1.508450296376722399e-01 3.584929098060730013e+00
1.519035912487214646e-01 3.290833819190368104e+00
1.529621528597706892e-01 2.894646326146400384e+00
1.540207144708199138e-01 2.781257363823897322e+00
1.550792760818691107e-01 2.698685718632059860e+00
1.561378376929183354e-01 2.892835606918538360e+00
1.571963993039675600e-01 2.963383875896113295e+00
1.582549609150167846e-01 2.399490971731477629e+00
1.593135225260660093e-01 2.533588081259825486e+00
1.603720841371152339e-01 2.273230910680830164e+00
1.614306457481644586e-01 2.318216323028210013e+00
1.624892073592136832e-01 2.299797041298276667e+00
1.635477689702629078e-01 2.356426280153630870e+00
1.646063305813121325e-01 2.286791206305746726e+00
1.656648921923613571e-01 2.234677900441248255e+00
1.667234538034105540e-01 2.488032661082510089e+00
1.677820154144597786e-01 2.635577179516850777e+00
1.688405770255090033e-01 3.055568990191222412e+00
1.698991386365582279e-01 2.926520046601616798e+00
1.709577002476074525e-01 3.004938108192831692e+00
1.720162618586566494e-01 2.977500425726127276e+00
1.730748234697058741e-01 3.235356475639797225e+00
1.741333850807550987e-01 3.091397228058934132e+00
1.751919466918043233e-01 3.074136777181372793e+00
1.762505083028535480e-01 2.967359293201738524e+00
1.773090699139027449e-01 3.117317684901433239e+00
1.783676315249519695e-01 3.442989580615357426e+00
1.794261931360011941e-01 3.700643755059079609e+00
1.804847547470504188e-01 3.546014941531534959e+00
1.815433163580996434e-01 3.693300548965503083e+00
1.826018779691488403e-01 3.622988807745144868e+00
1.836604395801980649e-01 3.793974315894182325e+00
1.847190011912472896e-01 3.728917797807508094e+00
1.857775628022965142e-01 3.422478971370747303e+00
1.868361244133457388e-01 3.751169973191906593e+00
1.878946860243949635e-01 3.823398761034535909e+00
1.889532476354441881e-01 3.892230824190335170e+00
1.900118092464934128e-01 4.134172587917305464e+00
1.910703708575426374e-01 4.157690449111221653e+00
1.921289324685918620e-01 4.148383918189605168e+00
1.931874940796410589e-01 3.929590747464889233e+00
1.942460556906902835e-01 3.896733430139192933e+00
1.953046173017395082e-01 3.674996191844520865e+00
1.963631789127887328e-01 3.831314113722907422e+00
1.974217405238379575e-01 3.777637108355008877e+00
1.984803021348871543e-01 3.920434258789743609e+00
1.995388637459363790e-01 4.332395745098150286e+00
2.005974253569856036e-01 4.365523490729863454e+00
2.016559869680347727e-01 3.970889110490663398e+00
2.027145485790839974e-01 3.819042396966768393e+00
2.037731101901332220e-01 3.909237687536130323e+00
2.048316718011824467e-01 3.827346004865127327e+00
2.058902334122316713e-01 3.757657410315342617e+00
2.069487950232808959e-01 4.013888486004880463e+00
2.080073566343301206e-01 3.915196801292513129e+00
2.090659182453793452e-01 3.744690388014024762e+00
2.101244798564285698e-01 3.833619324756153190e+00
2.111830414674777945e-01 3.706180666511841082e+00
2.122416030785269914e-01 3.322473476256167402e+00
2.133001646895762160e-01 3.675832960570765806e+00
2.143587263006254406e-01 3.709379344872207440e+00
2.154172879116746653e-01 3.374994327749128331e+00
2.164758495227238899e-01 3.257187478314264695e+00
2.175344111337731146e-01 3.201819959591507114e+00
2.185929727448223392e-01 3.472741325655782418e+00
2.196515343558715638e-01 3.333305073814177177e+00
2.207100959669207885e-01 3.059393405923191978e+00
2.217686575779700131e-01 3.057231817559973308e+00
2.228272191890191822e-01 3.020867609849997137e+00
2.238857808000684069e-01 2.854561127212832616e+00
2.249443424111176315e-01 2.965049127357207936e+00
2.260029040221668561e-01 3.031954600602386307e+00
2.270614656332160808e-01 2.871929577524248600e+00
2.281200272442653054e-01 2.762264173807203349e+00
2.291785888553145301e-01 2.670902151462271945e+00
2.302371504663637547e-01 2.648908007433607992e+00
2.312957120774129793e-01 2.438225094168604556e+00
2.323542736884622040e-01 2.270921012615701784e+00
2.334128352995114286e-01 2.471110468684113215e+00
2.344713969105606255e-01 2.290866838416512508e+00
2.355299585216098501e-01 2.194965096407266003e+00
2.365885201326590748e-01 2.407506698420114333e+00
2.376470817437082994e-01 2.154838063032407547e+00
2.387056433547575240e-01 2.003599376757222217e+00
2.397642049658067487e-01 1.925432982373113333e+00
2.408227665768559733e-01 2.154122786389443434e+00
2.418813281879051980e-01 1.957092895358151452e+00
2.429398897989544226e-01 1.865390406525566647e+00
2.439984514100036472e-01 1.828111112386572756e+00
2.450570130210528164e-01 1.790311802102056760e+00
2.461155746321020410e-01 1.921434603279127629e+00
2.471741362431512656e-01 1.688248020567218788e+00
2.482326978542004903e-01 1.584145285490869526e+00
2.492912594652497149e-01 1.433130177210848899e+00
2.503498210762989395e-01 1.453124454944028088e+00
2.514083826873481642e-01 1.544378917539916074e+00
2.524669442983973888e-01 1.472511502793992122e+00
2.535255059094466135e-01 1.347849812759335464e+00
2.545840675204958381e-01 1.458120017630299969e+00
2.556426291315450072e-01 1.477248082134408946e+00
2.567011907425942319e-01 1.302429820651454406e+00
2.577597523536434565e-01 1.197482941112756549e+00
2.588183139646926811e-01 1.145700201175554156e+00
2.598768755757419058e-01 9.266701911274424219e-01
2.609354371867911304e-01 1.206506670165218509e+00
2.619939987978403551e-01 1.034895068060162515e+00
2.630525604088895797e-01 9.690727280903601581e-01
2.641111220199388043e-01 1.112492882518012038e+00
2.651696836309880290e-01 1.067948028554983608e+00
2.662282452420371981e-01 1.141286417445524393e+00
2.672868068530864227e-01 1.135874973503526064e+00
2.683453684641356474e-01 1.129025582094463687e+00
2.694039300751848720e-01 1.106195938068960771e+00
2.704624916862340966e-01 1.099440388336088148e+00
2.715210532972833213e-01 8.692069925333250069e-01
2.725796149083325459e-01 8.768252358667858459e-01
2.736381765193817706e-01 7.837036386311773128e-01
2.746967381304309952e-01 9.533367167551141108e-01
2.757552997414802198e-01 7.555540725208729214e-01
2.768138613525294445e-01 8.181368732831941770e-01
2.778724229635786691e-01 1.005852151585497012e+00
2.789309845746278937e-01 7.510094504662596648e-01
2.799895461856771184e-01 9.418402544384463226e-01
2.810481077967263430e-01 1.147851117413562605e+00
2.821066694077755677e-01 1.025882021754160434e+00
2.831652310188247923e-01 1.095602680590303635e+00
2.842237926298740169e-01 1.368777649840641431e+00
2.852823542409232416e-01 1.313994137119433248e+00
2.863409158519724662e-01 1.084709415564052648e+00
2.873994774630216908e-01 1.003851528867468090e+00
2.884580390740708600e-01 8.771207062929242682e-01
2.895166006851200846e-01 8.322425314700794274e-01
2.905751622961693093e-01 6.790734454240485718e-01
2.916337239072185339e-01 8.303841606149582333e-01
2.926922855182677585e-01 1.093854075166515116e+00
2.937508471293169832e-01 1.109962741271210973e+00
2.948094087403662078e-01 1.137796688962954050e+00
2.958679703514154324e-01 9.084429732844014893e-01
2.969265319624646571e-01 8.376676293927829420e-01
2.979850935735138817e-01 1.231246974337178557e+00
2.990436551845630508e-01 1.112446015576885827e+00
3.001022167956122755e-01 8.760433264080305094e-01
3.011607784066615001e-01 9.289151055938198454e-01
3.022193400177107248e-01 1.014057208590756431e+00
3.032779016287599494e-01 9.586913579094087368e-01
3.043364632398091740e-01 1.107268513195144521e+00
3.053950248508583987e-01 1.051184487105675913e+00
3.064535864619076233e-01 1.028907822431467167e+00
3.075121480729568479e-01 9.799379511471357773e-01
3.085707096840060726e-01 9.719532179710377306e-01
3.096292712950552417e-01 8.342045446317634116e-01
3.106878329061044663e-01 1.028173672563870156e+00
3.117463945171536910e-01 9.884150096826900267e-01
3.128049561282029156e-01 9.437504062668047311e-01
3.138635177392521403e-01 9.863366070340973124e-01
3.149220793503013649e-01 9.940220987692676147e-01
3.159806409613505895e-01 1.033069808718931171e+00
3.170392025723998142e-01 9.811447860122832765e-01
3.180977641834490388e-01 9.387021218101239128e-01
3.191563257944982634e-01 1.022835874377911125e+00
3.202148874055474881e-01 1.178894165349522183e+00
3.212734490165967127e-01 1.019624424391640360e+00
3.223320106276459374e-01 9.009309132747596038e-01
3.233905722386951620e-01 1.013584791830744791e+00
3.244491338497443866e-01 9.659952218114362665e-01
3.255076954607936113e-01 1.049980752632510672e+00
3.265662570718428359e-01 1.003362730159132354e+00
3.276248186828920606e-01 8.564085700523733635e-01
3.286833802939412852e-01 9.261625709688097174e-01
3.297419419049905098e-01 7.528431745646706474e-01
3.308005035160397345e-01 7.402170290937206687e-01
3.318590651270889036e-01 9.847141878624370293e-01
3.329176267381381282e-01 8.267382942993037886e-01
3.339761883491873529e-01 8.102213616106048732e-01
3.350347499602365775e-01 7.085049932452420762e-01
3.360933115712858021e-01 7.264607667193097029e-01
3.371518731823350268e-01 1.007653768497682734e+00
3.382104347933842514e-01 1.060415730994652250e+00
3.392689964044334761e-01 8.280999795287478094e-01
3.403275580154827007e-01 7.793960835290612010e-01
3.413861196265319253e-01 9.186965471290093888e-01
3.424446812375810945e-01 1.116566234760760778e+00
3.435032428486303191e-01 9.635408937863907397e-01
3.445618044596795437e-01 9.658004877711903191e-01
3.456203660707287684e-01 9.047403164045988433e-01
3.466789276817779930e-01 8.019559785835923549e-01
3.477374892928272176e-01 8.555217143873115049e-01
3.487960509038764423e-01 6.986918767386534057e-01
3.498546125149256669e-01 7.132929498757079045e-01
3.509131741259748916e-01 6.926330543011367524e-01
3.519717357370241162e-01 7.685905181819734366e-01
3.530302973480732853e-01 6.582817115120107587e-01
3.540888589591225100e-01 5.261485263583622896e-01
3.551474205701717346e-01 6.563302037625575736e-01
3.562059821812209592e-01 6.219141481107008929e-01
3.572645437922701839e-01 5.761196851418795006e-01
3.583231054033194085e-01 7.271174598836438463e-01
3.593816670143686332e-01 7.945532944430695466e-01
3.604402286254178578e-01 7.096937685500925852e-01
3.614987902364670824e-01 8.904789331516589357e-01
3.625573518475163071e-01 1.032939334365277517e+00
3.636159134585655317e-01 9.725869968459690540e-01
3.646744750696147008e-01 7.964489026938750271e-01
3.657330366806639255e-01 8.054012157735783717e-01
3.667915982917131501e-01 7.502571012053067534e-01
3.678501599027623747e-01 5.636922341500891775e-01
3.689087215138115994e-01 4.923278233590764330e-01
3.699672831248608240e-01 3.853789935960598712e-01
3.710258447359100487e-01 6.429239470618171026e-01
3.720844063469592733e-01 7.410217252509134767e-01
3.731429679580084979e-01 6.379737003531396056e-01
3.742015295690577226e-01 7.215114209819795121e-01
3.752600911801069472e-01 6.846259464983184273e-01
3.763186527911561718e-01 6.566867864996552839e-01
3.773772144022053965e-01 8.384862507364196915e-01
3.784357760132546211e-01 6.133466869657091536e-01
3.794943376243038458e-01 4.884959480288699751e-01
3.805528992353530704e-01 6.711625206633051732e-01
3.816114608464022950e-01 6.623074027856254986e-01
3.826700224574515197e-01 5.227829243209427545e-01
3.837285840685007443e-01 5.739573094032266454e-01
3.847871456795499689e-01 5.274673960553428742e-01
3.858457072905991381e-01 5.599986582793441414e-01
3.869042689016483627e-01 6.246095875314487955e-01
3.879628305126975873e-01 4.808836279486250476e-01
3.890213921237468120e-01 6.946806670695977459e-01
3.900799537347960366e-01 8.725115211345766397e-01
3.911385153458452613e-01 7.888968255659030149e-01
3.921970769568944859e-01 6.122979117285112238e-01
3.932556385679437105e-01 5.022756683727109817e-01
3.943142001789929352e-01 5.154859488206113838e-01
3.953727617900421598e-01 7.272807478864855568e-01
3.964313234010913289e-01 7.897314093254692580e-01
3.974898850121405536e-01 5.460366228196598115e-01
3.985484466231897782e-01 4.822740726211272033e-01
3.996070082342390029e-01 3.294987209653150728e-01
4.006655698452882830e-01 3.826938657188385662e-01
4.017241314563373966e-01 6.284312128445819212e-01
4.027826930673866213e-01 6.899569067783275500e-01
4.038412546784358459e-01 6.907673794164814751e-01
4.048998162894850705e-01 5.995700307843243593e-01
4.059583779005342952e-01 6.441394228525716414e-01
4.070169395115835198e-01 7.016262206907875054e-01
4.080755011226327444e-01 7.845043074443900366e-01
4.091340627336819691e-01 8.918682608384784771e-01
4.101926243447311937e-01 6.402404587345138509e-01
4.112511859557804184e-01 7.441687786749184852e-01
4.123097475668296430e-01 7.476950746079005228e-01
4.133683091778788676e-01 7.712723461116475221e-01
4.144268707889280923e-01 6.125650435403571237e-01
4.154854323999773169e-01 4.256557035970232050e-01
4.165439940110265415e-01 4.332691800422310280e-01
4.176025556220757662e-01 4.123021276372149657e-01
4.186611172331249908e-01 5.396780899931243880e-01
4.197196788441742155e-01 6.156308880428618124e-01
4.207782404552234401e-01 5.561212412900822244e-01
4.218368020662726647e-01 5.815823574662992712e-01
4.228953636773218894e-01 5.643830453871494512e-01
4.239539252883710585e-01 7.089205156367022198e-01
4.250124868994202831e-01 6.563732186041377759e-01
4.260710485104695078e-01 6.043686795973819414e-01
4.271296101215187324e-01 5.844219700774146986e-01
4.281881717325679571e-01 5.909131217865812857e-01
4.292467333436171817e-01 7.026385526452934016e-01
4.303052949546664063e-01 6.510837439561143469e-01
4.313638565657156310e-01 6.077200487558265252e-01
4.324224181767648556e-01 5.770392190398361265e-01
4.334809797878140802e-01 6.253919459782579793e-01
4.345395413988633049e-01 5.662284664616734631e-01
4.355981030099125295e-01 6.561183400343217897e-01
4.366566646209617542e-01 5.122658929369130476e-01
4.377152262320109788e-01 4.439119421845525437e-01
4.387737878430602034e-01 5.202227238244034879e-01
4.398323494541094281e-01 6.293771375596861617e-01
4.408909110651586527e-01 9.081415295798009879e-01
4.419494726762078773e-01 5.717512864916862725e-01
