# q (1/angstrom), Intensity (arb)
2.064195147861814378e-02 3.865405027343267079e+02
2.170051308966736495e-02 4.267851856945094369e+02
2.275907470071658611e-02 4.543357469474359505e+02
2.381763631176580728e-02 4.723846257131843345e+02
2.487619792281502498e-02 4.817337863627585079e+02
2.593475953386424615e-02 4.902890240622075453e+02
2.699332114491346385e-02 4.963572802902968988e+02
2.805188275596268849e-02 5.032813127436348282e+02
2.911044436701190619e-02 5.044923006068997893e+02
3.016900597806112735e-02 4.991817886558083615e+02
3.122756758911034505e-02 4.902170969464436325e+02
3.228612920015957316e-02 4.844803781173818606e+02
3.334469081120879086e-02 4.797914867572751518e+02
3.440325242225800856e-02 4.765941448014328898e+02
3.546181403330722626e-02 4.719042647959207670e+02
3.652037564435644396e-02 4.661293190583909336e+02
3.757893725540567553e-02 4.596236736985384823e+02
3.863749886645489323e-02 4.542845698286947709e+02
3.969606047750411093e-02 4.469249615990316897e+02
4.075462208855332863e-02 4.410486666962232789e+02
4.181318369960255327e-02 4.341195221328608227e+02
4.287174531065177097e-02 4.239920055848608058e+02
4.393030692170099560e-02 4.169188977488365708e+02
4.498886853275021330e-02 4.105796332955781622e+02
4.604743014379943100e-02 4.040443315537611966e+02
4.710599175484865564e-02 3.949723666605404446e+02
4.816455336589787334e-02 3.858814820288330338e+02
4.922311497694709104e-02 3.806618699315739605e+02
5.028167658799630874e-02 3.740471749422541166e+02
5.134023819904553337e-02 3.644042379259391282e+02
5.239879981009475801e-02 3.580770465417180617e+02
5.345736142114396877e-02 3.528327502313452442e+02
5.451592303219319341e-02 3.452708568820896744e+02
5.557448464324241805e-02 3.358497358358760607e+02
5.663304625429163575e-02 3.309649348301502414e+02
5.769160786534086038e-02 3.234918961326883391e+02
5.875016947639008502e-02 3.148770234362044675e+02
5.980873108743929578e-02 3.079755816061831979e+02
6.086729269848852042e-02 3.015146796094425099e+02
6.192585430953773118e-02 2.950431931094415745e+02
6.298441592058695582e-02 2.862890221970234848e+02
6.404297753163618045e-02 2.781935048119067915e+02
6.510153914268539121e-02 2.715551046269267772e+02
6.616010075373461585e-02 2.655163369529633428e+02
6.721866236478384049e-02 2.578886772007375043e+02
6.827722397583306513e-02 2.505709843689737681e+02
6.933578558688228977e-02 2.453827933752294541e+02
7.039434719793150053e-02 2.385388018998473569e+02
7.145290880898072516e-02 2.314757712177764120e+02
7.251147042002993592e-02 2.247108571119221665e+02
7.357003203107916056e-02 2.176684612802449408e+02
7.462859364212838520e-02 2.113908504958327228e+02
7.568715525317759596e-02 2.046835485731608628e+02
7.674571686422682060e-02 1.971427631648558361e+02
7.780427847527604523e-02 1.911808380998546681e+02
7.886284008632526987e-02 1.855825581590174238e+02
7.992140169737449451e-02 1.794265173296431044e+02
8.097996330842370527e-02 1.725564987649243847e+02
8.203852491947292991e-02 1.659634751293819477e+02
8.309708653052215455e-02 1.605984687260031194e+02
8.415564814157136531e-02 1.554528285666364127e+02
8.521420975262058994e-02 1.495317682998131659e+02
8.627277136366980070e-02 1.444607208112101091e+02
8.733133297471902534e-02 1.386214439096359001e+02
8.838989458576824998e-02 1.320981375346126754e+02
8.944845619681746074e-02 1.267491258000242311e+02
9.050701780786668538e-02 1.221672482637957415e+02
9.156557941891591001e-02 1.172384398728250403e+02
9.262414102996513465e-02 1.126444642932672764e+02
9.368270264101435929e-02 1.076085436400213098e+02
9.474126425206357005e-02 1.022761030005165424e+02
9.579982586311279469e-02 9.746300365827028145e+01
9.685838747416200545e-02 9.235939166381071175e+01
9.791694908521123009e-02 8.906210721604001890e+01
9.897551069626045472e-02 8.553812188516087645e+01
1.000340723073096516e-01 8.118184667740300142e+01
1.010926339183588762e-01 7.678513951991511988e+01
1.021511955294081009e-01 7.298324194544267129e+01
1.032097571404573255e-01 6.950438135695756614e+01
1.042683187515065502e-01 6.702169147196725874e+01
1.053268803625557748e-01 6.381287604967998561e+01
1.063854419736049856e-01 6.014580244440380596e+01
1.074440035846542102e-01 5.744205094578175874e+01
1.085025651957034348e-01 5.424456037507318484e+01
1.095611268067526595e-01 5.122756693505745318e+01
1.106196884178018841e-01 4.830135752109835323e+01
1.116782500288510810e-01 4.576680649530071321e+01
1.127368116399003056e-01 4.308022384072872768e+01
1.137953732509495303e-01 4.035339122804064971e+01
1.148539348619987549e-01 3.848181413953446395e+01
1.159124964730479795e-01 3.659311679252959948e+01
1.169710580840972042e-01 3.406715746701043201e+01
1.180296196951464149e-01 3.182087003916666390e+01
1.190881813061956396e-01 3.005724277486593721e+01
1.201467429172448642e-01 2.781008135874265719e+01
1.212053045282940889e-01 2.572544136184006902e+01
1.222638661393433135e-01 2.438876894720742783e+01
1.233224277503925104e-01 2.349439566822105974e+01
1.243809893614417350e-01 2.192180923060324105e+01
1.254395509724909596e-01 2.024147025020763024e+01
1.264981125835401843e-01 1.883055914694648436e+01
1.275566741945894089e-01 1.745532515138053142e+01
1.286152358056386058e-01 1.644031090286023655e+01
1.296737974166878304e-01 1.534635629709143245e+01
1.307323590277370551e-01 1.352813818036146998e+01
1.317909206387862797e-01 1.254289626421158843e+01
1.328494822498355044e-01 1.215696077337767278e+01
1.339080438608847012e-01 1.084467132543403167e+01
1.349666054719339259e-01 1.072902179197271266e+01
1.360251670829831505e-01 1.040491198984085486e+01
1.370837286940323752e-01 9.110432135513761409e+00
1.381422903050815998e-01 8.435643755319457426e+00
1.392008519161308244e-01 7.889764190606019412e+00
1.402594135271800491e-01 7.576502415949516234e+00
1.413179751382292737e-01 6.899716309924698976e+00
1.423765367492784983e-01 5.881255904907707333e+00
1.434350983603277230e-01 5.625671967787681638e+00
1.444936599713769199e-01 5.404378054115660746e+00
1.455522215824261445e-01 5.009463482522463096e+00
1.466107831934753691e-01 4.663162741450658899e+00
1.476693448045245938e-01 4.626340757970446305e+00
1.487279064155738184e-01 4.470096124357123557e+00
1.497864680266230153e-01 4.247342503558293458e+00
1.508450296376722399e-01 4.007010280630193932e+00
1.519035912487214646e-01 3.669390286719938388e+00
1.529621528597706892e-01 3.453544683462677511e+00
1.540207144708199138e-01 3.187328603732655807e+00
1.550792760818691107e-01 3.116378672021763663e+00
1.561378376929183354e-01 3.175249443700192131e+00
1.571963993039675600e-01 3.020990798541049571e+00
1.582549609150167846e-01 2.961314554548533096e+00
1.593135225260660093e-01 3.127080408185911153e+00
1.603720841371152339e-01 3.058846505093491430e+00
1.614306457481644586e-01 3.287163060508198953e+00
1.624892073592136832e-01 3.621140093598246068e+00
1.635477689702629078e-01 3.512868458729855092e+00
1.646063305813121325e-01 3.326577577508583516e+00
1.656648921923613571e-01 3.370667696398406576e+00
1.667234538034105540e-01 2.712129490850987423e+00
1.677820154144597786e-01 2.720284630830445138e+00
1.688405770255090033e-01 3.036611696232125013e+00
1.698991386365582279e-01 3.223938627856576034e+00
1.709577002476074525e-01 3.083790458077960039e+00
1.720162618586566494e-01 3.268598493328894961e+00
1.730748234697058741e-01 3.069217805685983791e+00
1.741333850807550987e-01 3.325454848808945485e+00
1.751919466918043233e-01 3.414023993973906101e+00
1.762505083028535480e-01 3.229290621902478620e+00
1.773090699139027449e-01 3.241382760269093666e+00
1.783676315249519695e-01 2.954203348215855840e+00
1.794261931360011941e-01 3.255927662784714016e+00
1.804847547470504188e-01 3.521670722999434844e+00
1.815433163580996434e-01 3.684497160875121580e+00
1.826018779691488403e-01 3.570428435526249444e+00
1.836604395801980649e-01 3.142629975151130850e+00
1.847190011912472896e-01 3.002211708549481273e+00
1.857775628022965142e-01 3.279012292712341292e+00
1.868361244133457388e-01 3.430028882158993042e+00
1.878946860243949635e-01 3.535106336004400163e+00
1.889532476354441881e-01 3.979823266925802017e+00
1.900118092464934128e-01 3.678248258945725269e+00
1.910703708575426374e-01 3.906844217915455886e+00
1.921289324685918620e-01 4.022423436273211195e+00
1.931874940796410589e-01 3.909246145401159112e+00
1.942460556906902835e-01 3.683188009213356651e+00
1.953046173017395082e-01 3.984206216365777209e+00
1.963631789127887328e-01 3.808983647012038176e+00
1.974217405238379575e-01 3.580306774664041569e+00
1.984803021348871543e-01 3.515025987700841625e+00
1.995388637459363790e-01 3.817470590537961783e+00
2.005974253569856036e-01 3.935559462254616392e+00
2.016559869680347727e-01 3.528321396285139855e+00
2.027145485790839974e-01 3.372775404568844948e+00
2.037731101901332220e-01 3.280979065107864301e+00
2.048316718011824467e-01 3.543692722677210583e+00
2.058902334122316713e-01 3.467344314951802176e+00
2.069487950232808959e-01 3.543088571065663217e+00
2.080073566343301206e-01 3.737691594904351433e+00
2.090659182453793452e-01 3.527758163543897041e+00
2.101244798564285698e-01 3.087764170686348564e+00
2.111830414674777945e-01 3.351666430753649450e+00
2.122416030785269914e-01 3.479313061898771764e+00
2.133001646895762160e-01 3.464003412970086515e+00
2.143587263006254406e-01 3.497265257708061625e+00
2.154172879116746653e-01 3.451506400775389949e+00
2.164758495227238899e-01 3.128542268393754711e+00
2.175344111337731146e-01 2.963513571094079424e+00
2.185929727448223392e-01 2.940064862834347537e+00
2.196515343558715638e-01 3.282649555448582390e+00
2.207100959669207885e-01 2.931314566856407566e+00
2.217686575779700131e-01 2.609526611088188730e+00
2.228272191890191822e-01 2.554414116642831800e+00
2.238857808000684069e-01 2.680953237694659208e+00
2.249443424111176315e-01 2.667016509791032775e+00
2.260029040221668561e-01 2.491458374913694485e+00
2.270614656332160808e-01 2.455997794805714562e+00
2.281200272442653054e-01 2.816493619341674304e+00
2.291785888553145301e-01 2.617811458784434109e+00
2.302371504663637547e-01 2.353907585498074440e+00
2.312957120774129793e-01 2.196162120521726990e+00
2.323542736884622040e-01 2.153230775355950755e+00
2.334128352995114286e-01 2.138616815535929305e+00
2.344713969105606255e-01 1.998501970253137472e+00
2.355299585216098501e-01 1.726391983572575839e+00
2.365885201326590748e-01 1.746703723882152559e+00
2.376470817437082994e-01 1.962810069382314282e+00
2.387056433547575240e-01 2.045312968465321291e+00
2.397642049658067487e-01 2.125354993001906223e+00
2.408227665768559733e-01 1.987935536137655390e+00
2.418813281879051980e-01 1.687927520049782970e+00
2.429398897989544226e-01 1.817108267323423121e+00
2.439984514100036472e-01 1.847652874363202358e+00
2.450570130210528164e-01 1.522293795120891247e+00
2.461155746321020410e-01 1.420397089685231151e+00
2.471741362431512656e-01 1.660221771212576414e+00
2.482326978542004903e-01 1.580744334176621635e+00
2.492912594652497149e-01 1.438663806178148263e+00
2.503498210762989395e-01 1.292743749512546003e+00
2.514083826873481642e-01 1.547521269899409191e+00
2.524669442983973888e-01 1.539084025190724958e+00
2.535255059094466135e-01 1.554140779173224018e+00
2.545840675204958381e-01 1.259704922314544007e+00
2.556426291315450072e-01 1.285083629496828195e+00
2.567011907425942319e-01 1.274856182700581542e+00
2.577597523536434565e-01 1.258452335824344459e+00
2.588183139646926811e-01 1.136771224477019615e+00
2.598768755757419058e-01 1.385358137177828297e+00
2.609354371867911304e-01 1.476857522920180799e+00
2.619939987978403551e-01 1.285188840485478323e+00
2.630525604088895797e-01 9.418563670715052183e-01
2.641111220199388043e-01 9.392081959890781206e-01
2.651696836309880290e-01 1.039367747892285365e+00
2.662282452420371981e-01 9.658432183844283259e-01
2.672868068530864227e-01 8.054803551701219533e-01
2.683453684641356474e-01 1.150170107857608315e+00
2.694039300751848720e-01 1.167720729781265732e+00
2.704624916862340966e-01 8.730026376219726103e-01
2.715210532972833213e-01 1.177862567285878015e+00
2.725796149083325459e-01 1.036221499001772628e+00
2.736381765193817706e-01 8.037122392230848789e-01
2.746967381304309952e-01 8.506422247616391985e-01
2.757552997414802198e-01 1.180213262858359258e+00
2.768138613525294445e-01 9.061318268013422994e-01
2.778724229635786691e-01 9.787184149350487417e-01
2.789309845746278937e-01 9.575177885541776845e-01
2.799895461856771184e-01 9.126251904179909502e-01
2.810481077967263430e-01 5.935666557984440317e-01
2.821066694077755677e-01 9.275203458767897757e-01
2.831652310188247923e-01 8.505069474632485083e-01
2.842237926298740169e-01 6.510132122415335232e-01
2.852823542409232416e-01 7.679805233535113018e-01
2.863409158519724662e-01 7.270418755172904923e-01
2.873994774630216908e-01 7.569824914698024543e-01
2.884580390740708600e-01 6.546991083845270509e-01
2.895166006851200846e-01 4.970933486693205339e-01
2.905751622961693093e-01 5.461674269229561673e-01
2.916337239072185339e-01 4.907221742160281508e-01
2.926922855182677585e-01 4.903106749077359439e-01
2.937508471293169832e-01 7.807816782254839438e-01
2.948094087403662078e-01 9.766493784658472066e-01
2.958679703514154324e-01 8.061808583376048887e-01
2.969265319624646571e-01 8.013951496400508745e-01
2.979850935735138817e-01 7.096823902258897476e-01
2.990436551845630508e-01 5.497090414005256775e-01
3.001022167956122755e-01 8.188359829247175981e-01
3.011607784066615001e-01 1.071414601503956732e+00
3.022193400177107248e-01 1.093997011946452602e+00
3.032779016287599494e-01 1.085301728948824262e+00
3.043364632398091740e-01 8.142923634541965328e-01
3.053950248508583987e-01 9.111224496940018014e-01
3.064535864619076233e-01 7.865442384633780648e-01
3.075121480729568479e-01 8.214828645996519185e-01
3.085707096840060726e-01 7.651296699647858190e-01
3.096292712950552417e-01 7.561867236088026800e-01
3.106878329061044663e-01 7.100349612149017275e-01
3.117463945171536910e-01 8.313449660362124405e-01
3.128049561282029156e-01 7.755341275615670327e-01
3.138635177392521403e-01 6.847841867105550762e-01
3.149220793503013649e-01 8.978425532912694962e-01
3.159806409613505895e-01 9.930579839189128677e-01
3.170392025723998142e-01 9.442701491205873765e-01
3.180977641834490388e-01 8.981979732199185662e-01
3.191563257944982634e-01 7.841833851917101583e-01
3.202148874055474881e-01 7.887707010558813181e-01
3.212734490165967127e-01 9.081388270889192427e-01
3.223320106276459374e-01 7.862499319706550693e-01
3.233905722386951620e-01 5.885571851308881719e-01
3.244491338497443866e-01 5.160171927369319178e-01
3.255076954607936113e-01 8.950677545599390328e-01
3.265662570718428359e-01 8.284738937546798354e-01
3.276248186828920606e-01 6.351778298602575035e-01
3.286833802939412852e-01 3.574207897447045923e-01
3.297419419049905098e-01 4.300747242802387404e-01
3.308005035160397345e-01 5.772176795664591964e-01
3.318590651270889036e-01 5.727496364651400995e-01
3.329176267381381282e-01 6.965309899019125339e-01
3.339761883491873529e-01 6.910528383470477820e-01
3.350347499602365775e-01 7.000965745261211737e-01
3.360933115712858021e-01 6.572520594187487575e-01
3.371518731823350268e-01 4.583533193048374699e-01
3.382104347933842514e-01 6.103494782107361516e-01
3.392689964044334761e-01 6.974301135298972554e-01
3.403275580154827007e-01 7.722859562612107709e-01
3.413861196265319253e-01 7.902809258927092628e-01
3.424446812375810945e-01 6.470085417987192500e-01
3.435032428486303191e-01 4.513593275703016161e-01
3.445618044596795437e-01 4.490315353148019994e-01
3.456203660707287684e-01 5.507017732791119613e-01
3.466789276817779930e-01 6.296953704007499653e-01
3.477374892928272176e-01 6.846235631645356534e-01
3.487960509038764423e-01 5.988970885069839767e-01
3.498546125149256669e-01 5.431070341682264768e-01
3.509131741259748916e-01 4.319381538072555315e-01
3.519717357370241162e-01 4.168250611350821089e-01
3.530302973480732853e-01 5.328203769008581503e-01
3.540888589591225100e-01 2.654616424189164547e-01
3.551474205701717346e-01 2.540288076967094355e-01
3.562059821812209592e-01 4.029145374272360414e-01
3.572645437922701839e-01 6.525021525977692249e-01
3.583231054033194085e-01 5.795200434514740095e-01
3.593816670143686332e-01 6.929472989084430878e-01
3.604402286254178578e-01 7.311317061901050351e-01
3.614987902364670824e-01 7.063095525693796617e-01
3.625573518475163071e-01 6.415665126557250630e-01
3.636159134585655317e-01 5.914567413535323226e-01
3.646744750696147008e-01 6.846954357312178274e-01
3.657330366806639255e-01 7.645297955828560532e-01
3.667915982917131501e-01 9.562857460018499012e-01
3.678501599027623747e-01 8.003213701523996804e-01
3.689087215138115994e-01 5.689781840424679160e-01
3.699672831248608240e-01 5.491072765375548670e-01
3.710258447359100487e-01 3.388013093901385275e-01
3.720844063469592733e-01 6.394354851121093475e-01
3.731429679580084979e-01 7.018204721055596451e-01
3.742015295690577226e-01 5.192799725201133754e-01
3.752600911801069472e-01 4.286238515988323172e-01
3.763186527911561718e-01 4.196589161097357135e-01
3.773772144022053965e-01 3.957570734767976717e-01
3.784357760132546211e-01 3.398353381382150928e-01
3.794943376243038458e-01 4.440091892989102007e-01
3.805528992353530704e-01 5.533505873143411691e-01
3.816114608464022950e-01 6.683599944925653347e-01
3.826700224574515197e-01 5.558361377621530153e-01
3.837285840685007443e-01 3.875371805462286545e-01
3.847871456795499689e-01 4.475324930994055705e-01
3.858457072905991381e-01 4.856279415341937522e-01
3.869042689016483627e-01 5.719470216673521179e-01
3.879628305126975873e-01 5.607744586775211815e-01
3.890213921237468120e-01 5.183704978530769836e-01
3.900799537347960366e-01 5.810267846795689195e-01
3.911385153458452613e-01 5.099854016297307169e-01
3.921970769568944859e-01 5.199416207987042071e-01
3.932556385679437105e-01 5.947636055253866516e-01
3.943142001789929352e-01 7.369197769612831905e-01
3.953727617900421598e-01 6.895532874906855625e-01
3.964313234010913289e-01 6.545096893051649545e-01
3.974898850121405536e-01 5.601050226541524069e-01
3.985484466231897782e-01 7.547396013845144580e-01
3.996070082342390029e-01 5.865041304961913227e-01
4.006655698452882830e-01 6.116141795327614261e-01
4.017241314563373966e-01 4.602154872766490712e-01
4.027826930673866213e-01 5.519200628898879302e-01
4.038412546784358459e-01 4.781668474610079045e-01
4.048998162894850705e-01 3.592221591251210100e-01
4.059583779005342952e-01 3.291586631002481056e-01
4.070169395115835198e-01 3.417157253475551215e-01
4.080755011226327444e-01 4.076120594563654720e-01
4.091340627336819691e-01 4.302446105681170252e-01
4.101926243447311937e-01 4.202273405521026461e-01
4.112511859557804184e-01 2.219006250044195383e-01
4.123097475668296430e-01 1.567176436502286663e-01
4.133683091778788676e-01 3.036943167259487097e-01
4.144268707889280923e-01 2.502217635607841828e-01
4.154854323999773169e-01 3.073924623808999002e-01
4.165439940110265415e-01 4.597528626615456915e-01
4.176025556220757662e-01 5.693835183464308614e-01
4.186611172331249908e-01 7.023068715717961652e-01
4.197196788441742155e-01 6.121543377881941694e-01
4.207782404552234401e-01 3.276581395315538714e-01
4.218368020662726647e-01 3.964637353395765729e-01
4.228953636773218894e-01 4.496623493505467195e-01
4.239539252883710585e-01 5.454605561147580772e-01
4.250124868994202831e-01 4.518644827117732632e-01
4.260710485104695078e-01 3.291357664503244962e-01
4.271296101215187324e-01 3.933011032644913030e-01
4.281881717325679571e-01 4.252997337728174898e-01
4.292467333436171817e-01 4.026231466212450982e-01
4.303052949546664063e-01 2.945247514421929225e-01
4.313638565657156310e-01 2.663811993346740792e-01
4.324224181767648556e-01 5.797606624244302509e-01
4.334809797878140802e-01 4.379556911526023555e-01
4.345395413988633049e-01 2.523438877884665033e-01
4.355981030099125295e-01 2.817245946720277061e-01
4.366566646209617542e-01 3.197998153687251488e-01
4.377152262320109788e-01 4.952746245942982739e-01
4.387737878430602034e-01 5.294263997977566305e-01
4.398323494541094281e-01 6.192545582122122028e-01
4.408909110651586527e-01 5.357959579813389439e-01
4.419494726762078773e-01 4.078554849585565023e-01
