# q (1/Angstrom), Intensity (arb)
2.078726924066784734e-02 9.382244675350963803e+01
2.212838338006469993e-02 1.777087799289476777e+02
2.346949751946154905e-02 2.585419248834871269e+02
2.481061165885840164e-02 3.558863436724794838e+02
2.615172579825525423e-02 4.045292589122337858e+02
2.749283993765210335e-02 4.249566476511292876e+02
2.883395407704895941e-02 4.467328478904095164e+02
3.017506821644580506e-02 4.622712160456202923e+02
3.151618235584265765e-02 4.659769465999196427e+02
3.285729649523951718e-02 4.689646791818624365e+02
3.419841063463636283e-02 4.683076584843223031e+02
3.553952477403321542e-02 4.651704597574631634e+02
3.688063891343006800e-02 4.612243531098222888e+02
3.822175305282692059e-02 4.640924831602810627e+02
3.956286719222376624e-02 4.596480045046602640e+02
4.090398133162062577e-02 4.545286377426889999e+02
4.224509547101747142e-02 4.538281185485780043e+02
4.358620961041432401e-02 4.500241184837008745e+02
4.492732374981117660e-02 4.449546477984793000e+02
4.626843788920802919e-02 4.424902059638339438e+02
4.760955202860488178e-02 4.375079862611368071e+02
4.895066616800172743e-02 4.332895323264525587e+02
5.029178030739858696e-02 4.299902559287754684e+02
5.163289444679544649e-02 4.253988492665484387e+02
5.297400858619229214e-02 4.204488703156291081e+02
5.431512272558913779e-02 4.180297617861249933e+02
5.565623686498599731e-02 4.093597413415344590e+02
5.699735100438284990e-02 3.989677301918989656e+02
5.833846514377969555e-02 3.964768921339936014e+02
5.967957928317654814e-02 3.935154830514736659e+02
6.102069342257340767e-02 3.856350109193514299e+02
6.236180756197025332e-02 3.787528232608519261e+02
6.370292170136709897e-02 3.729051702476546097e+02
6.504403584076395850e-02 3.672889194597094047e+02
6.638514998016080415e-02 3.601601355521923438e+02
6.772626411955766368e-02 3.518474310547800883e+02
6.906737825895450933e-02 3.452268062628586449e+02
7.040849239835136886e-02 3.368071538492223453e+02
7.174960653774821451e-02 3.285126917908827409e+02
7.309072067714506016e-02 3.195031043374404476e+02
7.443183481654190581e-02 3.128588021280904172e+02
7.577294895593877921e-02 3.047890546332740769e+02
7.711406309533562486e-02 2.937185053991328800e+02
7.845517723473247051e-02 2.872957262164539998e+02
7.979629137412933004e-02 2.817237244440257768e+02
8.113740551352617569e-02 2.739890721719514772e+02
8.247851965292302134e-02 2.663777413971027386e+02
8.381963379231988087e-02 2.592502247120013976e+02
8.516074793171674040e-02 2.516940634505133403e+02
8.650186207111358605e-02 2.425790273053683563e+02
8.784297621051043170e-02 2.340118408731763111e+02
8.918409034990729123e-02 2.269726352326713652e+02
9.052520448930413688e-02 2.201652982281742936e+02
9.186631862870098253e-02 2.139062801351684016e+02
9.320743276809784206e-02 2.074425785776643352e+02
9.454854690749470159e-02 1.995733425337980975e+02
9.588966104689154724e-02 1.933938621375936862e+02
9.723077518628839289e-02 1.868842098438664436e+02
9.857188932568525241e-02 1.792846281153563552e+02
9.991300346508209806e-02 1.732273822522332978e+02
1.012541176044789437e-01 1.668434494183109109e+02
1.025952317438758032e-01 1.603349698622677124e+02
1.039363458832726350e-01 1.529176771816074449e+02
1.052774600226694945e-01 1.466712292266348925e+02
1.066185741620663541e-01 1.416007882785133347e+02
1.079596883014631858e-01 1.352022372442748406e+02
1.093008024408600454e-01 1.302325246182461740e+02
1.106419165802569049e-01 1.246348340832934980e+02
1.119830307196537506e-01 1.192977988642110176e+02
1.133241448590506101e-01 1.137059676272337185e+02
1.146652589984474419e-01 1.081793992833326143e+02
1.160063731378443014e-01 1.026513685337707784e+02
1.173474872772411609e-01 9.894915438913568551e+01
1.186886014166380066e-01 9.512515598203084721e+01
1.200297155560348661e-01 9.008639776605267002e+01
1.213708296954317256e-01 8.551237398552382274e+01
1.227119438348285574e-01 8.194326240076766510e+01
1.240530579742254169e-01 7.917609453467939318e+01
1.253941721136222764e-01 7.341052135122690459e+01
1.267352862530191082e-01 6.812812319036203235e+01
1.280764003924159677e-01 6.478157566657480970e+01
1.294175145318128273e-01 6.074721793118368396e+01
1.307586286712096590e-01 5.711154403849107553e+01
1.320997428106065186e-01 5.393768514009592252e+01
1.334408569500033781e-01 5.064302316730581310e+01
1.347819710894002376e-01 4.781962216580886604e+01
1.361230852287970972e-01 4.485294589700710333e+01
1.374641993681939289e-01 4.249504406616189556e+01
1.388053135075907885e-01 3.930301034519499126e+01
1.401464276469876480e-01 3.573723534286159520e+01
1.414875417863844798e-01 3.394373447229214946e+01
1.428286559257813393e-01 3.240187148570998943e+01
1.441697700651781988e-01 2.976290495395649316e+01
1.455108842045750306e-01 2.695587198221340941e+01
1.468519983439718901e-01 2.498436360505243670e+01
1.481931124833687219e-01 2.309142118946608946e+01
1.495342266227655814e-01 2.126647251013106654e+01
1.508753407621624687e-01 2.026339292317335605e+01
1.522164549015593005e-01 1.821476491574451018e+01
1.535575690409561600e-01 1.631654240591377913e+01
1.548986831803530195e-01 1.490973088496001253e+01
1.562397973197498513e-01 1.335250869247468586e+01
1.575809114591467108e-01 1.231697669126039330e+01
1.589220255985435704e-01 1.113875966215908875e+01
1.602631397379404021e-01 1.048155999466970911e+01
1.616042538773372617e-01 9.113832975342234022e+00
1.629453680167341212e-01 8.163292699445094058e+00
1.642864821561309530e-01 7.172783578232071022e+00
1.656275962955278125e-01 6.753014396327230884e+00
1.669687104349246720e-01 6.132118623813028080e+00
1.683098245743215315e-01 6.076833342169393859e+00
1.696509387137183911e-01 4.686852867021684688e+00
1.709920528531152228e-01 3.619447759169375445e+00
1.723331669925120824e-01 3.995303783170598422e+00
1.736742811319089419e-01 3.446102813712300872e+00
1.750153952713057737e-01 2.443465058450073002e+00
1.763565094107026332e-01 2.324009074731122837e+00
1.776976235500994927e-01 1.537009145757068040e+00
1.790387376894963245e-01 1.145150302787854457e+00
1.803798518288931840e-01 1.111185054657838123e+00
1.817209659682900158e-01 1.558012905720360664e+00
1.830620801076868753e-01 1.181681391129430381e+00
1.844031942470837349e-01 1.008956180700934624e+00
1.857443083864805944e-01 1.068091020520441248e+00
1.870854225258774539e-01 5.948795271020230757e-01
1.884265366652743134e-01 3.073035288943515297e-02
1.897676508046711452e-01 1.423690116574107378e+00
1.911087649440680047e-01 1.368034512553592208e+00
1.924498790834648643e-01 1.177277401403202362e+00
1.937909932228616960e-01 1.352624146654399340e+00
1.951321073622585556e-01 1.250494157414657082e+00
1.964732215016554151e-01 1.619959546985320742e+00
1.978143356410522469e-01 1.138666371507191855e+00
1.991554497804491064e-01 8.135967457719885942e-01
2.004965639198459382e-01 1.279128076908534695e+00
2.018376780592427977e-01 1.746770793232208518e+00
2.031787921986396572e-01 1.780369169124654150e+00
2.045199063380365168e-01 2.350392289920883115e+00
2.058610204774333763e-01 2.454109143974548601e+00
2.072021346168302081e-01 1.897345920779827111e+00
2.085432487562270676e-01 1.941494530762398085e+00
2.098843628956239271e-01 2.424679168520540884e+00
2.112254770350207866e-01 2.869914859266579299e+00
2.125665911744176462e-01 2.635310989766317391e+00
2.139077053138144502e-01 2.972813194804004411e+00
2.152488194532113097e-01 3.000264945841763620e+00
2.165899335926081692e-01 3.367403999066382880e+00
2.179310477320050288e-01 3.542197484599995505e+00
2.192721618714018883e-01 3.259658574085314342e+00
2.206132760107987478e-01 2.836024329221700668e+00
2.219543901501955796e-01 3.232462923825629275e+00
2.232955042895924391e-01 4.105830764975017644e+00
2.246366184289892987e-01 4.135627701495437236e+00
2.259777325683861582e-01 4.134758715258065820e+00
2.273188467077830177e-01 4.144644008137930768e+00
2.286599608471798217e-01 4.063441565045437187e+00
2.300010749865766813e-01 3.902874919799465658e+00
2.313421891259735408e-01 4.185123257982205303e+00
2.326833032653704003e-01 4.276141811239483559e+00
2.340244174047672598e-01 4.119275457997822798e+00
2.353655315441641194e-01 4.207770739191879272e+00
2.367066456835609234e-01 4.447054367262794017e+00
2.380477598229577829e-01 4.365382715653993273e+00
2.393888739623546424e-01 4.229900578037721459e+00
2.407299881017515020e-01 4.127702097494349687e+00
2.420711022411483615e-01 4.004454332469393307e+00
2.434122163805451933e-01 4.298337616368890224e+00
2.447533305199420528e-01 4.452403438910053524e+00
2.460944446593389123e-01 4.438483317794862160e+00
2.474355587987357719e-01 4.466319738947049700e+00
2.487766729381326314e-01 4.290061672093727907e+00
2.501177870775294632e-01 4.127840470118812277e+00
2.514589012169263227e-01 3.567796872810603759e+00
2.528000153563231822e-01 3.696712941029893784e+00
2.541411294957200417e-01 3.309343946148928239e+00
2.554822436351169013e-01 3.329427548085696742e+00
2.568233577745137608e-01 4.189411268734019700e+00
2.581644719139106203e-01 3.899990171667688799e+00
2.595055860533074243e-01 3.524728190198494815e+00
2.608467001927042839e-01 3.667475088702076391e+00
2.621878143321011434e-01 3.803845114980923370e+00
2.635289284714980029e-01 3.475888031966690050e+00
2.648700426108948625e-01 3.155736409616579863e+00
2.662111567502916665e-01 3.357138840306220118e+00
2.675522708896885260e-01 3.138610256686327205e+00
2.688933850290853855e-01 3.136941907712071043e+00
2.702344991684822451e-01 2.967070645411837404e+00
2.715756133078791046e-01 2.592798618318454373e+00
2.729167274472759641e-01 2.327932231711542954e+00
2.742578415866727681e-01 2.258090010098946721e+00
2.755989557260696277e-01 2.263765809925899930e+00
2.769400698654664872e-01 2.561615086354670723e+00
2.782811840048633467e-01 2.226290857963427072e+00
2.796222981442602062e-01 1.825658427320625776e+00
2.809634122836570103e-01 1.714054307402570032e+00
2.823045264230538698e-01 1.831557559725439432e+00
2.836456405624507293e-01 1.870574349759962729e+00
2.849867547018475888e-01 1.921001886971474448e+00
2.863278688412444484e-01 1.739062599060581249e+00
2.876689829806413079e-01 2.073869944525370101e+00
2.890100971200381674e-01 1.921346450870693445e+00
2.903512112594350270e-01 1.797998122540406030e+00
2.916923253988318865e-01 1.609608065986066094e+00
2.930334395382287460e-01 1.258084756866288956e+00
2.943745536776256055e-01 9.223212877918669506e-01
2.957156678170224096e-01 1.298662282450521843e+00
2.970567819564192691e-01 1.268143060458676530e+00
2.983978960958161286e-01 1.042438115111508523e+00
2.997390102352129881e-01 1.130297727025997290e+00
3.010801243746098477e-01 1.146774439358807740e+00
3.024212385140067072e-01 1.610721233032023747e+00
3.037623526534035112e-01 1.367786346265553732e+00
3.051034667928003707e-01 9.375038833264994764e-01
3.064445809321972303e-01 1.201621871302187117e+00
3.077856950715940898e-01 9.688635349384995266e-01
3.091268092109909493e-01 8.443715324658214172e-01
3.104679233503877533e-01 1.155362020181357252e+00
3.118090374897846129e-01 9.758402064708064927e-01
3.131501516291814724e-01 1.198828954342786801e+00
3.144912657685783319e-01 8.527356163041375225e-01
3.158323799079751915e-01 9.453516768621312849e-01
3.171734940473720510e-01 7.085486196618049348e-01
3.185146081867689105e-01 0.000000000000000000e+00
3.198557223261657700e-01 1.312317875855484317e-01
3.211968364655626296e-01 3.815239219726578312e-01
3.225379506049594891e-01 3.093005558938699551e-01
3.238790647443563486e-01 3.394204789698704872e-01
3.252201788837532082e-01 6.742697640813588578e-01
3.265612930231500122e-01 6.324413455828263864e-01
3.279024071625468717e-01 4.090278415975134862e-01
3.292435213019437312e-01 4.602098581888398598e-01
3.305846354413405908e-01 1.125990506207131148e+00
3.319257495807374503e-01 5.659858551716254738e-01
3.332668637201342543e-01 2.645945206189708188e-01
3.346079778595311138e-01 3.141625639079421717e-01
3.359490919989279734e-01 4.858690692351359530e-01
3.372902061383248329e-01 3.216171634911191290e-01
3.386313202777216924e-01 1.728969619376101718e-01
3.399724344171185519e-01 3.582347780528536418e-01
3.413135485565153560e-01 1.096538780275729152e+00
3.426546626959122155e-01 9.273690980032611719e-01
3.439957768353090750e-01 7.774486538648019973e-01
3.453368909747059345e-01 9.275165452650355746e-01
3.466780051141027941e-01 9.519722595519013453e-01
3.480191192534995981e-01 1.156519992879040615e+00
3.493602333928964576e-01 1.242854983195194052e+00
3.507013475322933171e-01 1.196088764608887800e+00
3.520424616716901767e-01 9.446244689270315575e-01
3.533835758110870362e-01 7.340733328320681039e-01
3.547246899504838957e-01 8.799716574289249138e-01
3.560658040898807553e-01 7.473217343205647012e-01
3.574069182292776148e-01 8.616533467150730985e-01
3.587480323686744743e-01 6.992787762964596254e-01
3.600891465080713338e-01 7.819899387320390360e-01
3.614302606474681934e-01 8.834879454090938111e-01
3.627713747868649974e-01 7.772016931544598606e-01
3.641124889262618569e-01 7.477576800119791756e-01
3.654536030656587164e-01 4.177798008497148885e-01
3.667947172050555760e-01 9.675846172128146350e-01
3.681358313444524355e-01 1.615456343941794159e+00
3.694769454838492950e-01 1.516393282660040143e+00
3.708180596232460990e-01 9.284630443982209158e-01
3.721591737626429586e-01 8.717645861462344214e-01
3.735002879020398181e-01 8.162944851625653087e-01
3.748414020414366776e-01 8.415466206978976516e-01
3.761825161808335372e-01 8.381689218472132552e-01
3.775236303202303967e-01 1.001804051915343052e+00
3.788647444596272007e-01 9.368437696769120748e-01
3.802058585990240602e-01 9.005860101949849650e-01
3.815469727384209198e-01 1.060068746567758069e+00
3.828880868778177793e-01 9.594995119982385745e-01
3.842292010172146388e-01 1.143900259237639716e+00
3.855703151566114428e-01 9.381803612620629451e-01
3.869114292960083024e-01 1.011416235107958528e+00
3.882525434354051619e-01 1.221877649761090368e+00
3.895936575748020214e-01 1.134824271946214935e+00
3.909347717141988809e-01 6.768607665440811161e-01
3.922758858535957405e-01 5.691069373322648062e-01
3.936169999929926000e-01 1.037621215916253448e+00
3.949581141323894595e-01 1.001024353398626943e+00
3.962992282717863191e-01 8.894579633096952875e-01
3.976403424111831786e-01 3.531169647658174426e-01
3.989814565505800381e-01 6.844151824442761267e-01
4.003225706899768976e-01 7.115357605288679110e-01
4.016636848293737572e-01 6.874566457391821928e-01
4.030047989687706167e-01 7.501246588756274036e-01
4.043459131081674207e-01 9.318829906645120786e-01
4.056870272475643358e-01 8.848670494771297967e-01
4.070281413869611398e-01 1.105783498844893131e+00
4.083692555263580548e-01 1.178153652656369843e+00
4.097103696657548588e-01 1.213731138385064412e+00
4.110514838051517739e-01 1.262723131428785450e+00
4.123925979445485779e-01 1.158797090042305911e+00
4.137337120839453819e-01 9.107253341870347185e-01
4.150748262233422969e-01 7.012496890540305117e-01
4.164159403627391010e-01 6.358219543741583379e-01
4.177570545021360160e-01 7.658008746641584708e-01
4.190981686415328200e-01 5.712633796879771353e-01
4.204392827809296240e-01 5.649968307269261913e-01
4.217803969203265391e-01 5.657533517779569365e-01
4.231215110597233431e-01 3.834694568815493199e-01
4.244626251991202581e-01 6.118668584391926402e-01
4.258037393385170621e-01 7.377283006078627636e-01
4.271448534779138662e-01 9.860893772288292780e-01
4.284859676173107812e-01 1.246624806591881907e+00
4.298270817567075852e-01 9.217544217656055139e-01
4.311681958961045003e-01 6.678049553528850879e-01
4.325093100355013043e-01 5.072658436665662407e-01
4.338504241748981638e-01 4.937106383494196393e-01
4.351915383142950233e-01 3.324243279144951657e-01
4.365326524536918829e-01 6.207922741702418534e-01
4.378737665930887424e-01 8.864026402552767081e-01
4.392148807324856019e-01 7.508336493882197260e-01
4.405559948718824614e-01 6.757617880866106930e-01
4.418971090112793210e-01 5.047301599478188905e-01
4.432382231506761250e-01 2.627212765551263374e-01
4.445793372900730400e-01 3.000617367319620143e-01
4.459204514294698440e-01 4.475585207473358196e-01
4.472615655688667591e-01 8.063356239570254047e-01
4.486026797082635631e-01 6.660975437748888339e-01
4.499437938476603671e-01 4.661115452129109826e-01
4.512849079870572822e-01 3.727122369399467061e-01
4.526260221264540862e-01 5.677311782901242054e-01
4.539671362658510012e-01 4.076003640925094373e-01
4.553082504052478052e-01 4.083209042612878648e-01
4.566493645446446092e-01 4.100920583940634856e-01
4.579904786840415243e-01 2.796106879033786186e-01
4.593315928234383283e-01 1.393569750353975678e-01
4.606727069628352433e-01 3.329371504707552276e-01
4.620138211022320474e-01 2.882439792309554605e-01
4.633549352416289624e-01 6.520287232091277474e-01
4.646960493810257664e-01 5.340221215491354201e-01
4.660371635204225704e-01 4.755784468439330226e-01
4.673782776598194855e-01 4.449300792150197026e-01
4.687193917992162895e-01 6.178524481940286250e-01
4.700605059386132045e-01 6.024351959538591927e-01
4.714016200780100085e-01 5.737241251141398379e-01
4.727427342174068681e-01 4.000328910561634643e-01
4.740838483568037276e-01 5.268926168019874012e-01
4.754249624962005871e-01 3.209703410701223447e-01
4.767660766355974467e-01 5.986324353072589588e-01
4.781071907749943062e-01 6.142085959296181841e-01
4.794483049143911102e-01 6.704630386255914232e-01
4.807894190537880252e-01 6.546915645862014799e-01
4.821305331931848293e-01 6.957589745115200230e-01
4.834716473325817443e-01 5.505753149624155185e-01
4.848127614719785483e-01 4.321095675299204686e-01
4.861538756113753523e-01 5.864720770843376840e-01
4.874949897507722674e-01 2.720421047182171037e-01
4.888361038901690714e-01 7.378798041720031620e-01
4.901772180295659864e-01 7.753422113323793496e-01
4.915183321689627904e-01 7.414702775624419928e-01
4.928594463083597055e-01 5.445802037552098795e-01
4.942005604477565095e-01 5.624367555116975836e-01
4.955416745871533135e-01 3.849804475970088902e-01
4.968827887265502286e-01 6.927868835682176041e-01
4.982239028659470326e-01 6.029589471383758337e-01
4.995650170053439476e-01 4.041571224134017370e-01
5.009061311447408071e-01 2.034924445504486812e-01
5.022472452841375556e-01 2.437380339642771787e-01
5.035883594235345262e-01 6.033477749717235383e-01
5.049294735629312747e-01 6.549686855803429353e-01
5.062705877023282452e-01 6.601816314868713675e-01
5.076117018417249938e-01 6.034974478937087383e-01
5.089528159811218533e-01 4.600624925363234752e-01
5.102939301205187128e-01 7.359891951335413296e-01
5.116350442599155723e-01 8.459314805415303340e-01
5.129761583993124319e-01 8.627976672785351298e-01
5.143172725387092914e-01 6.106340360646811405e-01
5.156583866781061509e-01 6.065772061615746225e-01
5.169995008175030105e-01 6.078923823162227791e-01
5.183406149568997590e-01 4.063110559283344969e-01
5.196817290962967295e-01 5.616534102182342281e-01
5.210228432356934780e-01 6.188932164061711205e-01
5.223639573750904486e-01 5.980995220510223476e-01
5.237050715144871971e-01 5.444781483050107340e-01
5.250461856538840566e-01 5.631780866878628444e-01
5.263872997932809161e-01 5.012673088312595837e-01
5.277284139326777757e-01 5.543451786175737084e-01
5.290695280720746352e-01 3.322067205396024292e-01
5.304106422114714947e-01 4.313482797771968080e-01
5.317517563508683542e-01 6.909623830248818876e-01
5.330928704902652138e-01 4.538321757668697387e-01
5.344339846296620733e-01 4.857509704827833730e-01
5.357750987690589328e-01 5.283894121466943261e-01
5.371162129084557924e-01 4.960798453746306791e-01
5.384573270478525409e-01 3.347301851476345291e-01
5.397984411872495114e-01 4.690763349847912878e-01
5.411395553266462599e-01 5.412776371419170118e-01
5.424806694660432305e-01 4.799114736013549987e-01
5.438217836054399790e-01 2.038912098616449953e-01
5.451628977448369495e-01 8.333815162774982355e-02
5.465040118842336980e-01 3.043941171204807006e-01
5.478451260236305576e-01 2.110355413231417288e-01
5.491862401630274171e-01 3.265899251055301988e-01
5.505273543024242766e-01 3.116336500604788284e-01
5.518684684418211361e-01 2.073537428131544402e-01
5.532095825812179957e-01 3.774323878754088923e-01
5.545506967206147442e-01 5.863798466908889395e-01
