# q (1/Angstrom), Intensity (arb)
2.078726924066784734e-02 4.979365653835489525e+01
2.212838338006469993e-02 1.164744371506166658e+02
2.346949751946154905e-02 1.564555162369360914e+02
2.481061165885840164e-02 1.910026586556728603e+02
2.615172579825525423e-02 2.022332540017611677e+02
2.749283993765210335e-02 2.039092989021675635e+02
2.883395407704895941e-02 2.022443860419900830e+02
3.017506821644580506e-02 1.991590402118131919e+02
3.151618235584265765e-02 1.956776717232997669e+02
3.285729649523951718e-02 1.924929850870800863e+02
3.419841063463636283e-02 1.834896804055937025e+02
3.553952477403321542e-02 1.793725061087799304e+02
3.688063891343006800e-02 1.729177018353731512e+02
3.822175305282692059e-02 1.703402229550080733e+02
3.956286719222376624e-02 1.685935670945864615e+02
4.090398133162062577e-02 1.659740124777795813e+02
4.224509547101747142e-02 1.627776169198732532e+02
4.358620961041432401e-02 1.587581251685683696e+02
4.492732374981117660e-02 1.525792960804695326e+02
4.626843788920802919e-02 1.501182528663603080e+02
4.760955202860488178e-02 1.504219958494324771e+02
4.895066616800172743e-02 1.471355571908630964e+02
5.029178030739858696e-02 1.431763396207254857e+02
5.163289444679544649e-02 1.398557744909383871e+02
5.297400858619229214e-02 1.376113786205424105e+02
5.431512272558913779e-02 1.355816342968256265e+02
5.565623686498599731e-02 1.340143185823575607e+02
5.699735100438284990e-02 1.279617885148642245e+02
5.833846514377969555e-02 1.269958919659104879e+02
5.967957928317654814e-02 1.249559965736536640e+02
6.102069342257340767e-02 1.215433015880950052e+02
6.236180756197025332e-02 1.170376780903972360e+02
6.370292170136709897e-02 1.160058270826952480e+02
6.504403584076395850e-02 1.149448822901200344e+02
6.638514998016080415e-02 1.131380050967160571e+02
6.772626411955766368e-02 1.113434898292650814e+02
6.906737825895450933e-02 1.103339742302547393e+02
7.040849239835136886e-02 1.086110817327809741e+02
7.174960653774821451e-02 1.050865922872367264e+02
7.309072067714506016e-02 1.043078007328720673e+02
7.443183481654190581e-02 1.034781143128355438e+02
7.577294895593877921e-02 1.054864037152005949e+02
7.711406309533562486e-02 1.066005217486896584e+02
7.845517723473247051e-02 1.076292700186163245e+02
7.979629137412933004e-02 1.108532450111393644e+02
8.113740551352617569e-02 1.149287050733609874e+02
8.247851965292302134e-02 1.286033775117827247e+02
8.381963379231988087e-02 1.650826235441867311e+02
8.516074793171674040e-02 2.951988852699020072e+02
8.650186207111358605e-02 5.878865619903212973e+02
8.784297621051043170e-02 9.560470972446584028e+02
8.918409034990729123e-02 1.567502174277577751e+03
9.052520448930413688e-02 3.213821098160242400e+03
9.186631862870098253e-02 5.500798387096911028e+03
9.320743276809784206e-02 5.517532875681944461e+03
9.454854690749470159e-02 3.381709898849509500e+03
9.588966104689154724e-02 1.746683673135581785e+03
9.723077518628839289e-02 1.056466099480469211e+03
9.857188932568525241e-02 7.914458394461047419e+02
9.991300346508209806e-02 6.469025618926826837e+02
1.012541176044789437e-01 5.481618474994331791e+02
1.025952317438758032e-01 5.034227026265454015e+02
1.039363458832726350e-01 5.662086085619719142e+02
1.052774600226694945e-01 7.730529898032682468e+02
1.066185741620663541e-01 8.904513714838412852e+02
1.079596883014631858e-01 6.841901158541829773e+02
1.093008024408600454e-01 3.700631960605334712e+02
1.106419165802569049e-01 1.771657612663645409e+02
1.119830307196537506e-01 9.634632211245593680e+01
1.133241448590506101e-01 6.526102942487949576e+01
1.146652589984474419e-01 4.969164092369496188e+01
1.160063731378443014e-01 4.030186216075625794e+01
1.173474872772411609e-01 3.386042246424483437e+01
1.186886014166380066e-01 2.985309545318887103e+01
1.200297155560348661e-01 2.570441439072325807e+01
1.213708296954317256e-01 2.219682259520942580e+01
1.227119438348285574e-01 2.002031145495740816e+01
1.240530579742254169e-01 1.763768568617896904e+01
1.253941721136222764e-01 1.595804226107733825e+01
1.267352862530191082e-01 1.551453885142578315e+01
1.280764003924159677e-01 1.413632610598736505e+01
1.294175145318128273e-01 1.273855439061864558e+01
1.307586286712096590e-01 1.230202304826335080e+01
1.320997428106065186e-01 1.139541690637989291e+01
1.334408569500033781e-01 1.019305632092545011e+01
1.347819710894002376e-01 1.048543471631577972e+01
1.361230852287970972e-01 1.035256555923635347e+01
1.374641993681939289e-01 1.055913409741742726e+01
1.388053135075907885e-01 1.012747780192036373e+01
1.401464276469876480e-01 9.572442876657817123e+00
1.414875417863844798e-01 1.125801479357549795e+01
1.428286559257813393e-01 1.218394459195617685e+01
1.441697700651781988e-01 1.333162739241768691e+01
1.455108842045750306e-01 1.659869168259265848e+01
1.468519983439718901e-01 2.594289681836082195e+01
1.481931124833687219e-01 5.407803299386283413e+01
1.495342266227655814e-01 1.042304800402581435e+02
1.508753407621624687e-01 1.355982176959901153e+02
1.522164549015593005e-01 1.141884684424297802e+02
1.535575690409561600e-01 7.519495262588546325e+01
1.548986831803530195e-01 4.723239954485065084e+01
1.562397973197498513e-01 3.211849222198398479e+01
1.575809114591467108e-01 2.612223685566010545e+01
1.589220255985435704e-01 2.482862590856858276e+01
1.602631397379404021e-01 2.521329485684934468e+01
1.616042538773372617e-01 2.475740383709074877e+01
1.629453680167341212e-01 2.481604110680819986e+01
1.642864821561309530e-01 2.466962621923374854e+01
1.656275962955278125e-01 2.465569584628065058e+01
1.669687104349246720e-01 2.480855683835642367e+01
1.683098245743215315e-01 2.608356241102465845e+01
1.696509387137183911e-01 2.797172572831233595e+01
1.709920528531152228e-01 3.333660753092533469e+01
1.723331669925120824e-01 5.155715306557303279e+01
1.736742811319089419e-01 1.017644295254613667e+02
1.750153952713057737e-01 1.957689841226451222e+02
1.763565094107026332e-01 2.744643828982667628e+02
1.776976235500994927e-01 2.658341742946878412e+02
1.790387376894963245e-01 1.958551565146078985e+02
1.803798518288931840e-01 1.308630883411575780e+02
1.817209659682900158e-01 9.575201285899969150e+01
1.830620801076868753e-01 8.729999952108198613e+01
1.844031942470837349e-01 8.500894437536675241e+01
1.857443083864805944e-01 7.131073750903658492e+01
1.870854225258774539e-01 5.037049109744759789e+01
1.884265366652743134e-01 3.272178420087706741e+01
1.897676508046711452e-01 2.315519620323696870e+01
1.911087649440680047e-01 1.627993708025454112e+01
1.924498790834648643e-01 1.269705815235370494e+01
1.937909932228616960e-01 1.165698529501308656e+01
1.951321073622585556e-01 9.170882288448467534e+00
1.964732215016554151e-01 8.125289913198088243e+00
1.978143356410522469e-01 8.384841685643252163e+00
1.991554497804491064e-01 7.917110691152700497e+00
2.004965639198459382e-01 7.318949171221262873e+00
2.018376780592427977e-01 6.872030955086529502e+00
2.031787921986396572e-01 7.227440858078381325e+00
2.045199063380365168e-01 6.421938770642427130e+00
2.058610204774333763e-01 5.645247524868437949e+00
2.072021346168302081e-01 5.307691473694418960e+00
2.085432487562270676e-01 6.179352824636652031e+00
2.098843628956239271e-01 6.404641692452045731e+00
2.112254770350207866e-01 6.968207327734006640e+00
2.125665911744176462e-01 7.157382225141830645e+00
2.139077053138144502e-01 6.867782535842067659e+00
2.152488194532113097e-01 6.280153752720821103e+00
2.165899335926081692e-01 6.134011922528188165e+00
2.179310477320050288e-01 5.608970105056258149e+00
2.192721618714018883e-01 5.562118468268764104e+00
2.206132760107987478e-01 4.289612808940844957e+00
2.219543901501955796e-01 3.731522244391726417e+00
2.232955042895924391e-01 4.273885466862751059e+00
2.246366184289892987e-01 4.114931084906189085e+00
2.259777325683861582e-01 4.171660221033434368e+00
2.273188467077830177e-01 3.347138444297229398e+00
2.286599608471798217e-01 3.372901978823406921e+00
2.300010749865766813e-01 4.340782173747044226e+00
2.313421891259735408e-01 4.623200932932917340e+00
2.326833032653704003e-01 4.742065610886115223e+00
2.340244174047672598e-01 4.890935967751403268e+00
2.353655315441641194e-01 5.975033652485620905e+00
2.367066456835609234e-01 7.442143637355457031e+00
2.380477598229577829e-01 7.869090890157295348e+00
2.393888739623546424e-01 7.180710102642862580e+00
2.407299881017515020e-01 6.530223637229369160e+00
2.420711022411483615e-01 6.672633971372221140e+00
2.434122163805451933e-01 4.916400186944969164e+00
2.447533305199420528e-01 5.044299152927720797e+00
2.460944446593389123e-01 5.129394923340726109e+00
2.474355587987357719e-01 4.541618029867507289e+00
2.487766729381326314e-01 4.438889735049357910e+00
2.501177870775294632e-01 4.365082120514500730e+00
2.514589012169263227e-01 3.951606713449180575e+00
2.528000153563231822e-01 3.856682419867723866e+00
2.541411294957200417e-01 5.463487459169883209e+00
2.554822436351169013e-01 5.874754491526132938e+00
2.568233577745137608e-01 6.624039847768344202e+00
2.581644719139106203e-01 9.030247197258560732e+00
2.595055860533074243e-01 1.293015560038088552e+01
2.608467001927042839e-01 1.517316289265185958e+01
2.621878143321011434e-01 1.483603744077623787e+01
2.635289284714980029e-01 1.235155831994038067e+01
2.648700426108948625e-01 1.018932723148002140e+01
2.662111567502916665e-01 8.608337666164800339e+00
2.675522708896885260e-01 7.326203453924094333e+00
2.688933850290853855e-01 6.555106506297178726e+00
2.702344991684822451e-01 6.861069806671395099e+00
2.715756133078791046e-01 8.299860785628979443e+00
2.729167274472759641e-01 9.799399126461295850e+00
2.742578415866727681e-01 1.256881271313667980e+01
2.755989557260696277e-01 1.438480765124296568e+01
2.769400698654664872e-01 1.576758387709855924e+01
2.782811840048633467e-01 1.480488508653675694e+01
2.796222981442602062e-01 1.124708824116535766e+01
2.809634122836570103e-01 8.377095124476682031e+00
2.823045264230538698e-01 5.933525716153283724e+00
2.836456405624507293e-01 4.934443534234375761e+00
2.849867547018475888e-01 4.169145762864360449e+00
2.863278688412444484e-01 3.998443881788048770e+00
2.876689829806413079e-01 4.237019501344974515e+00
2.890100971200381674e-01 3.784111941623677922e+00
2.903512112594350270e-01 2.921936408304731003e+00
2.916923253988318865e-01 2.536362334583344591e+00
2.930334395382287460e-01 2.977129699544278196e+00
2.943745536776256055e-01 3.137269952345548063e+00
2.957156678170224096e-01 3.316154907819509390e+00
2.970567819564192691e-01 2.908678314578764912e+00
2.983978960958161286e-01 2.757405978756864329e+00
2.997390102352129881e-01 2.648167884446365861e+00
3.010801243746098477e-01 3.090400376492382861e+00
3.024212385140067072e-01 2.951594186111449858e+00
3.037623526534035112e-01 3.260150329864160312e+00
3.051034667928003707e-01 3.094923403070822587e+00
3.064445809321972303e-01 2.083591836860520630e+00
3.077856950715940898e-01 2.388569887297592231e+00
3.091268092109909493e-01 1.684391771520253656e+00
3.104679233503877533e-01 2.290819967288129533e+00
3.118090374897846129e-01 2.108070691013878672e+00
3.131501516291814724e-01 2.184172712188669152e+00
3.144912657685783319e-01 2.324649257552067638e+00
3.158323799079751915e-01 2.162205962344273757e+00
3.171734940473720510e-01 1.720050050491238380e+00
3.185146081867689105e-01 2.359677121931156307e+00
3.198557223261657700e-01 2.465542107723337040e+00
3.211968364655626296e-01 1.455732425246807793e+00
3.225379506049594891e-01 1.972430361387310427e+00
3.238790647443563486e-01 1.872106861293573843e+00
3.252201788837532082e-01 1.645358109686711146e+00
3.265612930231500122e-01 2.048763498015588880e+00
3.279024071625468717e-01 2.210188739552378934e+00
3.292435213019437312e-01 1.870357427070686640e+00
3.305846354413405908e-01 1.346022490358834034e+00
3.319257495807374503e-01 1.244207602428232917e+00
3.332668637201342543e-01 9.380960140299237082e-01
3.346079778595311138e-01 1.163391331781468807e+00
3.359490919989279734e-01 2.145005358549326502e+00
3.372902061383248329e-01 2.226904088542411841e+00
3.386313202777216924e-01 2.847015934633759571e+00
3.399724344171185519e-01 1.894027160384368358e+00
3.413135485565153560e-01 1.473766375174989207e+00
3.426546626959122155e-01 1.540804516206122798e+00
3.439957768353090750e-01 1.875168329849600468e+00
3.453368909747059345e-01 2.038471984923376112e+00
3.466780051141027941e-01 2.341185299259691988e+00
3.480191192534995981e-01 2.427999109289189050e+00
3.493602333928964576e-01 2.648568410929343031e+00
3.507013475322933171e-01 3.111452273961873516e+00
3.520424616716901767e-01 3.209814079307705015e+00
3.533835758110870362e-01 2.949308171914893251e+00
3.547246899504838957e-01 2.099819217540712657e+00
3.560658040898807553e-01 2.546565481087000649e+00
3.574069182292776148e-01 3.078902127138519518e+00
3.587480323686744743e-01 2.580764841321098402e+00
3.600891465080713338e-01 2.774425005878526918e+00
3.614302606474681934e-01 2.166013760523398446e+00
3.627713747868649974e-01 2.252385672038201392e+00
3.641124889262618569e-01 2.600888508453252257e+00
3.654536030656587164e-01 1.897820379126741841e+00
3.667947172050555760e-01 1.758467774679459694e+00
3.681358313444524355e-01 2.005056676687303252e+00
3.694769454838492950e-01 2.089270711899416710e+00
3.708180596232460990e-01 2.288162675342718444e+00
3.721591737626429586e-01 2.190476970231884479e+00
3.735002879020398181e-01 2.286846139248893905e+00
3.748414020414366776e-01 2.162025723280990519e+00
3.761825161808335372e-01 2.011393912422491326e+00
3.775236303202303967e-01 2.392278671038596372e+00
3.788647444596272007e-01 3.304306770288249595e+00
3.802058585990240602e-01 3.638382281406620677e+00
3.815469727384209198e-01 3.464506232774994032e+00
3.828880868778177793e-01 3.514708646854543872e+00
3.842292010172146388e-01 2.803304395042317765e+00
3.855703151566114428e-01 2.990864962341632349e+00
3.869114292960083024e-01 2.860080270542198377e+00
3.882525434354051619e-01 2.026068925076984328e+00
3.895936575748020214e-01 1.053797810956666581e+00
3.909347717141988809e-01 1.246118908791160607e+00
3.922758858535957405e-01 1.816434651800761912e+00
3.936169999929926000e-01 2.469863022540664588e+00
3.949581141323894595e-01 1.552601392571034467e+00
3.962992282717863191e-01 1.700705704567639032e+00
3.976403424111831786e-01 2.440588142513547609e+00
3.989814565505800381e-01 1.891319553476165538e+00
4.003225706899768976e-01 1.454368285736734379e+00
4.016636848293737572e-01 1.380707959001327367e+00
4.030047989687706167e-01 1.455015602008330688e+00
4.043459131081674207e-01 1.565830688737349874e+00
4.056870272475643358e-01 1.657095003810979961e+00
4.070281413869611398e-01 1.043586269018334178e+00
4.083692555263580548e-01 1.259021952222695973e+00
4.097103696657548588e-01 1.460648875125670543e+00
4.110514838051517739e-01 1.539071740715684200e+00
4.123925979445485779e-01 1.448844433542262777e+00
4.137337120839453819e-01 1.262570067553610897e+00
4.150748262233422969e-01 1.339303798906314569e+00
4.164159403627391010e-01 1.084051994866911173e+00
4.177570545021360160e-01 1.272154918168823201e+00
4.190981686415328200e-01 1.251171188473776397e+00
4.204392827809296240e-01 9.607184466940736911e-01
4.217803969203265391e-01 1.275461886368347564e+00
4.231215110597233431e-01 9.920251177952366106e-01
4.244626251991202581e-01 9.292329508956527206e-01
4.258037393385170621e-01 1.311812612882874873e+00
4.271448534779138662e-01 1.519544423480226669e+00
4.284859676173107812e-01 1.438754960677030681e+00
4.298270817567075852e-01 1.546212766668801919e+00
4.311681958961045003e-01 1.850542606760100739e+00
4.325093100355013043e-01 1.972921515669355585e+00
4.338504241748981638e-01 1.591643882232617102e+00
4.351915383142950233e-01 1.809812956762456793e+00
4.365326524536918829e-01 1.812864582264893443e+00
4.378737665930887424e-01 1.687301065814537537e+00
4.392148807324856019e-01 1.599342215858243321e+00
4.405559948718824614e-01 1.541357650637294796e+00
4.418971090112793210e-01 1.897331712369549450e+00
4.432382231506761250e-01 1.840587811416071418e+00
4.445793372900730400e-01 1.642062866197534277e+00
4.459204514294698440e-01 1.502818054671820391e+00
4.472615655688667591e-01 1.784502606478426401e+00
4.486026797082635631e-01 1.593543277033177219e+00
4.499437938476603671e-01 1.771535020203018007e+00
4.512849079870572822e-01 1.902072385648779118e+00
4.526260221264540862e-01 1.966504398744177706e+00
4.539671362658510012e-01 2.341508499311089508e+00
4.553082504052478052e-01 1.976548356189567812e+00
4.566493645446446092e-01 1.120064634311177088e+00
4.579904786840415243e-01 1.095499599412207203e+00
4.593315928234383283e-01 1.635800945595704547e+00
4.606727069628352433e-01 1.879836342955087503e+00
4.620138211022320474e-01 1.523236004117478615e+00
4.633549352416289624e-01 1.207091563662373801e+00
4.646960493810257664e-01 1.117356715652675803e+00
4.660371635204225704e-01 1.871737965687657379e+00
4.673782776598194855e-01 2.092652166224496568e+00
4.687193917992162895e-01 1.859001705412936190e+00
4.700605059386132045e-01 1.887500719360104995e+00
4.714016200780100085e-01 1.359048158296232600e+00
4.727427342174068681e-01 1.283826081641507244e+00
4.740838483568037276e-01 1.185823114311787663e+00
4.754249624962005871e-01 1.129932852977077573e+00
4.767660766355974467e-01 1.271170298755620820e+00
4.781071907749943062e-01 1.323605588199498584e+00
4.794483049143911102e-01 1.719401685722218076e+00
4.807894190537880252e-01 1.584724963411005660e+00
4.821305331931848293e-01 1.525919812250762675e+00
4.834716473325817443e-01 1.148161090330688694e+00
4.848127614719785483e-01 1.516703950289212344e+00
4.861538756113753523e-01 2.111680766993757175e+00
4.874949897507722674e-01 1.957941480894348274e+00
4.888361038901690714e-01 1.720874566284322782e+00
4.901772180295659864e-01 1.457077673918519167e+00
4.915183321689627904e-01 1.080583683500947245e+00
4.928594463083597055e-01 1.279999276038026323e+00
4.942005604477565095e-01 1.408419740354815985e+00
4.955416745871533135e-01 1.147039150155080733e+00
4.968827887265502286e-01 1.073796807044288926e+00
4.982239028659470326e-01 9.164452261002082878e-01
4.995650170053439476e-01 7.852133141479384904e-01
5.009061311447408071e-01 9.578588579679774284e-01
5.022472452841375556e-01 6.098755154778245924e-01
5.035883594235345262e-01 1.405296080212181664e+00
5.049294735629312747e-01 1.744212708505600062e+00
5.062705877023282452e-01 1.587048316255902591e+00
5.076117018417249938e-01 1.125088203762274475e+00
5.089528159811218533e-01 7.212139821874501422e-01
5.102939301205187128e-01 5.877697758392912419e-01
5.116350442599155723e-01 9.437113037459710085e-01
5.129761583993124319e-01 7.250668196565470680e-01
5.143172725387092914e-01 5.160701482934797468e-01
5.156583866781061509e-01 2.726534619121281366e-01
5.169995008175030105e-01 3.971821325044828654e-01
5.183406149568997590e-01 2.170273328175795768e-01
5.196817290962967295e-01 2.595850150711811466e-01
5.210228432356934780e-01 0.000000000000000000e+00
5.223639573750904486e-01 6.182855162213769518e-01
5.237050715144871971e-01 6.577436387151323061e-01
5.250461856538840566e-01 6.129963676959562235e-01
5.263872997932809161e-01 1.260702646879991562e+00
5.277284139326777757e-01 1.681938917585981130e+00
5.290695280720746352e-01 1.207763793313446854e+00
5.304106422114714947e-01 1.617941921241538239e+00
5.317517563508683542e-01 1.385425889633353336e+00
5.330928704902652138e-01 9.777028614153238095e-01
5.344339846296620733e-01 1.269477779052024857e+00
5.357750987690589328e-01 1.265268804338973041e+00
5.371162129084557924e-01 1.369805144057295365e+00
5.384573270478525409e-01 1.310119109535705206e+00
5.397984411872495114e-01 1.265054982260991778e+00
5.411395553266462599e-01 1.725601476626820840e+00
5.424806694660432305e-01 1.547312211288129902e+00
5.438217836054399790e-01 1.211909032688865295e+00
5.451628977448369495e-01 1.176366008799703877e+00
5.465040118842336980e-01 1.208452035164171434e+00
5.478451260236305576e-01 1.284777346064601034e+00
5.491862401630274171e-01 1.024540093732071000e+00
5.505273543024242766e-01 1.037595273598725498e+00
5.518684684418211361e-01 8.459928530456579665e-01
5.532095825812179957e-01 1.188027522428882321e+00
5.545506967206147442e-01 1.347643801610061587e+00
