# q (1/Angstrom), Intensity (arb)
2.078726924066784734e-02 5.794063686436547300e+01
2.212838338006469993e-02 1.234221202322956401e+02
2.346949751946154905e-02 1.671284416309112544e+02
2.481061165885840164e-02 2.040084894536241791e+02
2.615172579825525423e-02 2.214152502622146130e+02
2.749283993765210335e-02 2.244989917266509565e+02
2.883395407704895941e-02 2.238308920709359882e+02
3.017506821644580506e-02 2.253447942613792918e+02
3.151618235584265765e-02 2.213814149328359804e+02
3.285729649523951718e-02 2.124069290791639730e+02
3.419841063463636283e-02 2.069269395235419893e+02
3.553952477403321542e-02 2.023713283771305669e+02
3.688063891343006800e-02 1.982093051867322515e+02
3.822175305282692059e-02 1.925906519035075632e+02
3.956286719222376624e-02 1.898480292021334037e+02
4.090398133162062577e-02 1.879419549568187051e+02
4.224509547101747142e-02 1.832796951078483687e+02
4.358620961041432401e-02 1.786299996264189645e+02
4.492732374981117660e-02 1.732827068239558912e+02
4.626843788920802919e-02 1.720841821585004823e+02
4.760955202860488178e-02 1.686262354600397089e+02
4.895066616800172743e-02 1.633746284802542164e+02
5.029178030739858696e-02 1.614316802794817249e+02
5.163289444679544649e-02 1.597732339302756941e+02
5.297400858619229214e-02 1.566637677866569334e+02
5.431512272558913779e-02 1.539493523346131951e+02
5.565623686498599731e-02 1.503582843333964547e+02
5.699735100438284990e-02 1.453031801907826548e+02
5.833846514377969555e-02 1.408805305775495640e+02
5.967957928317654814e-02 1.378607356500517938e+02
6.102069342257340767e-02 1.376643158209255375e+02
6.236180756197025332e-02 1.344964735682250137e+02
6.370292170136709897e-02 1.310070183205492071e+02
6.504403584076395850e-02 1.289529337231757609e+02
6.638514998016080415e-02 1.267371334171307637e+02
6.772626411955766368e-02 1.253848021479793289e+02
6.906737825895450933e-02 1.242815087408384045e+02
7.040849239835136886e-02 1.233696475560134758e+02
7.174960653774821451e-02 1.216288974095703850e+02
7.309072067714506016e-02 1.203493372173975189e+02
7.443183481654190581e-02 1.200388286515322562e+02
7.577294895593877921e-02 1.208590162235516061e+02
7.711406309533562486e-02 1.205823428288266115e+02
7.845517723473247051e-02 1.234730786999825938e+02
7.979629137412933004e-02 1.271233225722898084e+02
8.113740551352617569e-02 1.371352655483512990e+02
8.247851965292302134e-02 1.730663407819694442e+02
8.381963379231988087e-02 2.997038277247984297e+02
8.516074793171674040e-02 6.142821249193000313e+02
8.650186207111358605e-02 1.039363502120707153e+03
8.784297621051043170e-02 1.694685738271248738e+03
8.918409034990729123e-02 3.495721663047814218e+03
9.052520448930413688e-02 6.201103224354031227e+03
9.186631862870098253e-02 6.462850836320062626e+03
9.320743276809784206e-02 4.035572077634172729e+03
9.454854690749470159e-02 2.080488730196037068e+03
9.588966104689154724e-02 1.244477466319424366e+03
9.723077518628839289e-02 9.286216708223182650e+02
9.857188932568525241e-02 7.593548147181171544e+02
9.991300346508209806e-02 6.451952514525755760e+02
1.012541176044789437e-01 5.967780857891131063e+02
1.025952317438758032e-01 6.887566942292714884e+02
1.039363458832726350e-01 9.493567029632541789e+02
1.052774600226694945e-01 1.067854792607922946e+03
1.066185741620663541e-01 7.887964290651666488e+02
1.079596883014631858e-01 4.167059479669937900e+02
1.093008024408600454e-01 1.990155273538296683e+02
1.106419165802569049e-01 1.097433342264485958e+02
1.119830307196537506e-01 7.445773745895459683e+01
1.133241448590506101e-01 5.847600637328710604e+01
1.146652589984474419e-01 4.778608211343377832e+01
1.160063731378443014e-01 4.125127155417916924e+01
1.173474872772411609e-01 3.500894514786905631e+01
1.186886014166380066e-01 3.093266874680186618e+01
1.200297155560348661e-01 2.737270517530873803e+01
1.213708296954317256e-01 2.483723344981895309e+01
1.227119438348285574e-01 2.184309761080180579e+01
1.240530579742254169e-01 1.878509925450173057e+01
1.253941721136222764e-01 1.720385185111639714e+01
1.267352862530191082e-01 1.646411787924166958e+01
1.280764003924159677e-01 1.589650060726917502e+01
1.294175145318128273e-01 1.472474722788940937e+01
1.307586286712096590e-01 1.441361516396064246e+01
1.320997428106065186e-01 1.423701867358005302e+01
1.334408569500033781e-01 1.336206526454030552e+01
1.347819710894002376e-01 1.255410565002925694e+01
1.361230852287970972e-01 1.203015972118025445e+01
1.374641993681939289e-01 1.251208580751598731e+01
1.388053135075907885e-01 1.238681474108706482e+01
1.401464276469876480e-01 1.272463590232425190e+01
1.414875417863844798e-01 1.327473448696316893e+01
1.428286559257813393e-01 1.467058483825567805e+01
1.441697700651781988e-01 1.946973307376269702e+01
1.455108842045750306e-01 3.710132472192832154e+01
1.468519983439718901e-01 7.724848105506224272e+01
1.481931124833687219e-01 1.223675096903443489e+02
1.495342266227655814e-01 1.242067506044101606e+02
1.508753407621624687e-01 8.889467733961879503e+01
1.522164549015593005e-01 5.532933809504115175e+01
1.535575690409561600e-01 3.659022554083207979e+01
1.548986831803530195e-01 2.900986642420552641e+01
1.562397973197498513e-01 2.634444483904827905e+01
1.575809114591467108e-01 2.556350510279645505e+01
1.589220255985435704e-01 2.559483968831133893e+01
1.602631397379404021e-01 2.636277157737960408e+01
1.616042538773372617e-01 2.601628273605545871e+01
1.629453680167341212e-01 2.687567184034530499e+01
1.642864821561309530e-01 2.636134663826939573e+01
1.656275962955278125e-01 2.749661455161914603e+01
1.669687104349246720e-01 2.956744862470942792e+01
1.683098245743215315e-01 3.332313824984012740e+01
1.696509387137183911e-01 4.827951798757710833e+01
1.709920528531152228e-01 9.527947016514887935e+01
1.723331669925120824e-01 1.936914708497677111e+02
1.736742811319089419e-01 2.982205502147241418e+02
1.750153952713057737e-01 3.114311447795425352e+02
1.763565094107026332e-01 2.389898455885518160e+02
1.776976235500994927e-01 1.601626796021671453e+02
1.790387376894963245e-01 1.139906202753728621e+02
1.803798518288931840e-01 1.005715787733233100e+02
1.817209659682900158e-01 9.770425635465126390e+01
1.830620801076868753e-01 8.520599518912371195e+01
1.844031942470837349e-01 6.137561812470273992e+01
1.857443083864805944e-01 4.056256597297193878e+01
1.870854225258774539e-01 2.636515253041871176e+01
1.884265366652743134e-01 1.878234851302852348e+01
1.897676508046711452e-01 1.505480909490994179e+01
1.911087649440680047e-01 1.267336995334767380e+01
1.924498790834648643e-01 1.131917857404742733e+01
1.937909932228616960e-01 1.085623442938904759e+01
1.951321073622585556e-01 9.437768068360611551e+00
1.964732215016554151e-01 9.383676060505635519e+00
1.978143356410522469e-01 9.298369230046787948e+00
1.991554497804491064e-01 8.444500079450094177e+00
2.004965639198459382e-01 8.311965775990330485e+00
2.018376780592427977e-01 7.920736491466072948e+00
2.031787921986396572e-01 7.167456832418920953e+00
2.045199063380365168e-01 6.865927595395831418e+00
2.058610204774333763e-01 7.326315452539660100e+00
2.072021346168302081e-01 7.680144350838176592e+00
2.085432487562270676e-01 8.723599081515274634e+00
2.098843628956239271e-01 9.701822391358220443e+00
2.112254770350207866e-01 9.970072147710837385e+00
2.125665911744176462e-01 8.975805722131184439e+00
2.139077053138144502e-01 7.917674604656056658e+00
2.152488194532113097e-01 5.719404659858597029e+00
2.165899335926081692e-01 5.918302563049209652e+00
2.179310477320050288e-01 5.439101243572153521e+00
2.192721618714018883e-01 4.932198962051216995e+00
2.206132760107987478e-01 3.872030560020903067e+00
2.219543901501955796e-01 4.117869047606475874e+00
2.232955042895924391e-01 4.275712553249476855e+00
2.246366184289892987e-01 4.151952698373321482e+00
2.259777325683861582e-01 4.002961647111078491e+00
2.273188467077830177e-01 4.598906381648291131e+00
2.286599608471798217e-01 4.490785055871157283e+00
2.300010749865766813e-01 3.734896895436719433e+00
2.313421891259735408e-01 4.796639912171059450e+00
2.326833032653704003e-01 5.529723497179219294e+00
2.340244174047672598e-01 5.915957356625128227e+00
2.353655315441641194e-01 6.191605346647037322e+00
2.367066456835609234e-01 5.711645482612667024e+00
2.380477598229577829e-01 4.910079416469798730e+00
2.393888739623546424e-01 4.370072828171103652e+00
2.407299881017515020e-01 4.707050494833680432e+00
2.420711022411483615e-01 4.703977500628212738e+00
2.434122163805451933e-01 4.409701020800227411e+00
2.447533305199420528e-01 3.446068150169224964e+00
2.460944446593389123e-01 4.215854016649842606e+00
2.474355587987357719e-01 4.580178516059376648e+00
2.487766729381326314e-01 4.812209433633285016e+00
2.501177870775294632e-01 5.773377205647946653e+00
2.514589012169263227e-01 5.660525664212272545e+00
2.528000153563231822e-01 6.001105256618131989e+00
2.541411294957200417e-01 8.748653117145124725e+00
2.554822436351169013e-01 1.240353725358201586e+01
2.568233577745137608e-01 1.573425306002987156e+01
2.581644719139106203e-01 1.595088937028376108e+01
2.595055860533074243e-01 1.395392926577055448e+01
2.608467001927042839e-01 1.121234376980930847e+01
2.621878143321011434e-01 9.432497598423452700e+00
2.635289284714980029e-01 8.279360563033918652e+00
2.648700426108948625e-01 7.098313987028461725e+00
2.662111567502916665e-01 7.223520604137036116e+00
2.675522708896885260e-01 7.099662566163743804e+00
2.688933850290853855e-01 9.015609934205627951e+00
2.702344991684822451e-01 1.332119360626330717e+01
2.715756133078791046e-01 1.683294755222388517e+01
2.729167274472759641e-01 1.782155427285050564e+01
2.742578415866727681e-01 1.647295616683889818e+01
2.755989557260696277e-01 1.339201197386174158e+01
2.769400698654664872e-01 1.056641216336517175e+01
2.782811840048633467e-01 7.791871535614774302e+00
2.796222981442602062e-01 6.407368616127186556e+00
2.809634122836570103e-01 5.212759670755190200e+00
2.823045264230538698e-01 4.041614115498873616e+00
2.836456405624507293e-01 3.832212981132897767e+00
2.849867547018475888e-01 3.844289585264434095e+00
2.863278688412444484e-01 3.272651930259470987e+00
2.876689829806413079e-01 2.680832068094929355e+00
2.890100971200381674e-01 2.696787960291345598e+00
2.903512112594350270e-01 2.792927273062460358e+00
2.916923253988318865e-01 2.814995332246027715e+00
2.930334395382287460e-01 2.920453702120980211e+00
2.943745536776256055e-01 2.861172237176859312e+00
2.957156678170224096e-01 3.511999207869067163e+00
2.970567819564192691e-01 3.543097199812123677e+00
2.983978960958161286e-01 3.314216950626274638e+00
2.997390102352129881e-01 3.067302079176130292e+00
3.010801243746098477e-01 3.034262395881043517e+00
3.024212385140067072e-01 2.478200199566515494e+00
3.037623526534035112e-01 2.470860265175218728e+00
3.051034667928003707e-01 2.568506783236671254e+00
3.064445809321972303e-01 2.199040691988514595e+00
3.077856950715940898e-01 2.026660863864549356e+00
3.091268092109909493e-01 2.467142038358176137e+00
3.104679233503877533e-01 2.499037904437955149e+00
3.118090374897846129e-01 2.294920091742426393e+00
3.131501516291814724e-01 2.353754775514431685e+00
3.144912657685783319e-01 2.473073049406778523e+00
3.158323799079751915e-01 2.052769074064016763e+00
3.171734940473720510e-01 1.533299993297205788e+00
3.185146081867689105e-01 1.459874494342898288e+00
3.198557223261657700e-01 1.867692597488087358e+00
3.211968364655626296e-01 2.053536130958207195e+00
3.225379506049594891e-01 1.409461619281643152e+00
3.238790647443563486e-01 1.178769805009793004e+00
3.252201788837532082e-01 1.123273657542284809e+00
3.265612930231500122e-01 1.414232640424003762e+00
3.279024071625468717e-01 7.537860484698057917e-01
3.292435213019437312e-01 6.633711413745686514e-01
3.305846354413405908e-01 1.238386645154960775e+00
3.319257495807374503e-01 1.236758667515033494e+00
3.332668637201342543e-01 1.298303802769154913e+00
3.346079778595311138e-01 1.334039850156983675e+00
3.359490919989279734e-01 1.118364192381648081e+00
3.372902061383248329e-01 1.220080285864696634e+00
3.386313202777216924e-01 1.396958817675553632e+00
3.399724344171185519e-01 1.647314846583881831e+00
3.413135485565153560e-01 1.661831957383455460e+00
3.426546626959122155e-01 1.863122605611906124e+00
3.439957768353090750e-01 2.096668132393517681e+00
3.453368909747059345e-01 1.938731671304822157e+00
3.466780051141027941e-01 2.691216087412087177e+00
3.480191192534995981e-01 2.823179172781195234e+00
3.493602333928964576e-01 2.400837724267006479e+00
3.507013475322933171e-01 1.926548306763748997e+00
3.520424616716901767e-01 1.527657651200215128e+00
3.533835758110870362e-01 1.607101837217186358e+00
3.547246899504838957e-01 1.657220807387304262e+00
3.560658040898807553e-01 1.260641359414904628e+00
3.574069182292776148e-01 1.334123635864060020e+00
3.587480323686744743e-01 1.308266360541836093e+00
3.600891465080713338e-01 1.486820805587754535e+00
3.614302606474681934e-01 1.477614528924817705e+00
3.627713747868649974e-01 1.200919988231817115e+00
3.641124889262618569e-01 1.071738858397665695e+00
3.654536030656587164e-01 1.258066680977847795e+00
3.667947172050555760e-01 1.381829440458517411e+00
3.681358313444524355e-01 1.770616646147416873e+00
3.694769454838492950e-01 1.612606631500582921e+00
3.708180596232460990e-01 1.532212652392900054e+00
3.721591737626429586e-01 2.197537677067927575e+00
3.735002879020398181e-01 2.686939924117538681e+00
3.748414020414366776e-01 2.595814927628154578e+00
3.761825161808335372e-01 2.759937409324919599e+00
3.775236303202303967e-01 3.322589384166107607e+00
3.788647444596272007e-01 3.272171590195583235e+00
3.802058585990240602e-01 2.543854476766739481e+00
3.815469727384209198e-01 2.327055191139805856e+00
3.828880868778177793e-01 1.809425262380344179e+00
3.842292010172146388e-01 1.550979436580718129e+00
3.855703151566114428e-01 2.027747022493471718e+00
3.869114292960083024e-01 1.738936887329387559e+00
3.882525434354051619e-01 1.297532942213777574e+00
3.895936575748020214e-01 7.576684762264420669e-01
3.909347717141988809e-01 8.019425629977803283e-01
3.922758858535957405e-01 9.867184776647235367e-01
3.936169999929926000e-01 6.387010401205230892e-01
3.949581141323894595e-01 1.474306646174312618e+00
3.962992282717863191e-01 1.494706099445892278e+00
3.976403424111831786e-01 9.137228043547764855e-01
3.989814565505800381e-01 8.816975001763438513e-01
4.003225706899768976e-01 9.214221966037570155e-01
4.016636848293737572e-01 1.085506280658620426e+00
4.030047989687706167e-01 1.203885882519941219e+00
4.043459131081674207e-01 4.787022824630327023e-01
4.056870272475643358e-01 3.786100895510315922e-01
4.070281413869611398e-01 4.589487316668368067e-01
4.083692555263580548e-01 3.882626185358617477e-01
4.097103696657548588e-01 8.756606977810434955e-01
4.110514838051517739e-01 8.717943338564140277e-01
4.123925979445485779e-01 6.941086966459977248e-01
4.137337120839453819e-01 6.252309734373113770e-01
4.150748262233422969e-01 5.829616199171709923e-01
4.164159403627391010e-01 5.987670990963636086e-01
4.177570545021360160e-01 4.157173104947560205e-01
4.190981686415328200e-01 4.984147347421696850e-01
4.204392827809296240e-01 6.193068435546678074e-01
4.217803969203265391e-01 5.795077382054785176e-01
4.231215110597233431e-01 2.344415185146573322e-01
4.244626251991202581e-01 1.713638536362225295e-01
4.258037393385170621e-01 5.890362905717978492e-01
4.271448534779138662e-01 9.080481685785173340e-01
4.284859676173107812e-01 9.396957387336186684e-01
4.298270817567075852e-01 1.097585255436214879e+00
4.311681958961045003e-01 4.378868838050067325e-01
4.325093100355013043e-01 2.784131115510604104e-01
4.338504241748981638e-01 1.984821485604157942e-01
4.351915383142950233e-01 6.310889310077101300e-01
4.365326524536918829e-01 6.651335265335092117e-01
4.378737665930887424e-01 5.462601635750132800e-01
4.392148807324856019e-01 4.785738140899979953e-01
4.405559948718824614e-01 7.297632906559101684e-01
4.418971090112793210e-01 7.396748691366781259e-01
4.432382231506761250e-01 8.492990998473430864e-01
4.445793372900730400e-01 4.237734761014451124e-01
4.459204514294698440e-01 5.741458252671804985e-01
4.472615655688667591e-01 4.285494310018265196e-01
4.486026797082635631e-01 4.945273014939033374e-01
4.499437938476603671e-01 8.416683879285642433e-01
4.512849079870572822e-01 9.236229180905581870e-01
4.526260221264540862e-01 1.406520674675604710e+00
4.539671362658510012e-01 1.203658266756704620e+00
4.553082504052478052e-01 1.119667294475718222e+00
4.566493645446446092e-01 1.195033295674576834e+00
4.579904786840415243e-01 1.104433025363519505e+00
4.593315928234383283e-01 1.139533144264305520e+00
4.606727069628352433e-01 7.602294804368483483e-01
4.620138211022320474e-01 8.361348585278989276e-01
4.633549352416289624e-01 4.955759717470016312e-01
4.646960493810257664e-01 2.632510691968263927e-01
4.660371635204225704e-01 3.914572584866533589e-01
4.673782776598194855e-01 6.195422352290620438e-01
4.687193917992162895e-01 1.321910412799965684e+00
4.700605059386132045e-01 8.210194530761469878e-01
4.714016200780100085e-01 5.784651625058927493e-01
4.727427342174068681e-01 7.196482108917621190e-01
4.740838483568037276e-01 8.906808373996852879e-01
4.754249624962005871e-01 9.659859551975671366e-01
4.767660766355974467e-01 1.005303047282836815e+00
4.781071907749943062e-01 2.042564129744732782e-01
4.794483049143911102e-01 4.616003440145988179e-01
4.807894190537880252e-01 8.575552911160855274e-01
4.821305331931848293e-01 8.101119842610984279e-01
4.834716473325817443e-01 6.118241720152326479e-01
4.848127614719785483e-01 6.968395529570159397e-01
4.861538756113753523e-01 9.383039500552854406e-01
4.874949897507722674e-01 1.284189106444841855e+00
4.888361038901690714e-01 1.212794231981973780e+00
4.901772180295659864e-01 6.445114383270436065e-01
4.915183321689627904e-01 5.391820024942148848e-01
4.928594463083597055e-01 4.479635890640452089e-01
4.942005604477565095e-01 4.996240138962377841e-01
4.955416745871533135e-01 7.893256550707121733e-01
4.968827887265502286e-01 1.341151484922136206e-01
4.982239028659470326e-01 1.533215588166854104e-01
4.995650170053439476e-01 5.924344786118922457e-01
5.009061311447408071e-01 5.666752488210136107e-01
5.022472452841375556e-01 5.756210145339650808e-01
5.035883594235345262e-01 4.581832896318189796e-01
5.049294735629312747e-01 3.277634466243029010e-01
5.062705877023282452e-01 3.999308600177471362e-01
5.076117018417249938e-01 3.028895377313887138e-01
5.089528159811218533e-01 1.494661300535398141e-01
5.102939301205187128e-01 2.176239550912413279e-01
5.116350442599155723e-01 3.347407232004826483e-01
5.129761583993124319e-01 3.577257285499086947e-01
5.143172725387092914e-01 2.435678491924022637e-01
5.156583866781061509e-01 6.923472542226960513e-01
5.169995008175030105e-01 6.813034697212430046e-01
5.183406149568997590e-01 8.352890086212880760e-01
5.196817290962967295e-01 6.873707605894594508e-01
5.210228432356934780e-01 4.820283093129376084e-01
5.223639573750904486e-01 2.552424968924498216e-01
5.237050715144871971e-01 3.927395662582426894e-01
5.250461856538840566e-01 6.189468346371143070e-01
5.263872997932809161e-01 2.823557371324341148e-01
5.277284139326777757e-01 2.789642151914790702e-01
5.290695280720746352e-01 3.181747065121953710e-01
5.304106422114714947e-01 1.974089822905682468e-01
5.317517563508683542e-01 4.797364670163091205e-01
5.330928704902652138e-01 1.101273760844776461e-01
5.344339846296620733e-01 5.253359983110925668e-01
5.357750987690589328e-01 9.331059478753331859e-01
5.371162129084557924e-01 8.278129536570020264e-01
5.384573270478525409e-01 3.488432951218527478e-01
5.397984411872495114e-01 0.000000000000000000e+00
5.411395553266462599e-01 5.501846927231071049e-01
5.424806694660432305e-01 3.659793326462477125e-01
5.438217836054399790e-01 5.458769541499748357e-01
5.451628977448369495e-01 8.194105449794477636e-01
5.465040118842336980e-01 9.839120367842042469e-01
5.478451260236305576e-01 6.417016276382412343e-01
5.491862401630274171e-01 5.416703132234630402e-01
5.505273543024242766e-01 5.795026869055988072e-01
5.518684684418211361e-01 5.042536465724225536e-01
5.532095825812179957e-01 5.937808719346406860e-01
5.545506967206147442e-01 6.902258807213144109e-01
