# q (1/Angstrom), Intensity (arb)
3.063590265382597211e-02 4.746630980175957859e+00
3.167440782643154290e-02 5.750287089773131299e+00
3.271291299903710675e-02 6.578952144560346937e+00
3.375141817164267755e-02 7.501583641422307380e+00
3.478992334424824834e-02 8.543818157941217351e+00
3.582842851685381913e-02 9.843041673869237229e+00
3.686693368945938992e-02 1.035542846523436822e+01
3.790543886206496071e-02 1.093863484636341354e+01
3.894394403467052457e-02 1.179262702365397075e+01
3.998244920727608842e-02 1.262286818583905301e+01
4.102095437988165921e-02 1.329404392865148310e+01
4.205945955248723001e-02 1.433426752304919916e+01
4.309796472509280080e-02 1.504988223952953419e+01
4.413646989769837159e-02 1.582937282399119283e+01
4.517497507030393544e-02 1.624196137491097858e+01
4.621348024290949930e-02 1.668149775194997986e+01
4.725198541551507009e-02 1.727391412318442221e+01
4.829049058812064088e-02 1.767151620035684800e+01
4.932899576072621167e-02 1.824340225504437996e+01
5.036750093333178246e-02 1.898276309080193158e+01
5.140600610593734632e-02 1.932813427528042638e+01
5.244451127854291711e-02 1.992682169614232635e+01
5.348301645114848096e-02 2.033414112740576840e+01
5.452152162375405869e-02 2.059354858618883810e+01
5.556002679635962255e-02 2.085800220500083313e+01
5.659853196896519334e-02 2.096890577053771310e+01
5.763703714157075719e-02 2.111542720376440485e+01
5.867554231417632105e-02 2.123250971363064821e+01
5.971404748678189878e-02 2.119982738902523067e+01
6.075255265938746263e-02 2.134720480446828716e+01
6.179105783199304036e-02 2.126178394188341514e+01
6.282956300459860421e-02 2.154180589031911452e+01
6.386806817720418195e-02 2.172830945793987567e+01
6.490657334980974580e-02 2.154366497880227982e+01
6.594507852241530965e-02 2.158573790082637700e+01
6.698358369502087351e-02 2.152113535290189361e+01
6.802208886762643736e-02 2.140135972474700310e+01
6.906059404023201509e-02 2.130489327342365868e+01
7.009909921283757894e-02 2.137905382981408664e+01
7.113760438544315667e-02 2.128894147913395329e+01
7.217610955804872053e-02 2.106058598687186389e+01
7.321461473065429826e-02 2.084488352688848067e+01
7.425311990325986211e-02 2.071254207038981576e+01
7.529162507586543984e-02 2.052576805247188929e+01
7.633013024847100370e-02 2.029707444605833899e+01
7.736863542107656755e-02 2.023675834089753778e+01
7.840714059368214528e-02 2.006309142352410646e+01
7.944564576628770913e-02 1.991982452636336021e+01
8.048415093889327299e-02 1.978931651882005482e+01
8.152265611149883684e-02 1.951027466325783521e+01
8.256116128410441457e-02 1.928684407147396840e+01
8.359966645670997842e-02 1.889526463954361901e+01
8.463817162931554228e-02 1.874208123999465769e+01
8.567667680192112001e-02 1.855141918805541579e+01
8.671518197452668386e-02 1.831051221072324608e+01
8.775368714713226159e-02 1.800658951336825808e+01
8.879219231973782545e-02 1.783679223312505613e+01
8.983069749234340318e-02 1.769017493883265857e+01
9.086920266494896703e-02 1.742515934196475413e+01
9.190770783755453088e-02 1.717622723168911136e+01
9.294621301016009474e-02 1.679213927296778408e+01
9.398471818276565859e-02 1.644275858146990643e+01
9.502322335537123632e-02 1.630645460230647359e+01
9.606172852797680017e-02 1.610090302619960667e+01
9.710023370058237790e-02 1.578246067918518136e+01
9.813873887318794176e-02 1.545876885664856104e+01
9.917724404579351949e-02 1.514996214439666744e+01
1.002157492183990695e-01 1.490876386406553777e+01
1.012542543910046472e-01 1.486928061683049407e+01
1.022927595636101972e-01 1.471518618636191178e+01
1.033312647362157749e-01 1.440271115872885588e+01
1.043697699088213526e-01 1.407139482867385283e+01
1.054082750814269165e-01 1.394029552407022621e+01
1.064467802540324803e-01 1.374805898975111162e+01
1.074852854266380442e-01 1.340254554304630474e+01
1.085237905992436219e-01 1.321970790353761416e+01
1.095622957718491719e-01 1.286150126055822795e+01
1.106008009444547496e-01 1.264977101421030170e+01
1.116393061170603274e-01 1.245055322929911767e+01
1.126778112896659051e-01 1.238631947033636393e+01
1.137163164622714551e-01 1.220634863597955544e+01
1.147548216348770328e-01 1.196262056815663399e+01
1.157933268074826105e-01 1.172903232490232739e+01
1.168318319800881605e-01 1.134109728453820765e+01
1.178703371526937382e-01 1.114936325122728533e+01
1.189088423252993021e-01 1.096662447784697036e+01
1.199473474979048798e-01 1.078927782556512227e+01
1.209858526705104298e-01 1.073550301823891928e+01
1.220243578431160075e-01 1.045249821681735369e+01
1.230628630157215853e-01 1.013464172513326034e+01
1.241013681883271630e-01 9.977746566930136396e+00
1.251398733609327130e-01 9.530440417696169675e+00
1.261783785335382768e-01 9.520308770459344316e+00
1.272168837061438684e-01 9.445215336501561865e+00
1.282553888787494045e-01 9.174209319488038972e+00
1.292938940513549961e-01 8.949073987342124781e+00
1.303323992239605600e-01 8.774481129620092190e+00
1.313709043965661516e-01 8.569212671325619368e+00
1.324094095691716877e-01 8.452522530323953731e+00
1.334479147417772793e-01 8.204880352071711513e+00
1.344864199143828432e-01 8.023328223687403948e+00
1.355249250869884070e-01 7.745042002033581952e+00
1.365634302595939709e-01 7.539968783252401607e+00
1.376019354321995347e-01 7.413779527482379450e+00
1.386404406048051263e-01 7.231636132496273461e+00
1.396789457774106624e-01 7.152939305145071813e+00
1.407174509500162540e-01 6.858868439262369776e+00
1.417559561226218179e-01 6.633534793425880594e+00
1.427944612952273817e-01 6.542186767925890933e+00
1.438329664678329456e-01 6.443173021849723625e+00
1.448714716404385372e-01 6.468388556018556557e+00
1.459099768130441011e-01 6.214967028245450109e+00
1.469484819856496649e-01 5.937419646283032648e+00
1.479869871582552288e-01 5.797413883390472478e+00
1.490254923308607926e-01 5.684261415954978247e+00
1.500639975034663842e-01 5.516903717939623419e+00
1.511025026760719481e-01 5.364351522858818555e+00
1.521410078486775119e-01 5.211622486658200160e+00
1.531795130212830758e-01 5.134571163333880861e+00
1.542180181938886396e-01 5.043507639637926587e+00
1.552565233664942035e-01 4.821494309959458491e+00
1.562950285390997951e-01 4.707463304476309673e+00
1.573335337117053589e-01 4.624223021821979529e+00
1.583720388843109228e-01 4.513584119202718625e+00
1.594105440569164867e-01 4.281572505136843176e+00
1.604490492295220783e-01 4.185227562785229338e+00
1.614875544021276144e-01 4.143241564396532794e+00
1.625260595747332060e-01 4.080585158273002833e+00
1.635645647473387698e-01 3.982444816111637920e+00
1.646030699199443337e-01 3.864570861824301318e+00
1.656415750925498975e-01 3.634255048820946854e+00
1.666800802651554614e-01 3.509240142058427381e+00
1.677185854377610530e-01 3.471591831045838461e+00
1.687570906103665891e-01 3.266583385403826867e+00
1.697955957829721807e-01 3.232150548542556123e+00
1.708341009555777446e-01 3.259923650573146148e+00
1.718726061281833362e-01 3.144347525769905616e+00
1.729111113007888723e-01 2.973249812588562691e+00
1.739496164733944639e-01 2.835531825179337773e+00
1.749881216460000277e-01 2.835939412346434096e+00
1.760266268186055916e-01 2.776174019464470177e+00
1.770651319912111554e-01 2.766580739365078756e+00
1.781036371638167193e-01 2.613543010688211155e+00
1.791421423364223109e-01 2.391471555472204358e+00
1.801806475090278470e-01 2.397590033993783010e+00
1.812191526816334386e-01 2.363178867429549967e+00
1.822576578542390024e-01 2.221302218036711906e+00
1.832961630268445663e-01 2.165791411699842683e+00
1.843346681994501302e-01 1.957900641538593334e+00
1.853731733720557218e-01 2.013835340506670235e+00
1.864116785446612856e-01 1.953346511306946809e+00
1.874501837172668495e-01 1.877586084710831216e+00
1.884886888898724133e-01 1.819554522440522959e+00
1.895271940624779772e-01 1.789443807722037150e+00
1.905656992350835688e-01 1.696834999519712284e+00
1.916042044076891049e-01 1.543951016898976292e+00
1.926427095802946965e-01 1.554357742174882873e+00
1.936812147529002603e-01 1.562716808257111012e+00
1.947197199255058242e-01 1.427197651230596165e+00
1.957582250981113881e-01 1.447210420265115260e+00
1.967967302707169797e-01 1.401982047059362912e+00
1.978352354433225435e-01 1.312642818471104533e+00
1.988737406159281074e-01 1.212152400708212951e+00
1.999122457885336712e-01 1.142692324615012467e+00
2.009507509611392351e-01 1.197317095750406679e+00
2.019892561337448267e-01 1.198052363538629095e+00
2.030277613063503905e-01 1.143964093620109423e+00
2.040662664789559266e-01 1.076709866849409281e+00
2.051047716515614905e-01 1.118587333789403004e+00
2.061432768241670821e-01 1.074698851521944221e+00
2.071817819967726459e-01 9.723645291044995531e-01
2.082202871693782376e-01 9.171870252977498694e-01
2.092587923419838014e-01 8.398442101805407844e-01
2.102972975145893653e-01 8.674555888627857314e-01
2.113358026871949014e-01 8.215653280706582962e-01
2.123743078598004930e-01 8.994535198405131382e-01
2.134128130324060568e-01 8.189449188400566015e-01
2.144513182050116207e-01 8.210572938456301983e-01
2.154898233776172123e-01 7.935506285604887466e-01
2.165283285502227761e-01 6.980486665189538087e-01
2.175668337228283677e-01 6.389012069495265678e-01
2.186053388954338761e-01 6.368384154429875821e-01
2.196438440680394677e-01 5.953604400264147500e-01
2.206823492406450316e-01 5.225099376704740450e-01
2.217208544132506232e-01 5.224614017339348493e-01
2.227593595858561870e-01 5.344482117539186561e-01
2.237978647584617509e-01 4.943687860909413700e-01
2.248363699310673425e-01 4.362196017329900144e-01
2.258748751036728786e-01 4.412126719422992949e-01
2.269133802762784424e-01 4.729765507166838745e-01
2.279518854488840063e-01 4.806901618193109016e-01
2.289903906214895979e-01 4.481319524586275804e-01
2.300288957940951617e-01 3.496429462698458224e-01
2.310674009667007534e-01 3.746638417892000916e-01
2.321059061393063172e-01 3.396693916398909607e-01
2.331444113119118533e-01 3.822609699502308445e-01
2.341829164845174172e-01 3.865129934555895375e-01
2.352214216571230088e-01 3.682627595868837034e-01
2.362599268297285726e-01 3.292312860133534969e-01
2.372984320023341365e-01 3.511153157015023396e-01
2.383369371749397281e-01 3.342612674057967581e-01
2.393754423475452919e-01 3.399670605173099602e-01
2.404139475201508835e-01 3.961065565182586568e-01
2.414524526927563919e-01 3.489895280156645185e-01
2.424909578653619835e-01 1.686696438980384016e-01
2.435294630379675473e-01 1.665332947065643054e-01
2.445679682105731390e-01 3.323206031472629718e-01
2.456064733831787028e-01 2.989267318976693844e-01
2.466449785557842667e-01 2.645762024254914024e-01
2.476834837283898583e-01 2.207103665721774632e-01
2.487219889009953944e-01 2.402095056478579238e-01
2.497604940736009582e-01 2.978057552304456124e-01
2.507989992462065221e-01 3.646581063626435082e-01
2.518375044188120859e-01 2.364375535627694092e-01
2.528760095914177053e-01 1.979211154265634320e-01
2.539145147640232691e-01 2.413306635821896862e-01
2.549530199366288330e-01 2.254305960802405195e-01
2.559915251092343413e-01 2.178755397543845618e-01
2.570300302818399607e-01 2.893571149629181605e-01
2.580685354544455246e-01 2.143722907972502867e-01
2.591070406270510884e-01 1.947253906928985145e-01
2.601455457996566523e-01 1.648709792234761551e-01
2.611840509722622161e-01 2.099820259851874482e-01
2.622225561448678355e-01 2.447449142508411057e-01
2.632610613174733438e-01 1.842286756194191355e-01
2.642995664900789077e-01 2.430543096762569633e-01
2.653380716626844715e-01 2.430166240701687741e-01
2.663765768352900909e-01 1.833707791935914599e-01
2.674150820078956547e-01 2.142324385631795280e-01
2.684535871805012186e-01 2.275836405227806836e-01
2.694920923531067825e-01 2.496691120336045344e-01
2.705305975257123463e-01 2.318206699479681276e-01
2.715691026983179102e-01 2.213080351422185288e-01
2.726076078709234740e-01 2.386454963596342793e-01
2.736461130435290379e-01 2.066004450030618500e-01
2.746846182161346017e-01 1.737876331217549364e-01
2.757231233887402211e-01 1.854618326489969604e-01
2.767616285613457849e-01 2.333562246386016170e-01
2.778001337339512933e-01 2.383212612892684490e-01
2.788386389065568571e-01 2.486602940612456791e-01
2.798771440791624765e-01 2.842551340878287647e-01
2.809156492517680404e-01 2.222972033672618863e-01
2.819541544243736042e-01 2.249010101249453442e-01
2.829926595969791681e-01 2.879166666639214611e-01
2.840311647695847319e-01 2.346823287946264713e-01
2.850696699421902958e-01 1.351898322294253774e-01
2.861081751147958596e-01 2.957377256086601847e-02
2.871466802874014235e-01 1.548445049732016798e-01
2.881851854600069873e-01 2.661041154638787987e-01
2.892236906326126067e-01 2.103777264917461309e-01
2.902621958052181705e-01 2.481130058433684837e-01
2.913007009778237344e-01 2.265803334611931064e-01
2.923392061504292427e-01 1.995844762901874958e-01
2.933777113230348621e-01 1.470557973372024207e-01
2.944162164956404260e-01 1.737693344641293436e-01
2.954547216682459898e-01 1.749898111094445596e-01
2.964932268408515537e-01 2.529330233656565952e-01
2.975317320134571175e-01 2.523718021158281033e-01
2.985702371860627369e-01 3.998811025897381910e-01
2.996087423586683007e-01 3.777231409660934958e-01
3.006472475312738091e-01 2.634300405847476156e-01
3.016857527038794284e-01 2.759104889229924140e-01
3.027242578764849923e-01 1.599148645346843978e-01
3.037627630490905561e-01 1.711907818803481973e-01
3.048012682216961200e-01 2.261988839652282479e-01
3.058397733943016839e-01 2.624485401111691374e-01
3.068782785669073032e-01 2.570468907772038847e-01
3.079167837395128116e-01 2.836024758301860516e-01
3.089552889121183754e-01 2.272190921829633226e-01
3.099937940847239393e-01 2.611691500216934969e-01
3.110322992573295586e-01 2.519242384105488952e-01
3.120708044299351225e-01 1.771729823438512597e-01
3.131093096025406863e-01 1.793601367288957249e-01
3.141478147751462502e-01 1.994401338247868694e-01
3.151863199477518140e-01 1.867163655162222824e-01
3.162248251203573779e-01 2.108393723206027914e-01
3.172633302929629417e-01 1.819539141601644872e-01
3.183018354655685056e-01 2.031108612520142742e-01
3.193403406381740695e-01 2.054638920978213434e-01
3.203788458107796888e-01 2.255734228921078000e-01
3.214173509833852527e-01 2.197411421450432556e-01
3.224558561559907610e-01 1.934239057990474464e-01
3.234943613285963249e-01 2.273056927903240876e-01
3.245328665012019442e-01 2.142871471091467583e-01
3.255713716738075081e-01 2.132484177860973773e-01
3.266098768464130719e-01 2.101421477902647439e-01
3.276483820190186358e-01 2.270309416587679152e-01
3.286868871916241996e-01 2.075456874765890802e-01
3.297253923642297635e-01 1.949768909408895468e-01
3.307638975368353274e-01 1.444058134739378829e-01
3.318024027094408912e-01 1.502970209423395431e-01
3.328409078820464551e-01 1.979795085402642485e-01
3.338794130546520744e-01 2.003472196835467400e-01
3.349179182272576383e-01 1.361386401184425665e-01
3.359564233998632021e-01 1.617397423296651482e-01
3.369949285724687105e-01 1.742462489202871723e-01
3.380334337450743298e-01 1.439406357423820282e-01
3.390719389176798937e-01 1.935951716643664611e-01
3.401104440902854575e-01 1.887542037532163874e-01
3.411489492628910214e-01 1.664060400823572650e-01
3.421874544354965852e-01 1.319609429068400175e-01
3.432259596081022046e-01 1.784685506651371156e-01
3.442644647807077130e-01 1.900415637585304296e-01
3.453029699533132768e-01 1.726255703884582715e-01
3.463414751259188407e-01 1.801977142616095762e-01
3.473799802985244600e-01 1.368348210261025599e-01
3.484184854711300239e-01 1.761547642390333124e-01
3.494569906437355877e-01 1.827015189513190307e-01
3.504954958163411516e-01 1.707631607508162119e-01
3.515340009889467154e-01 1.996019365920531641e-01
3.525725061615522793e-01 2.281284362288857892e-01
3.536110113341578431e-01 2.375411887184988302e-01
3.546495165067634070e-01 2.537064684037559914e-01
3.556880216793689709e-01 1.898072291768961861e-01
3.567265268519745902e-01 1.568015141739564910e-01
3.577650320245801541e-01 1.788144104082007857e-01
3.588035371971856624e-01 1.895871850325328012e-01
3.598420423697912263e-01 1.362036490883049566e-01
3.608805475423968456e-01 7.095439070612030719e-02
3.619190527150024095e-01 1.153109729394081739e-01
3.629575578876079733e-01 1.433286797965784842e-01
3.639960630602135372e-01 1.461755792925814035e-01
3.650345682328191010e-01 1.317125745064160469e-01
3.660730734054246649e-01 1.323312743836773109e-01
3.671115785780302287e-01 1.564320898987041630e-01
3.681500837506357926e-01 1.747171640731686182e-01
3.691885889232413565e-01 1.797803178371353283e-01
3.702270940958469758e-01 1.822367471566828101e-01
3.712655992684525397e-01 1.405469299112525050e-01
3.723041044410581035e-01 1.229489285234279805e-01
3.733426096136636674e-01 1.649717446471790083e-01
3.743811147862692312e-01 2.071289984885069657e-01
3.754196199588747951e-01 2.690639591100385530e-01
3.764581251314803589e-01 2.338269334705422864e-01
3.774966303040859228e-01 2.258534099897140379e-01
3.785351354766914866e-01 1.833616576206686943e-01
3.795736406492971060e-01 1.661711131592333857e-01
3.806121458219026699e-01 1.429228046485988557e-01
3.816506509945081782e-01 1.298659794297201131e-01
3.826891561671137421e-01 1.380898876864691260e-01
3.837276613397193614e-01 1.393632949357872519e-01
3.847661665123249253e-01 1.841795475599781184e-01
3.858046716849304891e-01 1.388969225463192458e-01
3.868431768575360530e-01 0.000000000000000000e+00
3.878816820301416168e-01 1.570645731099915565e-01
3.889201872027471807e-01 1.213683625457058213e-01
3.899586923753527445e-01 1.461609621927131286e-01
3.909971975479583084e-01 1.574348938082259508e-01
3.920357027205638722e-01 1.706846998789401937e-01
3.930742078931694916e-01 1.327973852004049604e-01
3.941127130657750555e-01 1.362737930772333073e-01
3.951512182383806193e-01 1.358581914754246611e-01
3.961897234109861277e-01 1.449222912765328886e-01
3.972282285835917470e-01 1.462149589469312616e-01
3.982667337561973109e-01 1.345997046130982255e-01
3.993052389288028747e-01 1.325225647730903233e-01
4.003437441014084941e-01 2.370640162487056557e-01
4.013822492740140579e-01 1.849350153333411129e-01
4.024207544466196218e-01 1.587565292942407780e-01
4.034592596192252412e-01 1.250960941875618460e-01
4.044977647918308050e-01 1.740578416545730533e-01
4.055362699644363689e-01 1.716308485793618388e-01
4.065747751370419327e-01 1.038607876330317481e-01
4.076132803096474411e-01 7.451448633084112316e-02
4.086517854822530049e-01 1.055272346719036136e-01
4.096902906548585688e-01 1.640564616581876578e-01
4.107287958274641326e-01 1.491209996626956524e-01
4.117673010000697520e-01 1.437945772143365275e-01
4.128058061726753158e-01 1.715601229268948202e-01
4.138443113452808797e-01 1.430974173495229707e-01
4.148828165178864436e-01 1.216870220155001903e-01
4.159213216904920074e-01 1.032558157780023578e-01
4.169598268630976268e-01 1.263435518273610114e-01
4.179983320357031906e-01 9.520608109063743996e-02
4.190368372083087545e-01 1.149756849308047890e-01
4.200753423809143183e-01 9.398011395386518529e-02
4.211138475535198822e-01 9.679436913297578826e-02
4.221523527261253905e-01 1.297504024342863715e-01
4.231908578987309544e-01 1.452468701799922712e-01
4.242293630713365182e-01 8.667090758789441907e-02
4.252678682439421376e-01 1.132601274860007834e-01
4.263063734165477014e-01 1.564852369952873801e-01
4.273448785891532653e-01 1.242857415942353327e-01
4.283833837617588292e-01 1.191903256728572558e-01
4.294218889343643930e-01 1.368205057125209123e-01
4.304603941069700124e-01 1.735954386299560781e-01
4.314988992795755762e-01 1.311424228682582793e-01
4.325374044521811401e-01 1.446558170662974874e-01
4.335759096247867039e-01 1.346179310792940953e-01
4.346144147973922678e-01 8.531885921732396127e-02
4.356529199699978872e-01 1.323249134929795900e-01
4.366914251426033400e-01 1.468731949542636528e-01
4.377299303152089038e-01 9.754808752686372486e-02
4.387684354878145232e-01 1.149688581778605112e-01
4.398069406604200871e-01 9.306284688567600938e-02
4.408454458330256509e-01 1.158950881730582694e-01
4.418839510056312148e-01 1.390025169093291879e-01
4.429224561782367786e-01 1.386150795755014542e-01
4.439609613508423980e-01 1.529998525464826287e-01
