# q (1/Angstrom), Intensity (arb)
2.029070354705860696e-02 1.024373928731162096e+02
2.133125244372399004e-02 8.805440709054622062e+01
2.237180134038937659e-02 7.418140482346311160e+01
2.341235023705475968e-02 6.290289906175502210e+01
2.445289913372014276e-02 5.474528381340519445e+01
2.549344803038552584e-02 4.810532931387560041e+01
2.653399692705091240e-02 4.227348837331494735e+01
2.757454582371629548e-02 3.789079068480121748e+01
2.861509472038167856e-02 3.472964880628484252e+01
2.965564361704706164e-02 3.121000809141236232e+01
3.069619251371244473e-02 2.943484954807034626e+01
3.173674141037782781e-02 2.692668713122561286e+01
3.277729030704321089e-02 2.573507067755360822e+01
3.381783920370859398e-02 2.377737331970580215e+01
3.485838810037397706e-02 2.328376438749607757e+01
3.589893699703936014e-02 2.166846768063562934e+01
3.693948589370474322e-02 1.947572536786503150e+01
3.798003479037012631e-02 1.917888291026613956e+01
3.902058368703550939e-02 1.855580983033781450e+01
4.006113258370089247e-02 1.778299968966324940e+01
4.110168148036627556e-02 1.730060000618039595e+01
4.214223037703165864e-02 1.759153048670027175e+01
4.318277927369704866e-02 1.603464160331976984e+01
4.422332817036243174e-02 1.663358489106462201e+01
4.526387706702781483e-02 1.713772102903949701e+01
4.630442596369319791e-02 1.668022335511990661e+01
4.734497486035858099e-02 1.691633537451219027e+01
4.838552375702396408e-02 1.793346674116858708e+01
4.942607265368934716e-02 1.680737728026619848e+01
5.046662155035473024e-02 1.707528925061589220e+01
5.150717044702011332e-02 1.715928843258554792e+01
5.254771934368549641e-02 1.743222541056366737e+01
5.358826824035087949e-02 1.746477771923975553e+01
5.462881713701626257e-02 1.798661506106224195e+01
5.566936603368164566e-02 1.878762836846838624e+01
5.670991493034702874e-02 1.972329944425105452e+01
5.775046382701241182e-02 2.060654402781564798e+01
5.879101272367779490e-02 2.188407162989954813e+01
5.983156162034317799e-02 2.357784731541833523e+01
6.087211051700856107e-02 2.543779566738575326e+01
6.191265941367394415e-02 2.705006855214375250e+01
6.295320831033933417e-02 2.893647016992811416e+01
6.399375720700471726e-02 3.193359334370737557e+01
6.503430610367010034e-02 3.523010686437933714e+01
6.607485500033548342e-02 3.878647112687053777e+01
6.711540389700086651e-02 4.292767975418571780e+01
6.815595279366624959e-02 4.768763858874264372e+01
6.919650169033163267e-02 5.360520247091227475e+01
7.023705058699701576e-02 6.277194387515515928e+01
7.127759948366239884e-02 7.786582826150178960e+01
7.231814838032778192e-02 1.124654398472028447e+02
7.335869727699316500e-02 1.935029773256667340e+02
7.439924617365854809e-02 3.220447487458351361e+02
7.543979507032393117e-02 4.542468681357631226e+02
7.648034396698931425e-02 6.165086710508390979e+02
7.752089286365469734e-02 9.831740921993798565e+02
7.856144176032008042e-02 1.493045892313080003e+03
7.960199065698546350e-02 1.575200184610272800e+03
8.064253955365084658e-02 1.079151081646590910e+03
8.168308845031622967e-02 6.273888090827213091e+02
8.272363734698161275e-02 4.305275885840513865e+02
8.376418624364699583e-02 3.411550709735784608e+02
8.480473514031239279e-02 2.824549903844543906e+02
8.584528403697777588e-02 2.383066502255642547e+02
8.688583293364315896e-02 2.067650835408996102e+02
8.792638183030854204e-02 1.877076701454436716e+02
8.896693072697392513e-02 1.840244186343007868e+02
9.000747962363930821e-02 1.967688160691311339e+02
9.104802852030469129e-02 2.003596838238890427e+02
9.208857741697007437e-02 1.624068795943267105e+02
9.312912631363545746e-02 9.852288796306805807e+01
9.416967521030084054e-02 5.335748004810822209e+01
9.521022410696622362e-02 3.236550327984404873e+01
9.625077300363160671e-02 2.146905597586213688e+01
9.729132190029698979e-02 1.565188573030714281e+01
9.833187079696237287e-02 1.214151175609946876e+01
9.937241969362775595e-02 9.578931013115582260e+00
1.004129685902931390e-01 7.913610286241915759e+00
1.014535174869585221e-01 6.845269938129124654e+00
1.024940663836239052e-01 5.746782469341969346e+00
1.035346152802892883e-01 4.681245797237512107e+00
1.045751641769546714e-01 4.130355172804311081e+00
1.056157130736200545e-01 3.448296433330352073e+00
1.066562619702854375e-01 3.325242051156227063e+00
1.076968108669508206e-01 3.229202729165226771e+00
1.087373597636162037e-01 2.878496914288838582e+00
1.097779086602815868e-01 2.459576065927596034e+00
1.108184575569469699e-01 2.580710943555185821e+00
1.118590064536123529e-01 2.390707598306107684e+00
1.128995553502777360e-01 2.273680272566696914e+00
1.139401042469431191e-01 2.368721220734745003e+00
1.149806531436085022e-01 2.289003704042560372e+00
1.160212020402738853e-01 2.901255191537821077e+00
1.170617509369392684e-01 3.174241172951145273e+00
1.181022998336046514e-01 2.864611649276366023e+00
1.191428487302700345e-01 2.981855439109850181e+00
1.201833976269354176e-01 3.316734920211033000e+00
1.212239465236008007e-01 3.442392339132126722e+00
1.222644954202661838e-01 3.924227023576452922e+00
1.233050443169315669e-01 4.793372287907221363e+00
1.243455932135969499e-01 5.810120212922896599e+00
1.253861421102623330e-01 8.020509908031051793e+00
1.264266910069277161e-01 1.303825108993307680e+01
1.274672399035930992e-01 2.449389066544830129e+01
1.285077888002584823e-01 3.903154795580857694e+01
1.295483376969238654e-01 4.285119539307249426e+01
1.305888865935892484e-01 3.207894638346039073e+01
1.316294354902546315e-01 1.972625281638226014e+01
1.326699843869200146e-01 1.339186631208474054e+01
1.337105332835853977e-01 1.155653923400824823e+01
1.347510821802507808e-01 1.026255373300217499e+01
1.357916310769161639e-01 9.984392598379120187e+00
1.368321799735815469e-01 9.744030955347906087e+00
1.378727288702469300e-01 9.742822221541221239e+00
1.389132777669123131e-01 9.725470887894736904e+00
1.399538266635776962e-01 9.869538569094700620e+00
1.409943755602430793e-01 1.022336251622087744e+01
1.420349244569084624e-01 1.065235757327430832e+01
1.430754733535738454e-01 1.076484794778503939e+01
1.441160222502392285e-01 1.127267796058881189e+01
1.451565711469046116e-01 1.220430601220298783e+01
1.461971200435699947e-01 1.424889422482695878e+01
1.472376689402353778e-01 1.907646496494019317e+01
1.482782178369007609e-01 2.938996730499881949e+01
1.493187667335661439e-01 4.891583140517430195e+01
1.503593156302315270e-01 7.638253705198010834e+01
1.513998645268969101e-01 9.457389921804019650e+01
1.524404134235622932e-01 8.351491422921625940e+01
1.534809623202276763e-01 5.544648207360663861e+01
1.545215112168930593e-01 3.535917326527603421e+01
1.555620601135584424e-01 2.751768828733401762e+01
1.566026090102238255e-01 2.572293524625739636e+01
1.576431579068892086e-01 2.576235574929085459e+01
1.586837068035545917e-01 2.339333089068578531e+01
1.597242557002199748e-01 1.688764183466624047e+01
1.607648045968853578e-01 1.013868972040079441e+01
1.618053534935507409e-01 6.729054270535225868e+00
1.628459023902161240e-01 4.769541101952860629e+00
1.638864512868815071e-01 3.568603984275419805e+00
1.649270001835468902e-01 2.971322261206001514e+00
1.659675490802122733e-01 2.709890463168168395e+00
1.670080979768776563e-01 2.262039038469989549e+00
1.680486468735430672e-01 1.920389939387106892e+00
1.690891957702084503e-01 2.009198613003398748e+00
1.701297446668738333e-01 2.334643569267065288e+00
1.711702935635392164e-01 2.017352086924386612e+00
1.722108424602045995e-01 1.496444182565660697e+00
1.732513913568699826e-01 1.350580010939470554e+00
1.742919402535353657e-01 1.215028903020975548e+00
1.753324891502007488e-01 1.350850700161746687e+00
1.763730380468661318e-01 1.385317052104607427e+00
1.774135869435315149e-01 1.257369285009595217e+00
1.784541358401968980e-01 1.294898018647408833e+00
1.794946847368622811e-01 1.300319051345873334e+00
1.805352336335276642e-01 1.566692421970646620e+00
1.815757825301930473e-01 1.435203340015096529e+00
1.826163314268584303e-01 1.245319699974199779e+00
1.836568803235238134e-01 1.177214389866012567e+00
1.846974292201891965e-01 1.058633659879724576e+00
1.857379781168545796e-01 9.576063258627627306e-01
1.867785270135199627e-01 1.052857959639492691e+00
1.878190759101853458e-01 1.245191358426833261e+00
1.888596248068507288e-01 1.133899462049026141e+00
1.899001737035161119e-01 9.338681075824020184e-01
1.909407226001814950e-01 1.001019289245334676e+00
1.919812714968468781e-01 9.394540163583897652e-01
1.930218203935122612e-01 5.510838621685287819e-01
1.940623692901776443e-01 7.959074651700142056e-01
1.951029181868430273e-01 1.310035561382779434e+00
1.961434670835084104e-01 1.171827363929278221e+00
1.971840159801737935e-01 1.200323091212496252e+00
1.982245648768391766e-01 1.270692108216604055e+00
1.992651137735045597e-01 1.888262630776196715e+00
2.003056626701699428e-01 2.330757621812406200e+00
2.013462115668353813e-01 2.265768744573982474e+00
2.023867604635007644e-01 2.734970462360184484e+00
2.034273093601661475e-01 3.015543295307651306e+00
2.044678582568315306e-01 3.125010133636248355e+00
2.055084071534969137e-01 2.842243684050828278e+00
2.065489560501622968e-01 2.206340037289031386e+00
2.075895049468276798e-01 1.563506796768034945e+00
2.086300538434930629e-01 1.234783426587682698e+00
2.096706027401584460e-01 1.096545724470690431e+00
2.107111516368238291e-01 1.349845225876848076e+00
2.117517005334892122e-01 1.455576497040379280e+00
2.127922494301545953e-01 1.152715382130054422e+00
2.138327983268199783e-01 1.141062429976173576e+00
2.148733472234853614e-01 1.332546254143682773e+00
2.159138961201507445e-01 1.615171607089902039e+00
2.169544450168161276e-01 1.460885430163308740e+00
2.179949939134815107e-01 1.642062746498950787e+00
2.190355428101468938e-01 2.366310478153156538e+00
2.200760917068122768e-01 2.579785219182205935e+00
2.211166406034776599e-01 3.410929525560884912e+00
2.221571895001430430e-01 4.439849786284156608e+00
2.231977383968084261e-01 5.270564691171376381e+00
2.242382872934738092e-01 5.395271426058965147e+00
2.252788361901391923e-01 4.731350105879887025e+00
2.263193850868045753e-01 3.973838758385021208e+00
2.273599339834699584e-01 3.162358557374407297e+00
2.284004828801353415e-01 2.652530329121809416e+00
2.294410317768007246e-01 2.576884542780319975e+00
2.304815806734661077e-01 2.305270857316362054e+00
2.315221295701314908e-01 2.309130475172050723e+00
2.325626784667968738e-01 2.447465352038008746e+00
2.336032273634622569e-01 2.966703901104825292e+00
2.346437762601276400e-01 3.735477440995303766e+00
2.356843251567930231e-01 4.755910130863053809e+00
2.367248740534584062e-01 5.352058567583121373e+00
2.377654229501237892e-01 5.033827098317800619e+00
2.388059718467891723e-01 3.938259296858309000e+00
2.398465207434545554e-01 2.933403926858584754e+00
2.408870696401199385e-01 2.118221816482598996e+00
2.419276185367853216e-01 1.437731026981957427e+00
2.429681674334507047e-01 1.146057510977438909e+00
2.440087163301160877e-01 1.030418874749912561e+00
2.450492652267814708e-01 1.176658314921137816e+00
2.460898141234468539e-01 8.465381982892772328e-01
2.471303630201122370e-01 5.828050601397620767e-01
2.481709119167776201e-01 6.791663767557167830e-01
2.492114608134430032e-01 7.167814394559002267e-01
2.502520097101083585e-01 6.860817469223086107e-01
2.512925586067737416e-01 6.297286320600186116e-01
2.523331075034391247e-01 4.274487168241485335e-01
2.533736564001045077e-01 5.632662362584284210e-01
2.544142052967698908e-01 5.945692060287619540e-01
2.554547541934352739e-01 6.862731709169196392e-01
2.564953030901006570e-01 1.063755397033958161e+00
2.575358519867660401e-01 9.501235537983241386e-01
2.585764008834314231e-01 8.077908547068801681e-01
2.596169497800968062e-01 9.974869086720268285e-01
2.606574986767621893e-01 8.672804129952780272e-01
2.616980475734275724e-01 4.618831433595786962e-01
2.627385964700929555e-01 4.877108696065768356e-01
2.637791453667583386e-01 4.511195628288220405e-01
2.648196942634237216e-01 2.414633735219844368e-01
2.658602431600891047e-01 4.873256669273970942e-01
2.669007920567544878e-01 4.391553382536095285e-01
2.679413409534198709e-01 4.238869089120314015e-01
2.689818898500852540e-01 5.653507123362508935e-01
2.700224387467506371e-01 3.689518688223820675e-01
2.710629876434160201e-01 2.812534951982215148e-01
2.721035365400814032e-01 3.363389327482018132e-01
2.731440854367467863e-01 2.428830039520697426e-01
2.741846343334121694e-01 2.999461840747876806e-01
2.752251832300775525e-01 5.085072049692840324e-01
2.762657321267429356e-01 5.689852647027393573e-01
2.773062810234083186e-01 5.089543697427174607e-01
2.783468299200737017e-01 3.926025956102314751e-01
2.793873788167390848e-01 5.333512949619674259e-01
2.804279277134044679e-01 6.254499456076629826e-01
2.814684766100698510e-01 3.518038587877860834e-01
2.825090255067352341e-01 2.354125069073518262e-01
2.835495744034006171e-01 3.431935200328624092e-01
2.845901233000660002e-01 5.425571615326525432e-01
2.856306721967313833e-01 5.853960616408571127e-01
2.866712210933967664e-01 4.125177661918577598e-01
2.877117699900621495e-01 6.076006704234728772e-01
2.887523188867275326e-01 5.914942223531660659e-01
2.897928677833929156e-01 6.977707537812420924e-01
2.908334166800582987e-01 7.737625471479177008e-01
2.918739655767236818e-01 8.244377763733794495e-01
2.929145144733890649e-01 7.157801141265984768e-01
2.939550633700544480e-01 8.075394932816237770e-01
2.949956122667198311e-01 7.498064501313379537e-01
2.960361611633852141e-01 7.605320178244916463e-01
2.970767100600505972e-01 1.035387084037306948e+00
2.981172589567159803e-01 9.979997465451333483e-01
2.991578078533813634e-01 8.575489305659473871e-01
3.001983567500468020e-01 1.058489863166535372e+00
3.012389056467121851e-01 1.264071371592351056e+00
3.022794545433775681e-01 1.278726799635432343e+00
3.033200034400429512e-01 9.008412272847188262e-01
3.043605523367083343e-01 1.088816449564561140e+00
3.054011012333737174e-01 1.006543452638695157e+00
3.064416501300391005e-01 9.408203712577112299e-01
3.074821990267044836e-01 6.352514450033410753e-01
3.085227479233698666e-01 4.461106635437595003e-01
3.095632968200352497e-01 4.736691722136860960e-01
3.106038457167006328e-01 5.840566646722962219e-01
3.116443946133660159e-01 4.211899313332025940e-01
3.126849435100313990e-01 4.331889656497374119e-01
3.137254924066967821e-01 4.448201987660915790e-01
3.147660413033621651e-01 4.869388013875841636e-01
3.158065902000275482e-01 7.468794231137749762e-01
3.168471390966929313e-01 6.556398928850555308e-01
3.178876879933583144e-01 7.404204677308641180e-01
3.189282368900236975e-01 5.756971558663224187e-01
3.199687857866890806e-01 5.119506963232751673e-01
3.210093346833544636e-01 5.363322821930474049e-01
3.220498835800198467e-01 6.968461871461215651e-01
3.230904324766852298e-01 8.407666401336797435e-01
3.241309813733506129e-01 8.172289802761092403e-01
3.251715302700159960e-01 8.796562672865064769e-01
3.262120791666813790e-01 1.055285144114119333e+00
3.272526280633467621e-01 1.118011187621071656e+00
3.282931769600121452e-01 1.080345195595004526e+00
3.293337258566775283e-01 9.980758323068883442e-01
3.303742747533429114e-01 8.325624576651975417e-01
3.314148236500082945e-01 4.976418634925927620e-01
3.324553725466736775e-01 5.699071530500354754e-01
3.334959214433390606e-01 6.668628724719809497e-01
3.345364703400044437e-01 5.948423607912438626e-01
3.355770192366698268e-01 5.494816847849577357e-01
3.366175681333352099e-01 4.325825827655123135e-01
3.376581170300005930e-01 3.730886514551166044e-01
3.386986659266659760e-01 4.096739874214598842e-01
3.397392148233313591e-01 4.381085689198691568e-01
3.407797637199967422e-01 3.997662281162419617e-01
3.418203126166621253e-01 3.532826108161444267e-01
3.428608615133275084e-01 3.624485997506248225e-01
3.439014104099928915e-01 2.601030594600501900e-01
3.449419593066582745e-01 4.192223919940936128e-01
3.459825082033236576e-01 5.296417049368749019e-01
3.470230570999890407e-01 2.049898429482261974e-01
3.480636059966544238e-01 6.867244140970996114e-02
3.491041548933198069e-01 8.375968783802179018e-02
3.501447037899851900e-01 2.250227363286256832e-01
3.511852526866505730e-01 2.745064986530643125e-01
3.522258015833159561e-01 2.773372951340462578e-01
3.532663504799813392e-01 4.091622273942974175e-01
3.543068993766467223e-01 4.005672114309106746e-01
3.553474482733121054e-01 3.281434146153188181e-01
3.563879971699774885e-01 3.294190702951311778e-01
3.574285460666428715e-01 4.207671429299750798e-01
3.584690949633082546e-01 2.754513180660680405e-01
3.595096438599736377e-01 2.418374035882457918e-01
3.605501927566390208e-01 1.933009141734061132e-01
3.615907416533044039e-01 1.521491538833217305e-01
3.626312905499697870e-01 2.712347945679027816e-01
3.636718394466351700e-01 2.953106571708516981e-01
3.647123883433005531e-01 2.147386208215635861e-01
3.657529372399659362e-01 1.189901619307143221e-01
3.667934861366313193e-01 2.076658960683772648e-01
3.678340350332967024e-01 2.600124554119531695e-01
3.688745839299620854e-01 3.902923223846173073e-01
3.699151328266274685e-01 3.883471755961913630e-01
3.709556817232928516e-01 3.274125716463203162e-01
3.719962306199582347e-01 4.001154760222149775e-01
3.730367795166236178e-01 3.880462418878920516e-01
3.740773284132890009e-01 3.256534334647156470e-01
3.751178773099543839e-01 3.251793221787657728e-01
3.761584262066197670e-01 4.404035625277025190e-01
3.771989751032851501e-01 6.310682436701284814e-01
3.782395239999505332e-01 4.456865347390710497e-01
3.792800728966159163e-01 4.346471357369452448e-01
3.803206217932812994e-01 5.617633872135847639e-01
3.813611706899466824e-01 4.300593706961564067e-01
3.824017195866120655e-01 4.557731375536882013e-01
3.834422684832774486e-01 5.985884857915166890e-01
3.844828173799428317e-01 6.710022576085812318e-01
3.855233662766082148e-01 5.605701143100816353e-01
3.865639151732735979e-01 4.552585798427131181e-01
3.876044640699389809e-01 4.255620002952333891e-01
3.886450129666043640e-01 3.639291391441545898e-01
3.896855618632697471e-01 5.573519543494782624e-01
3.907261107599351302e-01 6.350439202190614196e-01
3.917666596566005133e-01 5.223604490396773770e-01
3.928072085532658964e-01 5.991734573085985005e-01
3.938477574499312794e-01 4.926961600647601358e-01
3.948883063465966625e-01 6.321031819059435009e-01
3.959288552432620456e-01 5.734960916300160250e-01
3.969694041399274287e-01 4.714536817008614378e-01
3.980099530365928118e-01 4.971921511679866512e-01
3.990505019332581949e-01 5.446039252056102953e-01
4.000910508299235779e-01 3.030504458737119933e-01
4.011315997265889610e-01 2.229954248510281900e-01
4.021721486232543441e-01 3.761303734796577203e-01
4.032126975199197272e-01 3.611024588147344616e-01
4.042532464165851103e-01 3.126152295656297042e-01
4.052937953132504934e-01 3.034468170762778527e-01
4.063343442099158764e-01 2.047703159800349226e-01
4.073748931065812595e-01 1.934824754248261058e-01
4.084154420032466426e-01 5.259840687483396948e-01
4.094559908999120257e-01 4.524575318128079005e-01
4.104965397965774088e-01 3.397780842576487714e-01
4.115370886932427918e-01 3.601340858031534253e-01
4.125776375899081749e-01 2.470540679902981651e-01
4.136181864865735580e-01 1.812766433393022680e-01
4.146587353832389411e-01 5.566407934284356429e-02
4.156992842799043242e-01 1.770321743194749331e-01
4.167398331765697073e-01 3.840418698534726616e-01
4.177803820732350903e-01 2.598768745601844898e-01
4.188209309699004734e-01 2.978072277270449320e-01
4.198614798665658565e-01 3.108499586426134442e-01
4.209020287632312396e-01 3.396209436661123959e-01
4.219425776598966227e-01 2.227050965758543555e-01
4.229831265565620058e-01 1.945698521940357750e-01
4.240236754532273888e-01 2.634619892827174681e-01
4.250642243498927719e-01 2.182324747397075271e-01
4.261047732465581550e-01 1.744922851609196357e-01
4.271453221432235381e-01 5.774846126407240376e-02
4.281858710398889212e-01 4.518208889533781303e-02
4.292264199365543043e-01 1.932098800086379242e-01
4.302669688332196873e-01 3.063152373844140186e-01
4.313075177298850704e-01 2.330610747815597961e-01
4.323480666265504535e-01 1.677110390677825080e-01
4.333886155232158366e-01 1.283970416160933326e-01
4.344291644198812197e-01 1.286487649437830783e-01
