# q (1/Angstrom), Intensity (arb)
2.029070354705860696e-02 1.079800196587347614e+02
2.133125244372399004e-02 9.051135124687317557e+01
2.237180134038937659e-02 7.560334037392033224e+01
2.341235023705475968e-02 6.631330030278533627e+01
2.445289913372014276e-02 5.775111521564878103e+01
2.549344803038552584e-02 4.986770976988097459e+01
2.653399692705091240e-02 4.530080327000347040e+01
2.757454582371629548e-02 4.092793682151776125e+01
2.861509472038167856e-02 3.659501063136345067e+01
2.965564361704706164e-02 3.303167572639354432e+01
3.069619251371244473e-02 3.099741061630896866e+01
3.173674141037782781e-02 2.830880120205164019e+01
3.277729030704321089e-02 2.594444517910974923e+01
3.381783920370859398e-02 2.562524934136551735e+01
3.485838810037397706e-02 2.409672920289245468e+01
3.589893699703936014e-02 2.333734224735341201e+01
3.693948589370474322e-02 2.213002220105124707e+01
3.798003479037012631e-02 2.017820505536278120e+01
3.902058368703550939e-02 1.957393355042569283e+01
4.006113258370089247e-02 1.899373046039065116e+01
4.110168148036627556e-02 1.759913180296317847e+01
4.214223037703165864e-02 1.716812335298612169e+01
4.318277927369704866e-02 1.761407075186044580e+01
4.422332817036243174e-02 1.808919260421856734e+01
4.526387706702781483e-02 1.790022930394763989e+01
4.630442596369319791e-02 1.681817101606016962e+01
4.734497486035858099e-02 1.697615728675425117e+01
4.838552375702396408e-02 1.646504268501318791e+01
4.942607265368934716e-02 1.636351026943243880e+01
5.046662155035473024e-02 1.697192759492655512e+01
5.150717044702011332e-02 1.764270520547193399e+01
5.254771934368549641e-02 1.813194270266599517e+01
5.358826824035087949e-02 1.815751511321482070e+01
5.462881713701626257e-02 1.845772921279080947e+01
5.566936603368164566e-02 1.899028099930758628e+01
5.670991493034702874e-02 1.889275135864243538e+01
5.775046382701241182e-02 1.910884567133109613e+01
5.879101272367779490e-02 1.997246007952622904e+01
5.983156162034317799e-02 2.143434072312664540e+01
6.087211051700856107e-02 2.266233268876040086e+01
6.191265941367394415e-02 2.414532518549104623e+01
6.295320831033933417e-02 2.614099926896629711e+01
6.399375720700471726e-02 2.863194167257637446e+01
6.503430610367010034e-02 3.117367135295280178e+01
6.607485500033548342e-02 3.368198982591383128e+01
6.711540389700086651e-02 3.709418968326068011e+01
6.815595279366624959e-02 4.070441683253460496e+01
6.919650169033163267e-02 4.390111010492915966e+01
7.023705058699701576e-02 4.865693801145915387e+01
7.127759948366239884e-02 5.678051131427542231e+01
7.231814838032778192e-02 7.107416832986884003e+01
7.335869727699316500e-02 1.054103304639342582e+02
7.439924617365854809e-02 1.821649690180114192e+02
7.543979507032393117e-02 2.928179304170450905e+02
7.648034396698931425e-02 3.988300344683603953e+02
7.752089286365469734e-02 5.481071960510626013e+02
7.856144176032008042e-02 8.877887769112409160e+02
7.960199065698546350e-02 1.305316849728063744e+03
8.064253955365084658e-02 1.289717013680544596e+03
8.168308845031622967e-02 8.350427011459066762e+02
8.272363734698161275e-02 4.858325980243179743e+02
8.376418624364699583e-02 3.398018986878626038e+02
8.480473514031239279e-02 2.700347552038064691e+02
8.584528403697777588e-02 2.250871957939286290e+02
8.688583293364315896e-02 1.912981602273428621e+02
8.792638183030854204e-02 1.644672255774548546e+02
8.896693072697392513e-02 1.486195064480400845e+02
9.000747962363930821e-02 1.451457853704497438e+02
9.104802852030469129e-02 1.547504043100388458e+02
9.208857741697007437e-02 1.576839290971041407e+02
9.312912631363545746e-02 1.265660754077496790e+02
9.416967521030084054e-02 7.662363032710536004e+01
9.521022410696622362e-02 4.172939617044748672e+01
9.625077300363160671e-02 2.552666823785233419e+01
9.729132190029698979e-02 1.660826336098572398e+01
9.833187079696237287e-02 1.169996224346205338e+01
9.937241969362775595e-02 8.671520852087873266e+00
1.004129685902931390e-01 7.180512518959325519e+00
1.014535174869585221e-01 5.997350198860665671e+00
1.024940663836239052e-01 5.308629996618329017e+00
1.035346152802892883e-01 4.324310627048241429e+00
1.045751641769546714e-01 3.275167273795517531e+00
1.056157130736200545e-01 2.931967751573374414e+00
1.066562619702854375e-01 2.728286210932964195e+00
1.076968108669508206e-01 2.483714883921919636e+00
1.087373597636162037e-01 2.224754316852660452e+00
1.097779086602815868e-01 1.799532049486749941e+00
1.108184575569469699e-01 2.040545586823668600e+00
1.118590064536123529e-01 2.075351645014251289e+00
1.128995553502777360e-01 1.860521254293345805e+00
1.139401042469431191e-01 1.732698092286810265e+00
1.149806531436085022e-01 2.207638259477668896e+00
1.160212020402738853e-01 2.811105725255870880e+00
1.170617509369392684e-01 2.881449009215046431e+00
1.181022998336046514e-01 2.957540151989178412e+00
1.191428487302700345e-01 3.037712873429008198e+00
1.201833976269354176e-01 2.937194276833452022e+00
1.212239465236008007e-01 3.456021081011897422e+00
1.222644954202661838e-01 4.061140910267518223e+00
1.233050443169315669e-01 4.267510301197972922e+00
1.243455932135969499e-01 4.096423315022860834e+00
1.253861421102623330e-01 5.359313259597819012e+00
1.264266910069277161e-01 7.292936087635276010e+00
1.274672399035930992e-01 1.114110100597055464e+01
1.285077888002584823e-01 1.942963185575465701e+01
1.295483376969238654e-01 3.364523588552167865e+01
1.305888865935892484e-01 4.440527994919158061e+01
1.316294354902546315e-01 3.876208884648076491e+01
1.326699843869200146e-01 2.493240980490033465e+01
1.337105332835853977e-01 1.598424025815482707e+01
1.347510821802507808e-01 1.194686621945878358e+01
1.357916310769161639e-01 1.020310951626756690e+01
1.368321799735815469e-01 9.630203309897538588e+00
1.378727288702469300e-01 9.337824835069810092e+00
1.389132777669123131e-01 8.934830084383403204e+00
1.399538266635776962e-01 8.995654121925937829e+00
1.409943755602430793e-01 8.743596358182102790e+00
1.420349244569084624e-01 8.669214362138315977e+00
1.430754733535738454e-01 9.100460206296506982e+00
1.441160222502392285e-01 9.348072470731626282e+00
1.451565711469046116e-01 9.064705813256495048e+00
1.461971200435699947e-01 9.902931380026128494e+00
1.472376689402353778e-01 1.143708822061947572e+01
1.482782178369007609e-01 1.431360724173008592e+01
1.493187667335661439e-01 1.927606171138634394e+01
1.503593156302315270e-01 3.034532032757273967e+01
1.513998645268969101e-01 5.022201363219755166e+01
1.524404134235622932e-01 7.326294061489582532e+01
1.534809623202276763e-01 8.062141318166426629e+01
1.545215112168930593e-01 6.286007461825145981e+01
1.555620601135584424e-01 3.927296981481238447e+01
1.566026090102238255e-01 2.617644053136589122e+01
1.576431579068892086e-01 2.166348420090615789e+01
1.586837068035545917e-01 2.138316661761448145e+01
1.597242557002199748e-01 2.097790203265537912e+01
1.607648045968853578e-01 1.716197574384696978e+01
1.618053534935507409e-01 1.180820058271497075e+01
1.628459023902161240e-01 7.665835301706763971e+00
1.638864512868815071e-01 5.208298769126642469e+00
1.649270001835468902e-01 3.564333087178461312e+00
1.659675490802122733e-01 2.745726481345851511e+00
1.670080979768776563e-01 2.782552541499978105e+00
1.680486468735430672e-01 2.506874962520061700e+00
1.690891957702084503e-01 1.899343525815126554e+00
1.701297446668738333e-01 1.593104497199959724e+00
1.711702935635392164e-01 1.169296594964666980e+00
1.722108424602045995e-01 1.357267736082977905e+00
1.732513913568699826e-01 1.501801236717717813e+00
1.742919402535353657e-01 1.426079386865886534e+00
1.753324891502007488e-01 1.382927514119835166e+00
1.763730380468661318e-01 1.416646110988871499e+00
1.774135869435315149e-01 1.229562312564077331e+00
1.784541358401968980e-01 1.072407469662465473e+00
1.794946847368622811e-01 9.841969086271156186e-01
1.805352336335276642e-01 1.002781634917027986e+00
1.815757825301930473e-01 1.055444706136832167e+00
1.826163314268584303e-01 9.485878400536087440e-01
1.836568803235238134e-01 1.261952493598254676e+00
1.846974292201891965e-01 1.399458682569630241e+00
1.857379781168545796e-01 1.030144558459145543e+00
1.867785270135199627e-01 8.096278665129581498e-01
1.878190759101853458e-01 8.619264691923227417e-01
1.888596248068507288e-01 1.039997619241916027e+00
1.899001737035161119e-01 7.479252241376279642e-01
1.909407226001814950e-01 4.568770475025303313e-01
1.919812714968468781e-01 5.711500279720844730e-01
1.930218203935122612e-01 5.024030722602645938e-01
1.940623692901776443e-01 4.611273077409343557e-01
1.951029181868430273e-01 9.393981417961363434e-01
1.961434670835084104e-01 9.391977228206336292e-01
1.971840159801737935e-01 9.274089081248533262e-01
1.982245648768391766e-01 1.070864476790081454e+00
1.992651137735045597e-01 1.240890242288120504e+00
2.003056626701699428e-01 1.736747496530941959e+00
2.013462115668353813e-01 2.350638185402814884e+00
2.023867604635007644e-01 2.522867619393114325e+00
2.034273093601661475e-01 2.889004893712581179e+00
2.044678582568315306e-01 3.242325410138743536e+00
2.055084071534969137e-01 3.682922354154520406e+00
2.065489560501622968e-01 3.827150223898676984e+00
2.075895049468276798e-01 3.560399330164354836e+00
2.086300538434930629e-01 2.671489914255683829e+00
2.096706027401584460e-01 1.875271022741323179e+00
2.107111516368238291e-01 1.502712532530029677e+00
2.117517005334892122e-01 1.604238027503825492e+00
2.127922494301545953e-01 1.446584280544193746e+00
2.138327983268199783e-01 1.594300988368249961e+00
2.148733472234853614e-01 1.526049674690611369e+00
2.159138961201507445e-01 1.666018514434782105e+00
2.169544450168161276e-01 1.539847710520906077e+00
2.179949939134815107e-01 1.398035333124099111e+00
2.190355428101468938e-01 1.606553912445704668e+00
2.200760917068122768e-01 1.649051899491368545e+00
2.211166406034776599e-01 1.813304609468996631e+00
2.221571895001430430e-01 2.062582538754604400e+00
2.231977383968084261e-01 2.321241166507142850e+00
2.242382872934738092e-01 3.479104422947134623e+00
2.252788361901391923e-01 4.477742772244731384e+00
2.263193850868045753e-01 5.164931013841826513e+00
2.273599339834699584e-01 5.244912181138452922e+00
2.284004828801353415e-01 4.175177635744592664e+00
2.294410317768007246e-01 3.099487189547591726e+00
2.304815806734661077e-01 2.328568808968377368e+00
2.315221295701314908e-01 2.001187017608391017e+00
2.325626784667968738e-01 1.896292641533548817e+00
2.336032273634622569e-01 2.073951632726295458e+00
2.346437762601276400e-01 1.976955060168290146e+00
2.356843251567930231e-01 2.172230360985391684e+00
2.367248740534584062e-01 2.554952372420430606e+00
2.377654229501237892e-01 3.306252231312843293e+00
2.388059718467891723e-01 4.191837204926855520e+00
2.398465207434545554e-01 4.581088767230696135e+00
2.408870696401199385e-01 4.134049246460104854e+00
2.419276185367853216e-01 3.399127101981207488e+00
2.429681674334507047e-01 2.113693740865858928e+00
2.440087163301160877e-01 1.424115401044392826e+00
2.450492652267814708e-01 1.061654779819075856e+00
2.460898141234468539e-01 9.289875449210640568e-01
2.471303630201122370e-01 9.513464903997927991e-01
2.481709119167776201e-01 8.348171778470963034e-01
2.492114608134430032e-01 7.308889250676386951e-01
2.502520097101083585e-01 7.732901410323371749e-01
2.512925586067737416e-01 4.775280328312874190e-01
2.523331075034391247e-01 3.673314561854006399e-01
2.533736564001045077e-01 3.863217891940031734e-01
2.544142052967698908e-01 5.390149862397102254e-01
2.554547541934352739e-01 3.452111311568692997e-01
2.564953030901006570e-01 6.996116558004210617e-01
2.575358519867660401e-01 6.177793618221159022e-01
2.585764008834314231e-01 3.281438818452500072e-01
2.596169497800968062e-01 4.041222490947582457e-01
2.606574986767621893e-01 7.314185986439127873e-01
2.616980475734275724e-01 6.451818133208035988e-01
2.627385964700929555e-01 6.793522026503531208e-01
2.637791453667583386e-01 7.875467923798851189e-01
2.648196942634237216e-01 6.124731578666668952e-01
2.658602431600891047e-01 2.952978639259029592e-02
2.669007920567544878e-01 3.254052987906774774e-02
2.679413409534198709e-01 2.785152619192814427e-01
2.689818898500852540e-01 2.897265092068224135e-01
2.700224387467506371e-01 2.358274573388356998e-01
2.710629876434160201e-01 2.477836109644684370e-01
2.721035365400814032e-01 1.064386140070965325e-01
2.731440854367467863e-01 1.779235811878727702e-01
2.741846343334121694e-01 2.163762736704342160e-01
2.752251832300775525e-01 3.715403181607115357e-01
2.762657321267429356e-01 6.080204204299093362e-01
2.773062810234083186e-01 5.972660211071278979e-01
2.783468299200737017e-01 6.344105713980070504e-01
2.793873788167390848e-01 5.308893079005621018e-01
2.804279277134044679e-01 4.367117707153518325e-01
2.814684766100698510e-01 5.672466736518941843e-01
2.825090255067352341e-01 4.910520429703026934e-01
2.835495744034006171e-01 5.689811502996313664e-01
2.845901233000660002e-01 6.758704969682760577e-01
2.856306721967313833e-01 6.638121633235947172e-01
2.866712210933967664e-01 4.302065146573283982e-01
2.877117699900621495e-01 3.830486096541925178e-01
2.887523188867275326e-01 3.903294599656028652e-01
2.897928677833929156e-01 6.919973831387729035e-01
2.908334166800582987e-01 6.965873340040218409e-01
2.918739655767236818e-01 7.868694189122535931e-01
2.929145144733890649e-01 5.406858638240805703e-01
2.939550633700544480e-01 5.472737942727654570e-01
2.949956122667198311e-01 5.945698004033168615e-01
2.960361611633852141e-01 4.204030800776088483e-01
2.970767100600505972e-01 3.415024148534833159e-01
2.981172589567159803e-01 6.490958675480555939e-01
2.991578078533813634e-01 5.787784046664903315e-01
3.001983567500468020e-01 7.447154820074004533e-01
3.012389056467121851e-01 7.899400559557214763e-01
3.022794545433775681e-01 1.047259394236554897e+00
3.033200034400429512e-01 9.579036781234258058e-01
3.043605523367083343e-01 9.350079138057232342e-01
3.054011012333737174e-01 1.075374503338284882e+00
3.064416501300391005e-01 1.069502752862046435e+00
3.074821990267044836e-01 1.045250552035987823e+00
3.085227479233698666e-01 7.347726166373291790e-01
3.095632968200352497e-01 9.002469037448470601e-01
3.106038457167006328e-01 6.659736159139555411e-01
3.116443946133660159e-01 3.717985834850452420e-01
3.126849435100313990e-01 6.565376191033820419e-01
3.137254924066967821e-01 4.463395665380502919e-01
3.147660413033621651e-01 2.588335072826772887e-01
3.158065902000275482e-01 9.017771684115771791e-02
3.168471390966929313e-01 6.809925164499475159e-02
3.178876879933583144e-01 5.532825054476617765e-01
3.189282368900236975e-01 8.149768113437403372e-01
3.199687857866890806e-01 8.872614312641680101e-01
3.210093346833544636e-01 5.488940089672276201e-01
3.220498835800198467e-01 2.817279231227161063e-01
3.230904324766852298e-01 6.559358140006814608e-01
3.241309813733506129e-01 6.012787849137559704e-01
3.251715302700159960e-01 3.422280076732100440e-01
3.262120791666813790e-01 4.173175228521657232e-01
3.272526280633467621e-01 4.393708813726746598e-01
3.282931769600121452e-01 6.939004435113247382e-01
3.293337258566775283e-01 7.217284841981381760e-01
3.303742747533429114e-01 8.627871756922189661e-01
3.314148236500082945e-01 5.961414512395641907e-01
3.324553725466736775e-01 3.800310751482882665e-01
3.334959214433390606e-01 5.271351592852262513e-01
3.345364703400044437e-01 5.914376301547967785e-01
3.355770192366698268e-01 4.023918384534184156e-01
3.366175681333352099e-01 4.460405321835807513e-01
3.376581170300005930e-01 7.442552611456569878e-01
3.386986659266659760e-01 6.255641600253412093e-01
3.397392148233313591e-01 5.747495562658748725e-01
3.407797637199967422e-01 5.944074184182071008e-01
3.418203126166621253e-01 5.625956169203796264e-01
3.428608615133275084e-01 4.505982816870819363e-01
3.439014104099928915e-01 3.101553979862785582e-01
3.449419593066582745e-01 4.566706156831621399e-01
3.459825082033236576e-01 3.958927312347100269e-01
3.470230570999890407e-01 3.611819475298183590e-01
3.480636059966544238e-01 1.095353470519633277e-01
3.491041548933198069e-01 1.303527927534453568e-01
3.501447037899851900e-01 6.622012687211054072e-02
3.511852526866505730e-01 5.503872523377140169e-02
3.522258015833159561e-01 3.589481344993750156e-01
3.532663504799813392e-01 5.262004096876395920e-01
3.543068993766467223e-01 3.959858704715841782e-01
3.553474482733121054e-01 1.977166435088975049e-01
3.563879971699774885e-01 1.234617938816988669e-01
3.574285460666428715e-01 3.280836739629400256e-01
3.584690949633082546e-01 1.881938662745987756e-01
3.595096438599736377e-01 2.770288074481186413e-01
3.605501927566390208e-01 2.664159458452424190e-01
3.615907416533044039e-01 4.954196787143061442e-02
3.626312905499697870e-01 0.000000000000000000e+00
3.636718394466351700e-01 2.703007955487883862e-01
3.647123883433005531e-01 4.667576782148969983e-01
3.657529372399659362e-01 4.867847809328331721e-01
3.667934861366313193e-01 2.795622362262548677e-01
3.678340350332967024e-01 3.572202971643250180e-01
3.688745839299620854e-01 2.793091348846132860e-01
3.699151328266274685e-01 3.182175667637174854e-01
3.709556817232928516e-01 4.257409472198290246e-01
3.719962306199582347e-01 5.748374442435064680e-01
3.730367795166236178e-01 5.882084680966741530e-01
3.740773284132890009e-01 2.991998979132013403e-01
3.751178773099543839e-01 2.296998948501816074e-01
3.761584262066197670e-01 3.141807242559693236e-01
3.771989751032851501e-01 3.285403773925068549e-01
3.782395239999505332e-01 3.150731280630978404e-01
3.792800728966159163e-01 5.458066020565155441e-01
3.803206217932812994e-01 5.776375386739545092e-01
3.813611706899466824e-01 4.683696431932062865e-01
3.824017195866120655e-01 3.738354420016918311e-01
3.834422684832774486e-01 4.107433799336455138e-01
3.844828173799428317e-01 5.222011690331385125e-01
3.855233662766082148e-01 5.241182871289602474e-01
3.865639151732735979e-01 4.768025434209839375e-01
3.876044640699389809e-01 3.821628243550385662e-01
3.886450129666043640e-01 4.036950800013769936e-01
3.896855618632697471e-01 5.453168072374730002e-01
3.907261107599351302e-01 7.211581571199694451e-01
3.917666596566005133e-01 4.784756200961801653e-01
3.928072085532658964e-01 4.568268870432419249e-01
3.938477574499312794e-01 6.083777668130565530e-01
3.948883063465966625e-01 6.376617416543588490e-01
3.959288552432620456e-01 5.662165689346352337e-01
3.969694041399274287e-01 6.366663399064051987e-01
3.980099530365928118e-01 6.269614545554134111e-01
3.990505019332581949e-01 4.913789992553070363e-01
4.000910508299235779e-01 3.230645354445513817e-01
4.011315997265889610e-01 3.627329102842544728e-01
4.021721486232543441e-01 2.519105607076923548e-01
4.032126975199197272e-01 4.783844731120332483e-01
4.042532464165851103e-01 5.359820398395527263e-01
4.052937953132504934e-01 4.904659810294837996e-01
4.063343442099158764e-01 3.333987353784557683e-01
4.073748931065812595e-01 2.748235469220965399e-01
4.084154420032466426e-01 3.239803173616095933e-01
4.094559908999120257e-01 3.138653527628179063e-01
4.104965397965774088e-01 4.349778867773927971e-01
4.115370886932427918e-01 5.825318754496855433e-01
4.125776375899081749e-01 5.212219445157266762e-01
4.136181864865735580e-01 3.792466016972646514e-01
4.146587353832389411e-01 3.544693153342244329e-01
4.156992842799043242e-01 3.667775708522675870e-01
4.167398331765697073e-01 3.373691438573231949e-01
4.177803820732350903e-01 2.472563103721832078e-01
4.188209309699004734e-01 2.396722751363071779e-01
4.198614798665658565e-01 3.439188104477963748e-01
4.209020287632312396e-01 3.607787853787911558e-01
4.219425776598966227e-01 2.277105069314266927e-01
4.229831265565620058e-01 2.557348544240021226e-01
4.240236754532273888e-01 2.546975748992643673e-01
4.250642243498927719e-01 2.385395460488233255e-01
4.261047732465581550e-01 3.189110421748715396e-01
4.271453221432235381e-01 4.273976010403011117e-01
4.281858710398889212e-01 2.639109423745118477e-01
4.292264199365543043e-01 3.791567149024395178e-01
4.302669688332196873e-01 4.554855172533933683e-01
4.313075177298850704e-01 3.900472117363484870e-01
4.323480666265504535e-01 7.667079598812875929e-02
4.333886155232158366e-01 4.394835929296903032e-03
4.344291644198812197e-01 1.201345831336695369e-01
