# q (1/Angstrom), Intensity (arb)
2.029070354705860696e-02 1.049704294713390027e+02
2.133125244372399004e-02 9.349742895828904921e+01
2.237180134038937659e-02 7.846331835887906436e+01
2.341235023705475968e-02 6.627477845586668082e+01
2.445289913372014276e-02 5.815348781788802057e+01
2.549344803038552584e-02 5.103344421424492339e+01
2.653399692705091240e-02 4.414516594693158424e+01
2.757454582371629548e-02 3.903078022317960460e+01
2.861509472038167856e-02 3.374154066200024715e+01
2.965564361704706164e-02 3.079453473060304702e+01
3.069619251371244473e-02 2.878232977980086105e+01
3.173674141037782781e-02 2.782217076963443958e+01
3.277729030704321089e-02 2.664501859444635556e+01
3.381783920370859398e-02 2.321946396717883943e+01
3.485838810037397706e-02 2.158084844519390799e+01
3.589893699703936014e-02 2.046169620024586777e+01
3.693948589370474322e-02 2.045559860944661068e+01
3.798003479037012631e-02 2.001953221017546269e+01
3.902058368703550939e-02 1.872337301392737174e+01
4.006113258370089247e-02 1.897811939614643251e+01
4.110168148036627556e-02 1.855597842744965220e+01
4.214223037703165864e-02 1.671473721096892007e+01
4.318277927369704866e-02 1.562299952219108690e+01
4.422332817036243174e-02 1.546603811644867221e+01
4.526387706702781483e-02 1.513546743081330703e+01
4.630442596369319791e-02 1.558313593740176373e+01
4.734497486035858099e-02 1.522818023525121589e+01
4.838552375702396408e-02 1.539974906673647581e+01
4.942607265368934716e-02 1.455190438665501063e+01
5.046662155035473024e-02 1.521276169433305370e+01
5.150717044702011332e-02 1.545347569416558287e+01
5.254771934368549641e-02 1.548932844997844427e+01
5.358826824035087949e-02 1.584214973350010069e+01
5.462881713701626257e-02 1.649657708033153369e+01
5.566936603368164566e-02 1.755658086104470073e+01
5.670991493034702874e-02 1.833864200266719280e+01
5.775046382701241182e-02 1.858506379679295861e+01
5.879101272367779490e-02 1.891090258590808304e+01
5.983156162034317799e-02 2.071890222393403747e+01
6.087211051700856107e-02 2.182652650634405944e+01
6.191265941367394415e-02 2.252454057220336381e+01
6.295320831033933417e-02 2.409819134545919894e+01
6.399375720700471726e-02 2.630026700870216416e+01
6.503430610367010034e-02 2.798328354353370173e+01
6.607485500033548342e-02 3.110039775208797863e+01
6.711540389700086651e-02 3.412070108162115645e+01
6.815595279366624959e-02 3.720698848308768447e+01
6.919650169033163267e-02 4.024683986944143754e+01
7.023705058699701576e-02 4.544926310652409995e+01
7.127759948366239884e-02 5.090906914723117183e+01
7.231814838032778192e-02 6.197649122867669291e+01
7.335869727699316500e-02 8.748854133310479142e+01
7.439924617365854809e-02 1.475446364993804877e+02
7.543979507032393117e-02 2.482095346110228320e+02
7.648034396698931425e-02 3.505440366020858960e+02
7.752089286365469734e-02 4.667771192479516458e+02
7.856144176032008042e-02 7.216554316642193498e+02
7.960199065698546350e-02 1.138168775220897942e+03
8.064253955365084658e-02 1.287958910163788005e+03
8.168308845031622967e-02 9.306117394114994568e+02
8.272363734698161275e-02 5.355841188074740558e+02
8.376418624364699583e-02 3.532989578480564319e+02
8.480473514031239279e-02 2.721902217491187344e+02
8.584528403697777588e-02 2.238437849038470517e+02
8.688583293364315896e-02 1.885966325530208678e+02
8.792638183030854204e-02 1.613264683739956240e+02
8.896693072697392513e-02 1.429270735017501295e+02
9.000747962363930821e-02 1.348204886189301135e+02
9.104802852030469129e-02 1.401044467023586435e+02
9.208857741697007437e-02 1.482481101690500509e+02
9.312912631363545746e-02 1.311602511396706916e+02
9.416967521030084054e-02 8.589783962882623314e+01
9.521022410696622362e-02 4.738508041959569539e+01
9.625077300363160671e-02 2.757032916090303587e+01
9.729132190029698979e-02 1.793520511790234195e+01
9.833187079696237287e-02 1.244350477640268338e+01
9.937241969362775595e-02 9.418552205520512643e+00
1.004129685902931390e-01 7.260568368284637586e+00
1.014535174869585221e-01 6.214309021673983580e+00
1.024940663836239052e-01 5.004371869695397379e+00
1.035346152802892883e-01 4.265598239604351249e+00
1.045751641769546714e-01 4.141658211320567773e+00
1.056157130736200545e-01 3.254535226350796506e+00
1.066562619702854375e-01 2.160504046942676837e+00
1.076968108669508206e-01 1.871477121719863135e+00
1.087373597636162037e-01 2.336326266076667935e+00
1.097779086602815868e-01 2.647154474730662344e+00
1.108184575569469699e-01 2.170178461278553073e+00
1.118590064536123529e-01 1.933926199978877492e+00
1.128995553502777360e-01 1.811828968980734089e+00
1.139401042469431191e-01 2.025853529435096334e+00
1.149806531436085022e-01 2.358011642582830802e+00
1.160212020402738853e-01 2.527620224097162804e+00
1.170617509369392684e-01 2.359557651111884979e+00
1.181022998336046514e-01 2.370753660870114743e+00
1.191428487302700345e-01 2.679713940754226087e+00
1.201833976269354176e-01 3.049917459104030115e+00
1.212239465236008007e-01 3.011436555490931255e+00
1.222644954202661838e-01 3.149159353560818886e+00
1.233050443169315669e-01 3.531050674541759804e+00
1.243455932135969499e-01 4.389173540224938108e+00
1.253861421102623330e-01 5.037212935636645739e+00
1.264266910069277161e-01 5.902639893474898258e+00
1.274672399035930992e-01 8.618724893109927621e+00
1.285077888002584823e-01 1.453584398350839280e+01
1.295483376969238654e-01 2.659083499334672496e+01
1.305888865935892484e-01 4.121295460684336120e+01
1.316294354902546315e-01 4.386498053023898080e+01
1.326699843869200146e-01 3.117421829605859074e+01
1.337105332835853977e-01 1.898897311863328241e+01
1.347510821802507808e-01 1.313405527932504668e+01
1.357916310769161639e-01 1.020340895789714608e+01
1.368321799735815469e-01 9.016369913014280257e+00
1.378727288702469300e-01 9.009054587377661960e+00
1.389132777669123131e-01 8.877654966886602494e+00
1.399538266635776962e-01 8.928651247737199981e+00
1.409943755602430793e-01 8.759045260148774048e+00
1.420349244569084624e-01 8.125484589312137018e+00
1.430754733535738454e-01 8.513396898248515754e+00
1.441160222502392285e-01 9.086886006576939678e+00
1.451565711469046116e-01 9.366351336860709864e+00
1.461971200435699947e-01 9.685380546684143610e+00
1.472376689402353778e-01 1.040942700120009334e+01
1.482782178369007609e-01 1.204812542818549304e+01
1.493187667335661439e-01 1.539552760787108099e+01
1.503593156302315270e-01 2.209461671839894592e+01
1.513998645268969101e-01 3.637187443162768830e+01
1.524404134235622932e-01 5.803121897195910606e+01
1.534809623202276763e-01 7.545548180989469245e+01
1.545215112168930593e-01 7.188038554421504500e+01
1.555620601135584424e-01 5.051229792509002436e+01
1.566026090102238255e-01 3.148055443724847180e+01
1.576431579068892086e-01 2.282844173808818056e+01
1.586837068035545917e-01 2.011495234132966914e+01
1.597242557002199748e-01 2.034868467892855648e+01
1.607648045968853578e-01 1.887060202172707335e+01
1.618053534935507409e-01 1.444053324371736124e+01
1.628459023902161240e-01 9.554281968946881420e+00
1.638864512868815071e-01 6.095516275805529460e+00
1.649270001835468902e-01 4.478667604759159815e+00
1.659675490802122733e-01 3.423374300142612014e+00
1.670080979768776563e-01 2.800006611112145549e+00
1.680486468735430672e-01 2.272423981323711928e+00
1.690891957702084503e-01 2.038692827626384485e+00
1.701297446668738333e-01 2.165535653768870361e+00
1.711702935635392164e-01 1.754228351220589843e+00
1.722108424602045995e-01 1.122167506626837508e+00
1.732513913568699826e-01 1.489571042829069825e+00
1.742919402535353657e-01 1.291920937054634066e+00
1.753324891502007488e-01 8.366367135700016888e-01
1.763730380468661318e-01 1.009331631127359685e+00
1.774135869435315149e-01 1.116983493594439381e+00
1.784541358401968980e-01 1.199224190629180953e+00
1.794946847368622811e-01 9.230819287785578808e-01
1.805352336335276642e-01 9.870504644829907193e-01
1.815757825301930473e-01 8.911600789624714025e-01
1.826163314268584303e-01 7.180328589415054807e-01
1.836568803235238134e-01 8.673349747644039098e-01
1.846974292201891965e-01 1.283729929666577618e+00
1.857379781168545796e-01 1.408801564722480748e+00
1.867785270135199627e-01 1.198797628015618955e+00
1.878190759101853458e-01 9.843891982651129524e-01
1.888596248068507288e-01 4.177776010762173087e-01
1.899001737035161119e-01 6.137086687751889258e-01
1.909407226001814950e-01 8.580359974221423158e-01
1.919812714968468781e-01 8.581071917123352932e-01
1.930218203935122612e-01 8.119330005762535052e-01
1.940623692901776443e-01 8.068652006808534338e-01
1.951029181868430273e-01 7.348141668431225071e-01
1.961434670835084104e-01 9.292802665682557972e-01
1.971840159801737935e-01 1.114420005705753169e+00
1.982245648768391766e-01 1.281192628804141975e+00
1.992651137735045597e-01 1.222456317663727532e+00
2.003056626701699428e-01 1.647476799575215978e+00
2.013462115668353813e-01 1.919509586106890708e+00
2.023867604635007644e-01 2.110195493342686746e+00
2.034273093601661475e-01 2.531401671664333719e+00
2.044678582568315306e-01 2.799481642673704584e+00
2.055084071534969137e-01 3.306465865680308980e+00
2.065489560501622968e-01 3.937363762795065725e+00
2.075895049468276798e-01 4.328804893184653224e+00
2.086300538434930629e-01 3.860391045411116551e+00
2.096706027401584460e-01 2.704810447907377124e+00
2.107111516368238291e-01 1.804853372447517756e+00
2.117517005334892122e-01 1.543335658769954932e+00
2.127922494301545953e-01 1.458049998531258495e+00
2.138327983268199783e-01 1.316637037235651064e+00
2.148733472234853614e-01 1.507711722923463782e+00
2.159138961201507445e-01 1.295055236087083728e+00
2.169544450168161276e-01 1.283010631089531728e+00
2.179949939134815107e-01 1.191502884527785966e+00
2.190355428101468938e-01 1.388830156184283737e+00
2.200760917068122768e-01 1.532154469821488618e+00
2.211166406034776599e-01 1.485137049635035567e+00
2.221571895001430430e-01 1.999844518868080456e+00
2.231977383968084261e-01 2.289298397001150676e+00
2.242382872934738092e-01 2.774832937586484860e+00
2.252788361901391923e-01 3.514104997900467708e+00
2.263193850868045753e-01 4.449247270406427646e+00
2.273599339834699584e-01 4.791614102055035573e+00
2.284004828801353415e-01 4.442749639085111113e+00
2.294410317768007246e-01 3.621149747537785402e+00
2.304815806734661077e-01 3.172836792811054352e+00
2.315221295701314908e-01 2.691885841098567766e+00
2.325626784667968738e-01 1.915700160771066862e+00
2.336032273634622569e-01 1.776747319766325717e+00
2.346437762601276400e-01 2.143174855605842311e+00
2.356843251567930231e-01 2.602558245604345899e+00
2.367248740534584062e-01 2.620249612114946558e+00
2.377654229501237892e-01 2.870613852723042925e+00
2.388059718467891723e-01 3.615225872357129333e+00
2.398465207434545554e-01 4.082082382371396534e+00
2.408870696401199385e-01 3.804277105219391331e+00
2.419276185367853216e-01 3.396942602500303110e+00
2.429681674334507047e-01 2.913972872842190753e+00
2.440087163301160877e-01 2.071391115644750869e+00
2.450492652267814708e-01 1.497769257558807965e+00
2.460898141234468539e-01 1.043874060055316022e+00
2.471303630201122370e-01 8.557008667841756733e-01
2.481709119167776201e-01 9.466780086788375570e-01
2.492114608134430032e-01 7.025654898612536670e-01
2.502520097101083585e-01 7.360128726681303135e-01
2.512925586067737416e-01 6.934528960642332152e-01
2.523331075034391247e-01 9.479686846336754513e-01
2.533736564001045077e-01 1.023841281742924991e+00
2.544142052967698908e-01 7.214467813342544389e-01
2.554547541934352739e-01 7.606066635896517880e-01
2.564953030901006570e-01 6.953595276688062654e-01
2.575358519867660401e-01 5.330216988234148801e-01
2.585764008834314231e-01 6.508814261457978034e-01
2.596169497800968062e-01 7.838170421990326986e-01
2.606574986767621893e-01 7.014277186800477182e-01
2.616980475734275724e-01 9.372271462146564147e-01
2.627385964700929555e-01 7.514620931024857953e-01
2.637791453667583386e-01 3.220131731450273094e-01
2.648196942634237216e-01 4.340490851085974100e-01
2.658602431600891047e-01 4.975647244083312160e-01
2.669007920567544878e-01 4.281432890595553431e-01
2.679413409534198709e-01 5.648295482930443256e-01
2.689818898500852540e-01 2.700064213570669835e-01
2.700224387467506371e-01 1.684734560029816919e-01
2.710629876434160201e-01 3.886814304372165907e-01
2.721035365400814032e-01 5.465857459733705070e-01
2.731440854367467863e-01 3.864703042332386929e-01
2.741846343334121694e-01 5.708559092480172126e-01
2.752251832300775525e-01 5.432199088485489824e-01
2.762657321267429356e-01 3.955792674911400297e-01
2.773062810234083186e-01 3.971334999534619215e-01
2.783468299200737017e-01 4.178312958268044497e-01
2.793873788167390848e-01 4.135569805360468365e-01
2.804279277134044679e-01 4.155645340837459401e-01
2.814684766100698510e-01 6.053818267003698850e-01
2.825090255067352341e-01 4.686285651860622181e-01
2.835495744034006171e-01 3.956339054906194974e-01
2.845901233000660002e-01 3.529946249236601830e-01
2.856306721967313833e-01 4.856268744753151623e-01
2.866712210933967664e-01 5.863031806764205101e-01
2.877117699900621495e-01 9.968611116871670674e-01
2.887523188867275326e-01 6.429956342238760669e-01
2.897928677833929156e-01 6.401485682507512820e-01
2.908334166800582987e-01 7.263771658818924948e-01
2.918739655767236818e-01 9.453003483181525723e-01
2.929145144733890649e-01 7.084911285708770379e-01
2.939550633700544480e-01 6.297807213538639814e-01
2.949956122667198311e-01 8.764297724473699702e-01
2.960361611633852141e-01 1.067107551282422406e+00
2.970767100600505972e-01 9.811595643124562116e-01
2.981172589567159803e-01 1.038045504220072246e+00
2.991578078533813634e-01 8.980478283779120829e-01
3.001983567500468020e-01 1.062713479650991388e+00
3.012389056467121851e-01 1.104232204760268843e+00
3.022794545433775681e-01 8.953858878918055098e-01
3.033200034400429512e-01 1.102816732831740865e+00
3.043605523367083343e-01 1.240368018788821303e+00
3.054011012333737174e-01 1.285740573495278483e+00
3.064416501300391005e-01 1.465418778502321828e+00
3.074821990267044836e-01 1.368262313474470915e+00
3.085227479233698666e-01 1.012546670150225481e+00
3.095632968200352497e-01 1.137914865698611777e+00
3.106038457167006328e-01 1.074703758700643164e+00
3.116443946133660159e-01 1.176698882981717986e+00
3.126849435100313990e-01 1.144933710913360159e+00
3.137254924066967821e-01 9.025919019583419356e-01
3.147660413033621651e-01 8.761243693629268137e-01
3.158065902000275482e-01 6.706206219096912946e-01
3.168471390966929313e-01 6.443299726163438379e-01
3.178876879933583144e-01 5.674329066506160757e-01
3.189282368900236975e-01 8.211842660823194251e-01
3.199687857866890806e-01 7.816269954495425054e-01
3.210093346833544636e-01 7.877415982759110591e-01
3.220498835800198467e-01 8.505168585984321794e-01
3.230904324766852298e-01 6.392061457672397751e-01
3.241309813733506129e-01 5.867158473374480820e-01
3.251715302700159960e-01 8.102568769915166058e-01
3.262120791666813790e-01 7.749816780137344097e-01
3.272526280633467621e-01 8.481634747792874407e-01
3.282931769600121452e-01 8.825702410635472006e-01
3.293337258566775283e-01 6.788669562725146989e-01
3.303742747533429114e-01 7.249514342292506797e-01
3.314148236500082945e-01 9.980043906209843385e-01
3.324553725466736775e-01 9.772418512952256719e-01
3.334959214433390606e-01 7.841419271392098267e-01
3.345364703400044437e-01 8.152805902060613619e-01
3.355770192366698268e-01 8.639573567634286633e-01
3.366175681333352099e-01 9.361210054062993891e-01
3.376581170300005930e-01 8.547321213207652590e-01
3.386986659266659760e-01 6.566136193977420987e-01
3.397392148233313591e-01 6.013295020423328197e-01
3.407797637199967422e-01 4.510447242736326245e-01
3.418203126166621253e-01 3.862063081709230516e-01
3.428608615133275084e-01 3.089415680790956742e-01
3.439014104099928915e-01 2.699804834388110919e-01
3.449419593066582745e-01 5.196987031103006416e-01
3.459825082033236576e-01 6.065633503279528327e-01
3.470230570999890407e-01 5.912325711226777969e-01
3.480636059966544238e-01 6.253901620614321644e-01
3.491041548933198069e-01 5.105577040047393211e-01
3.501447037899851900e-01 4.906698914313238902e-01
3.511852526866505730e-01 5.176384138608192131e-01
3.522258015833159561e-01 2.477685154143287605e-01
3.532663504799813392e-01 0.000000000000000000e+00
3.543068993766467223e-01 2.130593665688671479e-01
3.553474482733121054e-01 3.628172036259513789e-01
3.563879971699774885e-01 4.400923555954889821e-01
3.574285460666428715e-01 5.255524335394454738e-01
3.584690949633082546e-01 6.259801069060380030e-01
3.595096438599736377e-01 6.471953148638220910e-01
3.605501927566390208e-01 6.600293931140797099e-01
3.615907416533044039e-01 4.212788892906011995e-01
3.626312905499697870e-01 3.139291810547675254e-01
3.636718394466351700e-01 1.499893445128037683e-01
3.647123883433005531e-01 1.595782030481167624e-01
3.657529372399659362e-01 3.983756336209651749e-01
3.667934861366313193e-01 5.916791327721462324e-01
3.678340350332967024e-01 5.754215049805466720e-01
3.688745839299620854e-01 7.362135010899670817e-01
3.699151328266274685e-01 8.160303031248652417e-01
3.709556817232928516e-01 7.810857124773136206e-01
3.719962306199582347e-01 5.947945275666377540e-01
3.730367795166236178e-01 4.777545561287439568e-01
3.740773284132890009e-01 4.008241837453816458e-01
3.751178773099543839e-01 3.717956190330724553e-01
3.761584262066197670e-01 4.844270115843158919e-01
3.771989751032851501e-01 6.314048438279691311e-01
3.782395239999505332e-01 6.928505185452955573e-01
3.792800728966159163e-01 6.653796688604529663e-01
3.803206217932812994e-01 6.381015028540097944e-01
3.813611706899466824e-01 7.158402639292376080e-01
3.824017195866120655e-01 6.913360707724542920e-01
3.834422684832774486e-01 7.141150552267632179e-01
3.844828173799428317e-01 5.618106407635217181e-01
3.855233662766082148e-01 4.836369243607734347e-01
3.865639151732735979e-01 7.053052527917529346e-01
3.876044640699389809e-01 6.659325248227254690e-01
3.886450129666043640e-01 4.459464290439250078e-01
3.896855618632697471e-01 8.401925258469056246e-01
3.907261107599351302e-01 8.153080292804872897e-01
3.917666596566005133e-01 6.434861774450588712e-01
3.928072085532658964e-01 7.910068159789425124e-01
3.938477574499312794e-01 9.672126113167500705e-01
3.948883063465966625e-01 7.182583062042304789e-01
3.959288552432620456e-01 5.590638276969883691e-01
3.969694041399274287e-01 6.308564700788430457e-01
3.980099530365928118e-01 8.218405451760233404e-01
3.990505019332581949e-01 8.289601351881472624e-01
4.000910508299235779e-01 5.369235272505896717e-01
4.011315997265889610e-01 5.872864392187437943e-01
4.021721486232543441e-01 8.453963068799268399e-01
4.032126975199197272e-01 7.216268338066242904e-01
4.042532464165851103e-01 5.769882712935547886e-01
4.052937953132504934e-01 5.537576792156535532e-01
4.063343442099158764e-01 6.749660400212604827e-01
4.073748931065812595e-01 4.608511355253170905e-01
4.084154420032466426e-01 3.891074520994166619e-01
4.094559908999120257e-01 5.088938006332703878e-01
4.104965397965774088e-01 4.152978482227638324e-01
4.115370886932427918e-01 3.820820009693584041e-01
4.125776375899081749e-01 4.740263154692883063e-01
4.136181864865735580e-01 3.888843068771201672e-01
4.146587353832389411e-01 5.896296588310647735e-01
4.156992842799043242e-01 6.686878865538616878e-01
4.167398331765697073e-01 5.221491165255471856e-01
4.177803820732350903e-01 4.523749272229267149e-01
4.188209309699004734e-01 4.961731496720886980e-01
4.198614798665658565e-01 3.482505574973480122e-01
4.209020287632312396e-01 4.790297006171506666e-01
4.219425776598966227e-01 5.993673539804227346e-01
4.229831265565620058e-01 6.305386939882708930e-01
4.240236754532273888e-01 4.625465576081779773e-01
4.250642243498927719e-01 4.298417436987520546e-01
4.261047732465581550e-01 6.517074559149449442e-01
4.271453221432235381e-01 6.804742512806036814e-01
4.281858710398889212e-01 6.605541694414576170e-01
4.292264199365543043e-01 6.422170753905263041e-01
4.302669688332196873e-01 6.282295280609027088e-01
4.313075177298850704e-01 6.258363773783770512e-01
4.323480666265504535e-01 4.763636542184670475e-01
4.333886155232158366e-01 4.198683818412334290e-01
4.344291644198812197e-01 5.725328663330486734e-01
