# q (1/Angstrom), Intensity (arb)
2.029070354705860696e-02 8.643943607023203413e+01
2.133125244372399004e-02 7.179452971898754754e+01
2.237180134038937659e-02 5.931816129739692656e+01
2.341235023705475968e-02 5.135551716262173727e+01
2.445289913372014276e-02 4.416949867041680022e+01
2.549344803038552584e-02 4.070733300062285309e+01
2.653399692705091240e-02 3.716802051673793983e+01
2.757454582371629548e-02 3.268980150883309932e+01
2.861509472038167856e-02 2.777784451697164059e+01
2.965564361704706164e-02 2.633278400517140483e+01
3.069619251371244473e-02 2.551562512208730027e+01
3.173674141037782781e-02 2.364407955493599900e+01
3.277729030704321089e-02 2.142942636888069785e+01
3.381783920370859398e-02 1.965222532739028338e+01
3.485838810037397706e-02 1.839079773683121743e+01
3.589893699703936014e-02 1.644413122849527298e+01
3.693948589370474322e-02 1.627754759831469045e+01
3.798003479037012631e-02 1.593695881340466514e+01
3.902058368703550939e-02 1.547594548844205775e+01
4.006113258370089247e-02 1.449213858968836632e+01
4.110168148036627556e-02 1.404740231747474155e+01
4.214223037703165864e-02 1.309801230456002230e+01
4.318277927369704866e-02 1.354897311194925891e+01
4.422332817036243174e-02 1.365514101114339951e+01
4.526387706702781483e-02 1.259463424909262841e+01
4.630442596369319791e-02 1.264243793640543601e+01
4.734497486035858099e-02 1.223984936280925240e+01
4.838552375702396408e-02 1.147828096733978498e+01
4.942607265368934716e-02 1.226722415668016453e+01
5.046662155035473024e-02 1.293547291616478390e+01
5.150717044702011332e-02 1.180593160430479571e+01
5.254771934368549641e-02 1.182056383452100334e+01
5.358826824035087949e-02 1.282619834483892873e+01
5.462881713701626257e-02 1.210939120611336506e+01
5.566936603368164566e-02 1.196441438440417215e+01
5.670991493034702874e-02 1.224573806006418408e+01
5.775046382701241182e-02 1.277533879247773285e+01
5.879101272367779490e-02 1.331712699428308611e+01
5.983156162034317799e-02 1.400458262981792501e+01
6.087211051700856107e-02 1.452357541824354570e+01
6.191265941367394415e-02 1.512560798559034225e+01
6.295320831033933417e-02 1.651532267817264454e+01
6.399375720700471726e-02 1.654303905626019144e+01
6.503430610367010034e-02 1.783969915966660835e+01
6.607485500033548342e-02 1.987060076068601688e+01
6.711540389700086651e-02 2.127156737138006548e+01
6.815595279366624959e-02 2.313884649973851992e+01
6.919650169033163267e-02 2.523898706361724464e+01
7.023705058699701576e-02 2.799422626409916148e+01
7.127759948366239884e-02 3.039527623394656786e+01
7.231814838032778192e-02 3.284491355462910889e+01
7.335869727699316500e-02 3.522356414381189893e+01
7.439924617365854809e-02 3.926931259884549519e+01
7.543979507032393117e-02 4.615306411749642734e+01
7.648034396698931425e-02 5.790937790705134347e+01
7.752089286365469734e-02 8.607401945698593693e+01
7.856144176032008042e-02 1.484046340509179913e+02
7.960199065698546350e-02 2.361038057751430017e+02
8.064253955365084658e-02 3.146717585646931070e+02
8.168308845031622967e-02 4.225040635199693497e+02
8.272363734698161275e-02 6.720243652533939667e+02
8.376418624364699583e-02 1.028168004695082573e+03
8.480473514031239279e-02 1.106509188309129740e+03
8.584528403697777588e-02 7.764557122658113713e+02
8.688583293364315896e-02 4.540624976336875989e+02
8.792638183030854204e-02 3.087908349867090010e+02
8.896693072697392513e-02 2.430299181300759415e+02
9.000747962363930821e-02 2.021760471583926915e+02
9.104802852030469129e-02 1.731403485447019932e+02
9.208857741697007437e-02 1.505812293308564733e+02
9.312912631363545746e-02 1.335851735819975943e+02
9.416967521030084054e-02 1.243874200391696121e+02
9.521022410696622362e-02 1.263764130579858289e+02
9.625077300363160671e-02 1.366545902964311097e+02
9.729132190029698979e-02 1.363174033021254843e+02
9.833187079696237287e-02 1.062777760774058891e+02
9.937241969362775595e-02 6.351898974266238440e+01
1.004129685902931390e-01 3.616727480112046322e+01
1.014535174869585221e-01 2.253195618637545294e+01
1.024940663836239052e-01 1.546744670527657206e+01
1.035346152802892883e-01 1.149707359627267067e+01
1.045751641769546714e-01 9.044885399487370137e+00
1.056157130736200545e-01 6.782228879736138083e+00
1.066562619702854375e-01 5.258647370605785909e+00
1.076968108669508206e-01 4.483703398961608855e+00
1.087373597636162037e-01 4.386787125296613965e+00
1.097779086602815868e-01 4.214762340033495036e+00
1.108184575569469699e-01 3.409884925603023476e+00
1.118590064536123529e-01 3.054827438272965878e+00
1.128995553502777360e-01 2.850866220996024936e+00
1.139401042469431191e-01 2.926375400874839272e+00
1.149806531436085022e-01 2.963354499818862564e+00
1.160212020402738853e-01 2.698360762805030788e+00
1.170617509369392684e-01 2.832330356243382141e+00
1.181022998336046514e-01 2.152069154196951217e+00
1.191428487302700345e-01 2.397445495525552417e+00
1.201833976269354176e-01 2.144666463550812807e+00
1.212239465236008007e-01 1.834379570733020159e+00
1.222644954202661838e-01 2.171511017981323732e+00
1.233050443169315669e-01 2.332165182741107401e+00
1.243455932135969499e-01 2.492459635017262087e+00
1.253861421102623330e-01 2.371659173359972783e+00
1.264266910069277161e-01 2.261292688604875423e+00
1.274672399035930992e-01 2.663625612507438234e+00
1.285077888002584823e-01 2.953277101650925829e+00
1.295483376969238654e-01 2.968678600838025261e+00
1.305888865935892484e-01 3.253607335688450064e+00
1.316294354902546315e-01 3.666175205881529564e+00
1.326699843869200146e-01 4.195655700584950409e+00
1.337105332835853977e-01 5.741888282289352219e+00
1.347510821802507808e-01 8.541347614226602047e+00
1.357916310769161639e-01 1.457152333779362152e+01
1.368321799735815469e-01 2.415358675132735300e+01
1.378727288702469300e-01 2.898886850471178889e+01
1.389132777669123131e-01 2.385042741560510393e+01
1.399538266635776962e-01 1.547973596752017045e+01
1.409943755602430793e-01 1.039657881351207891e+01
1.420349244569084624e-01 8.103069836135837534e+00
1.430754733535738454e-01 7.060092307087437291e+00
1.441160222502392285e-01 6.689952418372698162e+00
1.451565711469046116e-01 6.817566313754429785e+00
1.461971200435699947e-01 6.602771038068517839e+00
1.472376689402353778e-01 6.797638098336278745e+00
1.482782178369007609e-01 6.893782021578218178e+00
1.493187667335661439e-01 6.995036986312058502e+00
1.503593156302315270e-01 7.167742621334237896e+00
1.513998645268969101e-01 7.166259018643273748e+00
1.524404134235622932e-01 6.872273058966847259e+00
1.534809623202276763e-01 7.059171068066042665e+00
1.545215112168930593e-01 7.817507338943809003e+00
1.555620601135584424e-01 9.142273745852882882e+00
1.566026090102238255e-01 1.159278566063777305e+01
1.576431579068892086e-01 1.571393284022538950e+01
1.586837068035545917e-01 2.396983080171140656e+01
1.597242557002199748e-01 3.893528166321077322e+01
1.607648045968853578e-01 5.609206826206924745e+01
1.618053534935507409e-01 6.165498118828296015e+01
1.628459023902161240e-01 4.938537734267725909e+01
1.638864512868815071e-01 3.241455653544861093e+01
1.649270001835468902e-01 2.203262460758232066e+01
1.659675490802122733e-01 1.777126431325451961e+01
1.670080979768776563e-01 1.697803780303209109e+01
1.680486468735430672e-01 1.806723006089027450e+01
1.690891957702084503e-01 1.678606900355501708e+01
1.701297446668738333e-01 1.253947388691209497e+01
1.711702935635392164e-01 7.898614948488141607e+00
1.722108424602045995e-01 5.280779413079027762e+00
1.732513913568699826e-01 4.025444882002155111e+00
1.742919402535353657e-01 3.537362882953441812e+00
1.753324891502007488e-01 2.853022692406344873e+00
1.763730380468661318e-01 2.441235382140579446e+00
1.774135869435315149e-01 1.922045544163864861e+00
1.784541358401968980e-01 1.805962089614524757e+00
1.794946847368622811e-01 2.009319337738215694e+00
1.805352336335276642e-01 1.991454819773728957e+00
1.815757825301930473e-01 1.269395845823886759e+00
1.826163314268584303e-01 1.319341074706827044e+00
1.836568803235238134e-01 1.229421367960078726e+00
1.846974292201891965e-01 1.267968213544460099e+00
1.857379781168545796e-01 1.184924041812358553e+00
1.867785270135199627e-01 1.202526329765259305e+00
1.878190759101853458e-01 1.031681184500126136e+00
1.888596248068507288e-01 1.243108728991110468e+00
1.899001737035161119e-01 1.485258402161903746e+00
1.909407226001814950e-01 1.331455226253474677e+00
1.919812714968468781e-01 1.546659173983297109e+00
1.930218203935122612e-01 1.216104598900617617e+00
1.940623692901776443e-01 1.112694733480399378e+00
1.951029181868430273e-01 1.246086138667696019e+00
1.961434670835084104e-01 1.404961514903053654e+00
1.971840159801737935e-01 8.869587018017561775e-01
1.982245648768391766e-01 1.054012313881191432e+00
1.992651137735045597e-01 9.978808356995365614e-01
2.003056626701699428e-01 8.875072340606955379e-01
2.013462115668353813e-01 6.969000179958619867e-01
2.023867604635007644e-01 8.067891995860172472e-01
2.034273093601661475e-01 9.552618460405994938e-01
2.044678582568315306e-01 7.866273679151980502e-01
2.055084071534969137e-01 7.222066712148702550e-01
2.065489560501622968e-01 9.808103022726122333e-01
2.075895049468276798e-01 1.032711322142546351e+00
2.086300538434930629e-01 1.157532777674578739e+00
2.096706027401584460e-01 1.183530350942522347e+00
2.107111516368238291e-01 8.839926395002564163e-01
2.117517005334892122e-01 1.159546216675607866e+00
2.127922494301545953e-01 1.413570982937603304e+00
2.138327983268199783e-01 1.427891562785411850e+00
2.148733472234853614e-01 1.593506860266735714e+00
2.159138961201507445e-01 2.063047847724917006e+00
2.169544450168161276e-01 2.167848787126924748e+00
2.179949939134815107e-01 2.013432115350099139e+00
2.190355428101468938e-01 1.769090945154147221e+00
2.200760917068122768e-01 1.494957465235014382e+00
2.211166406034776599e-01 1.226631535957107388e+00
2.221571895001430430e-01 1.165118482226262131e+00
2.231977383968084261e-01 1.005908326532885866e+00
2.242382872934738092e-01 9.514770219719714817e-01
2.252788361901391923e-01 9.025442294365717544e-01
2.263193850868045753e-01 1.218936230864095194e+00
2.273599339834699584e-01 1.349536414141791596e+00
2.284004828801353415e-01 1.210877717715192148e+00
2.294410317768007246e-01 8.795622828937652571e-01
2.304815806734661077e-01 1.030055411332924109e+00
2.315221295701314908e-01 9.979397023205436312e-01
2.325626784667968738e-01 1.210446548417003498e+00
2.336032273634622569e-01 1.546586627054644225e+00
2.346437762601276400e-01 1.713660148511465309e+00
2.356843251567930231e-01 1.916546509937514742e+00
2.367248740534584062e-01 2.852308311411004382e+00
2.377654229501237892e-01 3.787393079870948753e+00
2.388059718467891723e-01 3.568882534942261486e+00
2.398465207434545554e-01 3.357786964854742706e+00
2.408870696401199385e-01 2.863916306874337181e+00
2.419276185367853216e-01 2.483474065536046993e+00
2.429681674334507047e-01 2.103626360512699023e+00
2.440087163301160877e-01 2.003309904126027163e+00
2.450492652267814708e-01 1.798670437351667317e+00
2.460898141234468539e-01 1.946617454878403208e+00
2.471303630201122370e-01 1.910178279770896381e+00
2.481709119167776201e-01 2.073757157227355208e+00
2.492114608134430032e-01 2.054179651146277763e+00
2.502520097101083585e-01 2.175195372678533801e+00
2.512925586067737416e-01 2.682328581313107918e+00
2.523331075034391247e-01 3.327792819236250921e+00
2.533736564001045077e-01 3.699451254215770035e+00
2.544142052967698908e-01 3.263108044631561455e+00
2.554547541934352739e-01 2.462285955686624561e+00
2.564953030901006570e-01 1.702712179319764374e+00
2.575358519867660401e-01 1.467206208543661461e+00
2.585764008834314231e-01 1.180969538239381222e+00
2.596169497800968062e-01 1.024800513199572549e+00
2.606574986767621893e-01 8.772670184593742704e-01
2.616980475734275724e-01 8.322022817622567459e-01
2.627385964700929555e-01 9.554055742594762535e-01
2.637791453667583386e-01 7.927746883009660905e-01
2.648196942634237216e-01 7.749541248075182409e-01
2.658602431600891047e-01 7.952947161936698706e-01
2.669007920567544878e-01 6.656958241023218648e-01
2.679413409534198709e-01 5.743489482997219397e-01
2.689818898500852540e-01 7.077904591967012493e-01
2.700224387467506371e-01 5.116701876407923066e-01
2.710629876434160201e-01 4.640542670209697462e-01
2.721035365400814032e-01 5.323719509986055698e-01
2.731440854367467863e-01 6.985360961620514786e-01
2.741846343334121694e-01 9.438855146807263452e-01
2.752251832300775525e-01 8.862119023759831293e-01
2.762657321267429356e-01 1.007598874496590469e+00
2.773062810234083186e-01 8.220231322404956131e-01
2.783468299200737017e-01 4.949955372754111238e-01
2.793873788167390848e-01 5.003338486240345162e-01
2.804279277134044679e-01 5.637783812956698171e-01
2.814684766100698510e-01 5.411021528136608083e-01
2.825090255067352341e-01 5.947030354358311399e-01
2.835495744034006171e-01 3.043564512770124963e-01
2.845901233000660002e-01 2.904743313355702128e-01
2.856306721967313833e-01 5.436601444210538148e-01
2.866712210933967664e-01 4.870515068826932747e-01
2.877117699900621495e-01 4.177587660523656155e-01
2.887523188867275326e-01 6.263775301513412330e-01
2.897928677833929156e-01 5.804191291772227146e-01
2.908334166800582987e-01 4.550199626061264269e-01
2.918739655767236818e-01 4.325248934885941310e-01
2.929145144733890649e-01 2.953453257357452344e-01
2.939550633700544480e-01 4.102412682150244905e-01
2.949956122667198311e-01 4.974018746614987663e-01
2.960361611633852141e-01 3.118557201226295206e-01
2.970767100600505972e-01 4.974901920439336322e-01
2.981172589567159803e-01 5.941306348426174111e-01
2.991578078533813634e-01 6.699057060023214660e-01
3.001983567500468020e-01 4.065156502614577505e-01
3.012389056467121851e-01 4.487479590096903337e-01
3.022794545433775681e-01 4.770295881459141185e-01
3.033200034400429512e-01 4.400063979156811911e-01
3.043605523367083343e-01 5.654695939120202297e-01
3.054011012333737174e-01 3.971442591056195681e-01
3.064416501300391005e-01 5.209832298149663643e-01
3.074821990267044836e-01 5.442445955209116448e-01
3.085227479233698666e-01 6.186972957103762383e-01
3.095632968200352497e-01 7.927287177858524103e-01
3.106038457167006328e-01 7.053444084895090782e-01
3.116443946133660159e-01 8.025722926875715757e-01
3.126849435100313990e-01 6.972105712752529882e-01
3.137254924066967821e-01 7.614462602958269599e-01
3.147660413033621651e-01 6.351336997603240775e-01
3.158065902000275482e-01 7.777309268585952395e-01
3.168471390966929313e-01 9.928606467705485272e-01
3.178876879933583144e-01 7.958014308835323902e-01
3.189282368900236975e-01 8.711884239719829282e-01
3.199687857866890806e-01 8.150063636580178184e-01
3.210093346833544636e-01 7.941957966357087173e-01
3.220498835800198467e-01 7.562070297457417212e-01
3.230904324766852298e-01 9.214852106038975421e-01
3.241309813733506129e-01 1.091918540442406993e+00
3.251715302700159960e-01 7.031384951284529450e-01
3.262120791666813790e-01 6.031873524927959807e-01
3.272526280633467621e-01 6.727447613538934945e-01
3.282931769600121452e-01 4.700842322216161051e-01
3.293337258566775283e-01 4.632538806419006505e-01
3.303742747533429114e-01 5.573450033996749653e-01
3.314148236500082945e-01 6.532935566596016486e-01
3.324553725466736775e-01 5.389246447576248045e-01
3.334959214433390606e-01 3.294054599938611716e-01
3.345364703400044437e-01 2.616094942513988997e-01
3.355770192366698268e-01 3.972930989611320740e-01
3.366175681333352099e-01 5.846858506621295248e-01
3.376581170300005930e-01 5.160139893527642130e-01
3.386986659266659760e-01 4.033722505897650024e-01
3.397392148233313591e-01 4.594307414402436507e-01
3.407797637199967422e-01 6.543571827179270883e-01
3.418203126166621253e-01 4.166021705216884641e-01
3.428608615133275084e-01 4.813708545957560148e-01
3.439014104099928915e-01 6.558124307497728012e-01
3.449419593066582745e-01 7.743859977551217355e-01
3.459825082033236576e-01 9.319205802956780360e-01
3.470230570999890407e-01 8.055607306459968697e-01
3.480636059966544238e-01 9.899116132902889831e-01
3.491041548933198069e-01 1.245107357723732378e+00
3.501447037899851900e-01 1.182453994586481372e+00
3.511852526866505730e-01 9.323399333358750596e-01
3.522258015833159561e-01 7.897112779563819629e-01
3.532663504799813392e-01 4.453184333895734426e-01
3.543068993766467223e-01 3.738658143204034445e-01
3.553474482733121054e-01 3.706928862580518569e-01
3.563879971699774885e-01 4.005495971485153461e-01
3.574285460666428715e-01 5.708424281568049707e-01
3.584690949633082546e-01 5.634406233331255009e-01
3.595096438599736377e-01 6.776381646343274667e-01
3.605501927566390208e-01 4.734423394856648315e-01
3.615907416533044039e-01 3.907722782976463805e-01
3.626312905499697870e-01 5.273819772875185663e-01
3.636718394466351700e-01 3.666286950943948852e-01
3.647123883433005531e-01 3.862625470603440192e-01
3.657529372399659362e-01 4.083590460684582979e-01
3.667934861366313193e-01 2.792802325193655122e-01
3.678340350332967024e-01 2.443819102035433843e-01
3.688745839299620854e-01 4.226346594888781283e-01
3.699151328266274685e-01 4.151601136339841958e-01
3.709556817232928516e-01 3.583278139384979966e-01
3.719962306199582347e-01 5.221168723712210635e-01
3.730367795166236178e-01 6.520534983587822353e-01
3.740773284132890009e-01 6.068432517630490963e-01
3.751178773099543839e-01 4.537517313367871452e-01
3.761584262066197670e-01 4.433955825370965442e-01
3.771989751032851501e-01 4.594922392439286796e-01
3.782395239999505332e-01 5.726008044082391280e-01
3.792800728966159163e-01 4.981398267050067830e-01
3.803206217932812994e-01 0.000000000000000000e+00
3.813611706899466824e-01 2.188349192459249082e-01
3.824017195866120655e-01 4.713200147700575826e-01
3.834422684832774486e-01 4.178993329669395962e-01
3.844828173799428317e-01 3.352580850093929143e-01
3.855233662766082148e-01 3.698001597990376865e-01
3.865639151732735979e-01 3.099452487801030998e-01
3.876044640699389809e-01 3.065892379430330550e-01
3.886450129666043640e-01 5.278206756978072178e-01
3.896855618632697471e-01 5.324236630077550103e-01
3.907261107599351302e-01 4.687366972842532675e-01
3.917666596566005133e-01 3.717500855397908310e-01
3.928072085532658964e-01 3.349139765317268314e-01
3.938477574499312794e-01 5.120513340505965516e-01
3.948883063465966625e-01 4.137448229231814878e-01
3.959288552432620456e-01 4.104908357410614883e-01
3.969694041399274287e-01 4.685787377521535291e-01
3.980099530365928118e-01 6.732167086463682892e-01
3.990505019332581949e-01 6.766697082599755220e-01
4.000910508299235779e-01 5.045122580750813768e-01
4.011315997265889610e-01 6.030383036843680600e-01
4.021721486232543441e-01 5.523221502438673269e-01
4.032126975199197272e-01 5.640075070907144550e-01
4.042532464165851103e-01 5.512994515748168567e-01
4.052937953132504934e-01 5.060660360813535874e-01
4.063343442099158764e-01 5.466515846940254164e-01
4.073748931065812595e-01 5.535090794482435683e-01
4.084154420032466426e-01 6.709934013726055468e-01
4.094559908999120257e-01 6.230401775599787584e-01
4.104965397965774088e-01 4.763831570379224445e-01
4.115370886932427918e-01 4.071152547348546591e-01
4.125776375899081749e-01 4.924294051644899639e-01
4.136181864865735580e-01 6.873957482427996979e-01
4.146587353832389411e-01 5.344399168894788943e-01
4.156992842799043242e-01 3.560881416523429266e-01
4.167398331765697073e-01 5.556688950352359768e-01
4.177803820732350903e-01 6.554974192017581913e-01
4.188209309699004734e-01 7.303057902055343220e-01
4.198614798665658565e-01 7.947836797214549165e-01
4.209020287632312396e-01 4.801949877607647466e-01
4.219425776598966227e-01 4.632135397770262841e-01
4.229831265565620058e-01 5.065103562165482742e-01
4.240236754532273888e-01 6.872375541807862476e-01
4.250642243498927719e-01 7.207810748699650105e-01
4.261047732465581550e-01 5.590508839664458662e-01
4.271453221432235381e-01 4.777398119172602264e-01
4.281858710398889212e-01 4.237777861689977499e-01
4.292264199365543043e-01 6.429524360272864669e-01
4.302669688332196873e-01 4.887416864477991396e-01
4.313075177298850704e-01 3.642674680686930344e-01
4.323480666265504535e-01 5.824067794437226553e-01
4.333886155232158366e-01 5.410812346917914795e-01
4.344291644198812197e-01 5.464812986455349630e-01
