# q (1/Angstrom), Intensity (arb)
2.029070354705860696e-02 0.000000000000000000e+00
2.133125244372399004e-02 1.713974343791536015e+00
2.237180134038937659e-02 2.951692871453081679e+00
2.341235023705475968e-02 4.174082170407475090e+00
2.445289913372014276e-02 5.055996518129262540e+00
2.549344803038552584e-02 5.697184450651389120e+00
2.653399692705091240e-02 6.355857599066779606e+00
2.757454582371629548e-02 6.815613391656889064e+00
2.861509472038167856e-02 7.195476058739929570e+00
2.965564361704706164e-02 7.537571841047072674e+00
3.069619251371244473e-02 7.581941617368258335e+00
3.173674141037782781e-02 8.036527320437649280e+00
3.277729030704321089e-02 8.238645521366354529e+00
3.381783920370859398e-02 8.385668754860802210e+00
3.485838810037397706e-02 8.412905887439309893e+00
3.589893699703936014e-02 8.572343199313177564e+00
3.693948589370474322e-02 8.513751657371741999e+00
3.798003479037012631e-02 8.771253962145106442e+00
3.902058368703550939e-02 8.908800369181015810e+00
4.006113258370089247e-02 8.953707874736247518e+00
4.110168148036627556e-02 8.846771919359788683e+00
4.214223037703165864e-02 8.923631106586107364e+00
4.318277927369704866e-02 9.091938054081225573e+00
4.422332817036243174e-02 9.093637530637312949e+00
4.526387706702781483e-02 9.170714534736164936e+00
4.630442596369319791e-02 9.094465533768293142e+00
4.734497486035858099e-02 9.171050198648073248e+00
4.838552375702396408e-02 9.187374160877441298e+00
4.942607265368934716e-02 9.165594807554096946e+00
5.046662155035473024e-02 9.098167422269758831e+00
5.150717044702011332e-02 9.283576040462031997e+00
5.254771934368549641e-02 9.258481400808912909e+00
5.358826824035087949e-02 9.076316274484470981e+00
5.462881713701626257e-02 9.086596565176021656e+00
5.566936603368164566e-02 9.149157897880245471e+00
5.670991493034702874e-02 9.135659276812123863e+00
5.775046382701241182e-02 9.196798501119923586e+00
5.879101272367779490e-02 9.215048472359486098e+00
5.983156162034317799e-02 9.256223141057652981e+00
6.087211051700856107e-02 9.116629389613896350e+00
6.191265941367394415e-02 9.185146776120726386e+00
6.295320831033933417e-02 9.154137828298418711e+00
6.399375720700471726e-02 9.084182031627179299e+00
6.503430610367010034e-02 9.090194714318707625e+00
6.607485500033548342e-02 9.159039873072021720e+00
6.711540389700086651e-02 9.084148805365433788e+00
6.815595279366624959e-02 9.159544413771477878e+00
6.919650169033163267e-02 9.247732306919033363e+00
7.023705058699701576e-02 9.130542440384255443e+00
7.127759948366239884e-02 9.233686173453342860e+00
7.231814838032778192e-02 9.114787719214998418e+00
7.335869727699316500e-02 9.092907151148468259e+00
7.439924617365854809e-02 9.225433581477600953e+00
7.543979507032393117e-02 9.150325840148298084e+00
7.648034396698931425e-02 9.187485478949534823e+00
7.752089286365469734e-02 9.300330086017314812e+00
7.856144176032008042e-02 9.355480222788928657e+00
7.960199065698546350e-02 9.287630573478828921e+00
8.064253955365084658e-02 9.223838882043510878e+00
8.168308845031622967e-02 9.145858567295777064e+00
8.272363734698161275e-02 9.182657533034515041e+00
8.376418624364699583e-02 9.287391363392684340e+00
8.480473514031239279e-02 9.249190365856190255e+00
8.584528403697777588e-02 9.208235446598976637e+00
8.688583293364315896e-02 9.339204729974433405e+00
8.792638183030854204e-02 9.256625895269237958e+00
8.896693072697392513e-02 9.182666376667238950e+00
9.000747962363930821e-02 9.219801781617986691e+00
9.104802852030469129e-02 9.273998469111235821e+00
9.208857741697007437e-02 9.186613648376052765e+00
9.312912631363545746e-02 9.285881502172122381e+00
9.416967521030084054e-02 9.229033399545459204e+00
9.521022410696622362e-02 9.315256445981495048e+00
9.625077300363160671e-02 9.276832140720904007e+00
9.729132190029698979e-02 9.224272492578343474e+00
9.833187079696237287e-02 9.120639360052853917e+00
9.937241969362775595e-02 9.216016666735251661e+00
1.004129685902931390e-01 9.251084090581379371e+00
1.014535174869585221e-01 9.281967847430202312e+00
1.024940663836239052e-01 9.258219480499807474e+00
1.035346152802892883e-01 9.245526026050647772e+00
1.045751641769546714e-01 9.225951858474951806e+00
1.056157130736200545e-01 9.225159960279242455e+00
1.066562619702854375e-01 9.332175923922299887e+00
1.076968108669508206e-01 9.281325309807478163e+00
1.087373597636162037e-01 9.311467730504952911e+00
1.097779086602815868e-01 9.161903211396580815e+00
1.108184575569469699e-01 9.207683172985456466e+00
1.118590064536123529e-01 9.257727617948958709e+00
1.128995553502777360e-01 9.279419349700498643e+00
1.139401042469431191e-01 9.329519264067892337e+00
1.149806531436085022e-01 9.276094322027578443e+00
1.160212020402738853e-01 9.239627749732520101e+00
1.170617509369392684e-01 9.281271682582151072e+00
1.181022998336046514e-01 9.243122744045036754e+00
1.191428487302700345e-01 9.301511397473474219e+00
1.201833976269354176e-01 9.249501845174719961e+00
1.212239465236008007e-01 9.224432739496540634e+00
1.222644954202661838e-01 9.211561472603733591e+00
1.233050443169315669e-01 9.337700312259979540e+00
1.243455932135969499e-01 9.321054601346958179e+00
1.253861421102623330e-01 9.427152520591022267e+00
1.264266910069277161e-01 9.342064409603615616e+00
1.274672399035930992e-01 9.328996089634074451e+00
1.285077888002584823e-01 9.283350430074714055e+00
1.295483376969238654e-01 9.275779699083688712e+00
1.305888865935892484e-01 9.318819881588487064e+00
1.316294354902546315e-01 9.351651061658758479e+00
1.326699843869200146e-01 9.290752429914057586e+00
1.337105332835853977e-01 9.336212757301087350e+00
1.347510821802507808e-01 9.319008476832646437e+00
1.357916310769161639e-01 9.351427511016698446e+00
1.368321799735815469e-01 9.313101747272559905e+00
1.378727288702469300e-01 9.327960216007902261e+00
1.389132777669123131e-01 9.329322042597649300e+00
1.399538266635776962e-01 9.310750875404291804e+00
1.409943755602430793e-01 9.425990928793229529e+00
1.420349244569084624e-01 9.345158423172646778e+00
1.430754733535738454e-01 9.345973650009270273e+00
1.441160222502392285e-01 9.361271452972271589e+00
1.451565711469046116e-01 9.347292309621275663e+00
1.461971200435699947e-01 9.358829201661373887e+00
1.472376689402353778e-01 9.352405280566562951e+00
1.482782178369007609e-01 9.304312413947863902e+00
1.493187667335661439e-01 9.320020959275042927e+00
1.503593156302315270e-01 9.301909338037740227e+00
1.513998645268969101e-01 9.380350726291444730e+00
1.524404134235622932e-01 9.425001023450837678e+00
1.534809623202276763e-01 9.366202774884870408e+00
1.545215112168930593e-01 9.413750745661161545e+00
1.555620601135584424e-01 9.381823210204391472e+00
1.566026090102238255e-01 9.399895837382423736e+00
1.576431579068892086e-01 9.400637305459866866e+00
1.586837068035545917e-01 9.500472389305215870e+00
1.597242557002199748e-01 9.347536189335434287e+00
1.607648045968853578e-01 9.342572225878601699e+00
1.618053534935507409e-01 9.365136910577964713e+00
1.628459023902161240e-01 9.471911776458977528e+00
1.638864512868815071e-01 9.398792431500309519e+00
1.649270001835468902e-01 9.366725942013967909e+00
1.659675490802122733e-01 9.385776974621146351e+00
1.670080979768776563e-01 9.391052397159528553e+00
1.680486468735430672e-01 9.407244279046116375e+00
1.690891957702084503e-01 9.467875440453296321e+00
1.701297446668738333e-01 9.545747383793056429e+00
1.711702935635392164e-01 9.490590628488270397e+00
1.722108424602045995e-01 9.479293938786677032e+00
1.732513913568699826e-01 9.446621594982868686e+00
1.742919402535353657e-01 9.400368027878442945e+00
1.753324891502007488e-01 9.421359133298958355e+00
1.763730380468661318e-01 9.541171320655088550e+00
1.774135869435315149e-01 9.571302993448245644e+00
1.784541358401968980e-01 9.936441579318710637e+00
1.794946847368622811e-01 9.697302327404255351e+00
1.805352336335276642e-01 9.512630235343541685e+00
1.815757825301930473e-01 9.507097480871088635e+00
1.826163314268584303e-01 9.489786949086832735e+00
1.836568803235238134e-01 9.409814012347373691e+00
1.846974292201891965e-01 9.419009202889638388e+00
1.857379781168545796e-01 9.394583147258810385e+00
1.867785270135199627e-01 9.420432778862442902e+00
1.878190759101853458e-01 9.415454063149374164e+00
1.888596248068507288e-01 9.512303077808097029e+00
1.899001737035161119e-01 9.441829304991765426e+00
1.909407226001814950e-01 9.422604320942653544e+00
1.919812714968468781e-01 9.417028465521632086e+00
1.930218203935122612e-01 9.295285347300401568e+00
1.940623692901776443e-01 9.360344293844606867e+00
1.951029181868430273e-01 9.417063274863089362e+00
1.961434670835084104e-01 9.382473809407722243e+00
1.971840159801737935e-01 9.372932772317819072e+00
1.982245648768391766e-01 9.394615564764340121e+00
1.992651137735045597e-01 9.406186010883484272e+00
2.003056626701699428e-01 9.373991546466225344e+00
2.013462115668353813e-01 9.374576604220283826e+00
2.023867604635007644e-01 9.370076537444623099e+00
2.034273093601661475e-01 9.462390057429503898e+00
2.044678582568315306e-01 9.431491247089082819e+00
2.055084071534969137e-01 9.392862442446318738e+00
2.065489560501622968e-01 9.416059082413575254e+00
2.075895049468276798e-01 9.472509784722646486e+00
2.086300538434930629e-01 9.505724705472417213e+00
2.096706027401584460e-01 9.404130689287880429e+00
2.107111516368238291e-01 9.404658088790082360e+00
2.117517005334892122e-01 9.400797326328273584e+00
2.127922494301545953e-01 9.420283384496576318e+00
2.138327983268199783e-01 9.435318694077208690e+00
2.148733472234853614e-01 9.390930657657788672e+00
2.159138961201507445e-01 9.438932083601041967e+00
2.169544450168161276e-01 9.450723293389964752e+00
2.179949939134815107e-01 9.473585514530601159e+00
2.190355428101468938e-01 9.429412711329517194e+00
2.200760917068122768e-01 9.429725741578367959e+00
2.211166406034776599e-01 9.418057737650190830e+00
2.221571895001430430e-01 9.357726297030867002e+00
2.231977383968084261e-01 9.377988288925058313e+00
2.242382872934738092e-01 9.376320616703203825e+00
2.252788361901391923e-01 9.456673776265189346e+00
2.263193850868045753e-01 9.503817159292379912e+00
2.273599339834699584e-01 9.450698001103083001e+00
2.284004828801353415e-01 9.436470897428829829e+00
2.294410317768007246e-01 9.433555552348700246e+00
2.304815806734661077e-01 9.472858757364145177e+00
2.315221295701314908e-01 9.430688428900058540e+00
2.325626784667968738e-01 9.381281177770256718e+00
2.336032273634622569e-01 9.405882430327260124e+00
2.346437762601276400e-01 9.466090066229007505e+00
2.356843251567930231e-01 9.478036512840237293e+00
2.367248740534584062e-01 9.443810915298143982e+00
2.377654229501237892e-01 9.398573475664619536e+00
2.388059718467891723e-01 9.423192228989714536e+00
2.398465207434545554e-01 9.382041372458889583e+00
2.408870696401199385e-01 9.412293293622845169e+00
2.419276185367853216e-01 9.378880133318004297e+00
2.429681674334507047e-01 9.401000283564499682e+00
2.440087163301160877e-01 9.426521893481135450e+00
2.450492652267814708e-01 9.425062684069695607e+00
2.460898141234468539e-01 9.380130137396619716e+00
2.471303630201122370e-01 9.436214596274165700e+00
2.481709119167776201e-01 9.472692210788508760e+00
2.492114608134430032e-01 9.381668806145256667e+00
2.502520097101083585e-01 9.400000144268407354e+00
2.512925586067737416e-01 9.451434537981548090e+00
2.523331075034391247e-01 9.375226633176653834e+00
2.533736564001045077e-01 9.421153314079031560e+00
2.544142052967698908e-01 9.444213754325371468e+00
2.554547541934352739e-01 9.442846513029392597e+00
2.564953030901006570e-01 9.492371640719532877e+00
2.575358519867660401e-01 9.506465242645717240e+00
2.585764008834314231e-01 9.371465675421424280e+00
2.596169497800968062e-01 9.406873013231175307e+00
2.606574986767621893e-01 9.464018905032490991e+00
2.616980475734275724e-01 9.447978157094201634e+00
2.627385964700929555e-01 9.420650683171061246e+00
2.637791453667583386e-01 9.508358318617124993e+00
2.648196942634237216e-01 9.421600432075358356e+00
2.658602431600891047e-01 9.448186293472081942e+00
2.669007920567544878e-01 9.427290625499404442e+00
2.679413409534198709e-01 9.394468684686513527e+00
2.689818898500852540e-01 9.421916270954259431e+00
2.700224387467506371e-01 9.425192812941077136e+00
2.710629876434160201e-01 9.445232498487117212e+00
2.721035365400814032e-01 9.459575388280546449e+00
2.731440854367467863e-01 9.464500295828067067e+00
2.741846343334121694e-01 9.446981818036135792e+00
2.752251832300775525e-01 9.413271422424841717e+00
2.762657321267429356e-01 9.427285905183293124e+00
2.773062810234083186e-01 9.471569659464066149e+00
2.783468299200737017e-01 9.407005188527261197e+00
2.793873788167390848e-01 9.480042805934845163e+00
2.804279277134044679e-01 9.468120379811141518e+00
2.814684766100698510e-01 9.415958196956150772e+00
2.825090255067352341e-01 9.454079891160771965e+00
2.835495744034006171e-01 9.448307165086330173e+00
2.845901233000660002e-01 9.481957516595418411e+00
2.856306721967313833e-01 9.462612795027693480e+00
2.866712210933967664e-01 9.453298214099689289e+00
2.877117699900621495e-01 9.479525134353124827e+00
2.887523188867275326e-01 9.421630875495399238e+00
2.897928677833929156e-01 9.383540689751127317e+00
2.908334166800582987e-01 9.314819528656146375e+00
2.918739655767236818e-01 9.409047345785714000e+00
2.929145144733890649e-01 9.403868870153768711e+00
2.939550633700544480e-01 9.481774641473204923e+00
2.949956122667198311e-01 9.463336995550335473e+00
2.960361611633852141e-01 9.421066566528516262e+00
2.970767100600505972e-01 9.474130298067658273e+00
2.981172589567159803e-01 9.464738703530230168e+00
2.991578078533813634e-01 9.454489032730373665e+00
3.001983567500468020e-01 9.447415553541524957e+00
3.012389056467121851e-01 9.450931787232816461e+00
3.022794545433775681e-01 9.460923185418502968e+00
3.033200034400429512e-01 9.556390659622707062e+00
3.043605523367083343e-01 9.470687576319901879e+00
3.054011012333737174e-01 9.494763809102680696e+00
3.064416501300391005e-01 9.454362383737080933e+00
3.074821990267044836e-01 9.482252949894071747e+00
3.085227479233698666e-01 9.403826777916464152e+00
3.095632968200352497e-01 9.452519940428830481e+00
3.106038457167006328e-01 9.436559684707466644e+00
3.116443946133660159e-01 9.469265084983321756e+00
3.126849435100313990e-01 9.420245501633962348e+00
3.137254924066967821e-01 9.417858327432524490e+00
3.147660413033621651e-01 9.447226744964883238e+00
3.158065902000275482e-01 9.455402167997423390e+00
3.168471390966929313e-01 9.520279278920016353e+00
3.178876879933583144e-01 9.427942421086942915e+00
3.189282368900236975e-01 9.437690128575614068e+00
3.199687857866890806e-01 9.467250026670136265e+00
3.210093346833544636e-01 9.421384188459137832e+00
3.220498835800198467e-01 9.450880553589897204e+00
3.230904324766852298e-01 9.420260064692257629e+00
3.241309813733506129e-01 9.410386921532847282e+00
3.251715302700159960e-01 9.442673628842261024e+00
3.262120791666813790e-01 9.495252048332563533e+00
3.272526280633467621e-01 9.427352319120871016e+00
3.282931769600121452e-01 9.433156202792389422e+00
3.293337258566775283e-01 9.498740740268875271e+00
3.303742747533429114e-01 9.412663793123485334e+00
3.314148236500082945e-01 9.499644440575014670e+00
3.324553725466736775e-01 9.475206641673226571e+00
3.334959214433390606e-01 9.495292917755145723e+00
3.345364703400044437e-01 9.420204277250343594e+00
3.355770192366698268e-01 9.412148506111327251e+00
3.366175681333352099e-01 9.477601238195878963e+00
3.376581170300005930e-01 9.512640465002826673e+00
3.386986659266659760e-01 9.494351621590867651e+00
3.397392148233313591e-01 9.466291054344598166e+00
3.407797637199967422e-01 9.504056081794180599e+00
3.418203126166621253e-01 9.477503184144214998e+00
3.428608615133275084e-01 9.444252252737845410e+00
3.439014104099928915e-01 9.463194622167808490e+00
3.449419593066582745e-01 9.483806568101419643e+00
3.459825082033236576e-01 9.458032258052371688e+00
3.470230570999890407e-01 9.491498043375756311e+00
3.480636059966544238e-01 9.466438530324380096e+00
3.491041548933198069e-01 9.437799786594917251e+00
3.501447037899851900e-01 9.446777060289949901e+00
3.511852526866505730e-01 9.481604262137253158e+00
3.522258015833159561e-01 9.464087053626116131e+00
3.532663504799813392e-01 9.464901344159642349e+00
3.543068993766467223e-01 9.447716040819056360e+00
3.553474482733121054e-01 9.446733467266687612e+00
3.563879971699774885e-01 9.482126761538426152e+00
3.574285460666428715e-01 9.473572520074709402e+00
3.584690949633082546e-01 9.473751802824699197e+00
3.595096438599736377e-01 9.409544074982701289e+00
3.605501927566390208e-01 9.455381682796843990e+00
3.615907416533044039e-01 9.435008473823998543e+00
3.626312905499697870e-01 9.455881769271826442e+00
3.636718394466351700e-01 9.487861668714137053e+00
3.647123883433005531e-01 9.488812809406649507e+00
3.657529372399659362e-01 9.492276504436999218e+00
3.667934861366313193e-01 9.438586077622964865e+00
3.678340350332967024e-01 9.460079210968588725e+00
3.688745839299620854e-01 9.472532224061286144e+00
3.699151328266274685e-01 9.451347600220232792e+00
3.709556817232928516e-01 9.488488112242455585e+00
3.719962306199582347e-01 9.494857090492777374e+00
3.730367795166236178e-01 9.440457218363890846e+00
3.740773284132890009e-01 9.444878787486855387e+00
3.751178773099543839e-01 9.452652168919277287e+00
3.761584262066197670e-01 9.478459072168876176e+00
3.771989751032851501e-01 9.419575273052718245e+00
3.782395239999505332e-01 9.394077515721724225e+00
3.792800728966159163e-01 9.383684553579641374e+00
3.803206217932812994e-01 9.378321075680570829e+00
3.813611706899466824e-01 9.472863584868225217e+00
3.824017195866120655e-01 9.496223487140449393e+00
3.834422684832774486e-01 9.405754207452558191e+00
3.844828173799428317e-01 9.393090521433693496e+00
3.855233662766082148e-01 9.430348984112148614e+00
3.865639151732735979e-01 9.440740931907789957e+00
3.876044640699389809e-01 9.428255972825256848e+00
3.886450129666043640e-01 9.443308529207257607e+00
3.896855618632697471e-01 9.495021623394354293e+00
3.907261107599351302e-01 9.523650140738336489e+00
3.917666596566005133e-01 9.510151235583370166e+00
3.928072085532658964e-01 9.469933429805635683e+00
3.938477574499312794e-01 9.444555596004523323e+00
3.948883063465966625e-01 9.437455774473386683e+00
3.959288552432620456e-01 9.436125099604767641e+00
3.969694041399274287e-01 9.467942406444871395e+00
3.980099530365928118e-01 9.477064219645448873e+00
3.990505019332581949e-01 9.481910633539715860e+00
4.000910508299235779e-01 9.460070581383897448e+00
4.011315997265889610e-01 9.510131314971960848e+00
4.021721486232543441e-01 9.460042420876646929e+00
4.032126975199197272e-01 9.464922074541231467e+00
4.042532464165851103e-01 9.461553643661323676e+00
4.052937953132504934e-01 9.483604565740042958e+00
4.063343442099158764e-01 9.470440789749803301e+00
4.073748931065812595e-01 9.792393453687420646e+00
4.084154420032466426e-01 9.914280329131392122e+00
4.094559908999120257e-01 9.502580157815529560e+00
4.104965397965774088e-01 9.418890177066856495e+00
4.115370886932427918e-01 9.445483521372116442e+00
4.125776375899081749e-01 9.442645617789519719e+00
4.136181864865735580e-01 9.549591466968285758e+00
4.146587353832389411e-01 9.521576110829711226e+00
4.156992842799043242e-01 9.516163027408055086e+00
4.167398331765697073e-01 9.613066453249111021e+00
4.177803820732350903e-01 9.533102825674705016e+00
4.188209309699004734e-01 9.499513421700440219e+00
4.198614798665658565e-01 9.479973258789684110e+00
4.209020287632312396e-01 9.457815728603938155e+00
4.219425776598966227e-01 9.467703849453258158e+00
4.229831265565620058e-01 9.483081467349792959e+00
4.240236754532273888e-01 9.462282199298503116e+00
4.250642243498927719e-01 9.473563028343898296e+00
4.261047732465581550e-01 9.574391389788882378e+00
4.271453221432235381e-01 9.532200872126910696e+00
4.281858710398889212e-01 9.450544295090859137e+00
4.292264199365543043e-01 9.474854257817883152e+00
4.302669688332196873e-01 9.450978175159400863e+00
4.313075177298850704e-01 9.508258533276999103e+00
4.323480666265504535e-01 9.489601581723334789e+00
4.333886155232158366e-01 9.428591895199499362e+00
4.344291644198812197e-01 9.517410915595149845e+00
