# q (1/Angstrom), Intensity (arb)
2.029070354705860696e-02 0.000000000000000000e+00
2.133125244372399004e-02 1.549340243365897152e+00
2.237180134038937659e-02 2.891003827907963064e+00
2.341235023705475968e-02 4.010106677769815775e+00
2.445289913372014276e-02 4.951070216250057499e+00
2.549344803038552584e-02 5.570575511860976547e+00
2.653399692705091240e-02 6.098323997698118504e+00
2.757454582371629548e-02 6.462032402625071725e+00
2.861509472038167856e-02 7.119283302116794054e+00
2.965564361704706164e-02 7.574886013188423028e+00
3.069619251371244473e-02 7.612971995326950569e+00
3.173674141037782781e-02 7.763680201640648981e+00
3.277729030704321089e-02 8.013615893510454669e+00
3.381783920370859398e-02 8.085010226043682025e+00
3.485838810037397706e-02 8.398559860409161359e+00
3.589893699703936014e-02 8.596292393124876696e+00
3.693948589370474322e-02 8.696514457858185665e+00
3.798003479037012631e-02 9.027607407209890411e+00
3.902058368703550939e-02 8.834989033078365139e+00
4.006113258370089247e-02 8.793466226103243244e+00
4.110168148036627556e-02 8.833805415838048347e+00
4.214223037703165864e-02 8.885295014365690136e+00
4.318277927369704866e-02 8.885463568551719149e+00
4.422332817036243174e-02 8.962855173754647353e+00
4.526387706702781483e-02 9.058860543835617563e+00
4.630442596369319791e-02 8.959068492267995509e+00
4.734497486035858099e-02 8.934831731276126732e+00
4.838552375702396408e-02 9.160128835315235918e+00
4.942607265368934716e-02 9.235676147375663447e+00
5.046662155035473024e-02 9.165899536181715490e+00
5.150717044702011332e-02 9.089770275097587060e+00
5.254771934368549641e-02 9.190064674112798926e+00
5.358826824035087949e-02 9.260942055469648437e+00
5.462881713701626257e-02 9.280046270500719174e+00
5.566936603368164566e-02 9.269503547348326933e+00
5.670991493034702874e-02 9.153726659554774159e+00
5.775046382701241182e-02 9.128154951566928688e+00
5.879101272367779490e-02 9.065230559162145596e+00
5.983156162034317799e-02 9.222117876231784805e+00
6.087211051700856107e-02 9.149242579750007209e+00
6.191265941367394415e-02 9.196275382805133347e+00
6.295320831033933417e-02 9.176991258850771160e+00
6.399375720700471726e-02 9.064209151011496601e+00
6.503430610367010034e-02 9.128420886644105892e+00
6.607485500033548342e-02 9.109879510450344497e+00
6.711540389700086651e-02 9.130923845318134724e+00
6.815595279366624959e-02 9.180735018019975158e+00
6.919650169033163267e-02 9.303943845526495338e+00
7.023705058699701576e-02 9.205316066377051243e+00
7.127759948366239884e-02 9.222802317649588133e+00
7.231814838032778192e-02 9.229037899371126841e+00
7.335869727699316500e-02 9.168315580015859112e+00
7.439924617365854809e-02 9.233657399042204617e+00
7.543979507032393117e-02 9.070420132857588413e+00
7.648034396698931425e-02 9.200210647684043508e+00
7.752089286365469734e-02 9.307877168674803414e+00
7.856144176032008042e-02 9.226362458053520399e+00
7.960199065698546350e-02 9.114578533316123554e+00
8.064253955365084658e-02 9.162337623002438036e+00
8.168308845031622967e-02 9.205108452291044685e+00
8.272363734698161275e-02 9.263113837845763143e+00
8.376418624364699583e-02 9.316084313204598288e+00
8.480473514031239279e-02 9.173872577453416000e+00
8.584528403697777588e-02 9.191854785728253319e+00
8.688583293364315896e-02 9.198640961694801277e+00
8.792638183030854204e-02 9.199865547559987533e+00
8.896693072697392513e-02 9.153490672568551645e+00
9.000747962363930821e-02 9.260261908993742352e+00
9.104802852030469129e-02 9.341619960892495911e+00
9.208857741697007437e-02 9.337360571292979472e+00
9.312912631363545746e-02 9.262206423641911712e+00
9.416967521030084054e-02 9.214481411472075223e+00
9.521022410696622362e-02 9.346205805572628478e+00
9.625077300363160671e-02 9.290954299038343578e+00
9.729132190029698979e-02 9.227789233335492725e+00
9.833187079696237287e-02 9.180299972803476649e+00
9.937241969362775595e-02 9.173023552780064094e+00
1.004129685902931390e-01 9.194989279720639175e+00
1.014535174869585221e-01 9.303262135997217186e+00
1.024940663836239052e-01 9.299635355979029683e+00
1.035346152802892883e-01 9.159164816028404488e+00
1.045751641769546714e-01 9.126299537103118809e+00
1.056157130736200545e-01 9.144863551201156682e+00
1.066562619702854375e-01 9.246322586374917663e+00
1.076968108669508206e-01 9.237768439593999403e+00
1.087373597636162037e-01 9.228375557653642147e+00
1.097779086602815868e-01 9.148566722882788937e+00
1.108184575569469699e-01 9.247118131826777443e+00
1.118590064536123529e-01 9.229482570974688826e+00
1.128995553502777360e-01 9.206788281847797961e+00
1.139401042469431191e-01 9.203090345241326631e+00
1.149806531436085022e-01 9.222551082065223227e+00
1.160212020402738853e-01 9.235609422121520140e+00
1.170617509369392684e-01 9.251971396874624887e+00
1.181022998336046514e-01 9.238175966705966857e+00
1.191428487302700345e-01 9.243425433905116506e+00
1.201833976269354176e-01 9.279362799818128948e+00
1.212239465236008007e-01 9.266222879740224627e+00
1.222644954202661838e-01 9.277567338527793694e+00
1.233050443169315669e-01 9.330032515903422308e+00
1.243455932135969499e-01 9.406717041444982996e+00
1.253861421102623330e-01 9.343744372768142625e+00
1.264266910069277161e-01 9.318519292370265106e+00
1.274672399035930992e-01 9.334439698111347994e+00
1.285077888002584823e-01 9.271063395273589691e+00
1.295483376969238654e-01 9.282498448312898276e+00
1.305888865935892484e-01 9.333148629935459795e+00
1.316294354902546315e-01 9.268535502620959932e+00
1.326699843869200146e-01 9.286430887460305428e+00
1.337105332835853977e-01 9.262207197737742703e+00
1.347510821802507808e-01 9.337635174863178733e+00
1.357916310769161639e-01 9.336736888214179686e+00
1.368321799735815469e-01 9.311720880970161929e+00
1.378727288702469300e-01 9.285516214554549563e+00
1.389132777669123131e-01 9.305081586061620058e+00
1.399538266635776962e-01 9.329907479090858047e+00
1.409943755602430793e-01 9.269505234498797819e+00
1.420349244569084624e-01 9.320322873809850250e+00
1.430754733535738454e-01 9.327922631630869432e+00
1.441160222502392285e-01 9.279422815769684973e+00
1.451565711469046116e-01 9.253321269240547764e+00
1.461971200435699947e-01 9.222017463060890208e+00
1.472376689402353778e-01 9.228957514716665145e+00
1.482782178369007609e-01 9.234307515324850613e+00
1.493187667335661439e-01 9.307598889588550861e+00
1.503593156302315270e-01 9.260170264536817797e+00
1.513998645268969101e-01 9.307122488324630183e+00
1.524404134235622932e-01 9.335888279634025011e+00
1.534809623202276763e-01 9.261390904087926756e+00
1.545215112168930593e-01 9.352540147522450553e+00
1.555620601135584424e-01 9.279409381751808183e+00
1.566026090102238255e-01 9.282988824678623629e+00
1.576431579068892086e-01 9.302413949011990368e+00
1.586837068035545917e-01 9.381372331439701284e+00
1.597242557002199748e-01 9.314234991241765016e+00
1.607648045968853578e-01 9.242553083065335073e+00
1.618053534935507409e-01 9.290447674749273688e+00
1.628459023902161240e-01 9.369169685001599746e+00
1.638864512868815071e-01 9.399075709841659076e+00
1.649270001835468902e-01 9.286199690728656364e+00
1.659675490802122733e-01 9.312639880012229199e+00
1.670080979768776563e-01 9.393678601032103614e+00
1.680486468735430672e-01 9.340454578365381622e+00
1.690891957702084503e-01 9.405705824275900184e+00
1.701297446668738333e-01 9.249742861844833186e+00
1.711702935635392164e-01 9.311327527271780369e+00
1.722108424602045995e-01 9.340237617686154792e+00
1.732513913568699826e-01 9.335023385596617373e+00
1.742919402535353657e-01 9.304679770431093289e+00
1.753324891502007488e-01 9.317936761825128755e+00
1.763730380468661318e-01 9.357043808096435100e+00
1.774135869435315149e-01 9.418982878967099737e+00
1.784541358401968980e-01 9.378968498839565626e+00
1.794946847368622811e-01 9.318091780751210251e+00
1.805352336335276642e-01 9.382722629247396640e+00
1.815757825301930473e-01 9.389881391962846990e+00
1.826163314268584303e-01 9.390216674162765287e+00
1.836568803235238134e-01 9.348812915022591596e+00
1.846974292201891965e-01 9.404231538690112302e+00
1.857379781168545796e-01 9.438718595626253816e+00
1.867785270135199627e-01 9.406147289669647193e+00
1.878190759101853458e-01 9.375868225515601395e+00
1.888596248068507288e-01 9.368147696759262288e+00
1.899001737035161119e-01 9.376029670942706673e+00
1.909407226001814950e-01 9.387781115454822967e+00
1.919812714968468781e-01 9.360040379204395578e+00
1.930218203935122612e-01 9.372512508340031800e+00
1.940623692901776443e-01 9.376792611525999632e+00
1.951029181868430273e-01 9.380523684424526110e+00
1.961434670835084104e-01 9.369177369370062181e+00
1.971840159801737935e-01 9.333822448042424114e+00
1.982245648768391766e-01 9.374991111119024723e+00
1.992651137735045597e-01 9.426544859123158204e+00
2.003056626701699428e-01 9.361930904497892669e+00
2.013462115668353813e-01 9.300697341994318634e+00
2.023867604635007644e-01 9.291577654472085612e+00
2.034273093601661475e-01 9.402016355402881942e+00
2.044678582568315306e-01 9.354167691269028140e+00
2.055084071534969137e-01 9.370120823495941664e+00
2.065489560501622968e-01 9.413357199335086634e+00
2.075895049468276798e-01 9.410915931565886794e+00
2.086300538434930629e-01 9.394581396556862529e+00
2.096706027401584460e-01 9.405144717825510980e+00
2.107111516368238291e-01 9.424712593074087152e+00
2.117517005334892122e-01 9.442963122470139581e+00
2.127922494301545953e-01 9.463309429727898348e+00
2.138327983268199783e-01 9.423124188165481030e+00
2.148733472234853614e-01 9.297387886802077617e+00
2.159138961201507445e-01 9.400510986362283106e+00
2.169544450168161276e-01 9.489142308672587234e+00
2.179949939134815107e-01 9.349034607181794243e+00
2.190355428101468938e-01 9.312482330121310881e+00
2.200760917068122768e-01 9.373043207703936730e+00
2.211166406034776599e-01 9.303004821244170941e+00
2.221571895001430430e-01 9.305871226734955926e+00
2.231977383968084261e-01 9.317294511309443195e+00
2.242382872934738092e-01 9.386465864067050191e+00
2.252788361901391923e-01 9.394229900393778365e+00
2.263193850868045753e-01 9.395441316351304195e+00
2.273599339834699584e-01 9.380545705530229483e+00
2.284004828801353415e-01 9.404875925999125030e+00
2.294410317768007246e-01 9.373090164633964605e+00
2.304815806734661077e-01 9.402406615647516119e+00
2.315221295701314908e-01 9.358515015205394860e+00
2.325626784667968738e-01 9.385650685103586355e+00
2.336032273634622569e-01 9.395537446479458765e+00
2.346437762601276400e-01 9.455405410354899232e+00
2.356843251567930231e-01 9.446475205813349874e+00
2.367248740534584062e-01 9.470645537070762288e+00
2.377654229501237892e-01 9.474775157157763417e+00
2.388059718467891723e-01 9.432330598270876720e+00
2.398465207434545554e-01 9.386399057896943177e+00
2.408870696401199385e-01 9.390160533791922504e+00
2.419276185367853216e-01 9.405783176591318906e+00
2.429681674334507047e-01 9.423069796640874074e+00
2.440087163301160877e-01 9.399898142487751684e+00
2.450492652267814708e-01 9.359795066702581323e+00
2.460898141234468539e-01 9.375474184696987123e+00
2.471303630201122370e-01 9.342187857822363384e+00
2.481709119167776201e-01 9.460825738249692307e+00
2.492114608134430032e-01 9.405947739385961626e+00
2.502520097101083585e-01 9.401681982358585543e+00
2.512925586067737416e-01 9.366805293853351699e+00
2.523331075034391247e-01 9.351282364140272918e+00
2.533736564001045077e-01 9.414120462633132291e+00
2.544142052967698908e-01 9.436503578482993149e+00
2.554547541934352739e-01 9.434593360072705437e+00
2.564953030901006570e-01 9.408684271191440018e+00
2.575358519867660401e-01 9.474740798616064552e+00
2.585764008834314231e-01 9.430734737930166034e+00
2.596169497800968062e-01 9.430824935381455276e+00
2.606574986767621893e-01 9.454664864850689909e+00
2.616980475734275724e-01 9.419704946441960658e+00
2.627385964700929555e-01 9.350594733302585837e+00
2.637791453667583386e-01 9.485296535696829068e+00
2.648196942634237216e-01 9.419890039566068296e+00
2.658602431600891047e-01 9.400942968885598106e+00
2.669007920567544878e-01 9.415701262664248006e+00
2.679413409534198709e-01 9.380407770449490812e+00
2.689818898500852540e-01 9.357298125314851944e+00
2.700224387467506371e-01 9.384758987261582419e+00
2.710629876434160201e-01 9.389061318847911508e+00
2.721035365400814032e-01 9.434178049243826081e+00
2.731440854367467863e-01 9.350877353681857684e+00
2.741846343334121694e-01 9.403523641418123802e+00
2.752251832300775525e-01 9.471197599140705137e+00
2.762657321267429356e-01 9.405746197574494261e+00
2.773062810234083186e-01 9.442498047891101365e+00
2.783468299200737017e-01 9.418922920309285018e+00
2.793873788167390848e-01 9.429573951958520439e+00
2.804279277134044679e-01 9.456428798801875146e+00
2.814684766100698510e-01 9.447619617956997118e+00
2.825090255067352341e-01 9.357258336678892618e+00
2.835495744034006171e-01 9.351639705347530196e+00
2.845901233000660002e-01 9.459444499113253357e+00
2.856306721967313833e-01 9.427298349209861428e+00
2.866712210933967664e-01 9.384679316751123324e+00
2.877117699900621495e-01 9.468340741014465323e+00
2.887523188867275326e-01 9.467849263675880422e+00
2.897928677833929156e-01 9.441425021117531458e+00
2.908334166800582987e-01 9.383502203525846852e+00
2.918739655767236818e-01 9.417617721168527467e+00
2.929145144733890649e-01 9.398305635309464279e+00
2.939550633700544480e-01 9.437774291893370915e+00
2.949956122667198311e-01 9.430904786195506873e+00
2.960361611633852141e-01 9.399966494266582373e+00
2.970767100600505972e-01 9.390391420674859546e+00
2.981172589567159803e-01 9.412475229016031619e+00
2.991578078533813634e-01 9.424206575993016699e+00
3.001983567500468020e-01 9.400413772738623663e+00
3.012389056467121851e-01 9.471748358481312025e+00
3.022794545433775681e-01 9.447375661834009009e+00
3.033200034400429512e-01 9.439012599748977550e+00
3.043605523367083343e-01 9.390601611010403360e+00
3.054011012333737174e-01 9.480357217061817110e+00
3.064416501300391005e-01 9.437204824728867791e+00
3.074821990267044836e-01 9.440064847167993989e+00
3.085227479233698666e-01 9.392894598437356635e+00
3.095632968200352497e-01 9.391654866257646006e+00
3.106038457167006328e-01 9.441694315508117441e+00
3.116443946133660159e-01 9.426153415345252640e+00
3.126849435100313990e-01 9.397869957204344260e+00
3.137254924066967821e-01 9.406296060051060337e+00
3.147660413033621651e-01 9.453287537931633011e+00
3.158065902000275482e-01 9.432066072571393178e+00
3.168471390966929313e-01 9.405319714673666454e+00
3.178876879933583144e-01 9.384513513746190583e+00
3.189282368900236975e-01 9.452716129942265511e+00
3.199687857866890806e-01 9.430890022478180867e+00
3.210093346833544636e-01 9.400049282075901402e+00
3.220498835800198467e-01 9.413398230777040965e+00
3.230904324766852298e-01 9.399206080947656972e+00
3.241309813733506129e-01 9.430548682142219974e+00
3.251715302700159960e-01 9.399941402658260614e+00
3.262120791666813790e-01 9.368500911347659610e+00
3.272526280633467621e-01 9.414562517451473767e+00
3.282931769600121452e-01 9.421255033291000558e+00
3.293337258566775283e-01 9.440678703812505290e+00
3.303742747533429114e-01 9.353559448474904059e+00
3.314148236500082945e-01 9.428496809564926195e+00
3.324553725466736775e-01 9.484419935189460915e+00
3.334959214433390606e-01 9.460824466806291966e+00
3.345364703400044437e-01 9.421967446066373597e+00
3.355770192366698268e-01 9.410172636578563399e+00
3.366175681333352099e-01 9.409373319716403117e+00
3.376581170300005930e-01 9.368800861765475219e+00
3.386986659266659760e-01 9.427904878453290394e+00
3.397392148233313591e-01 9.452324620507019048e+00
3.407797637199967422e-01 9.475233806169290673e+00
3.418203126166621253e-01 9.478505306533824282e+00
3.428608615133275084e-01 9.421984333685935908e+00
3.439014104099928915e-01 9.489102729834627326e+00
3.449419593066582745e-01 9.467876491852925014e+00
3.459825082033236576e-01 9.411737657463454809e+00
3.470230570999890407e-01 9.447815040526082342e+00
3.480636059966544238e-01 9.425774213835920179e+00
3.491041548933198069e-01 9.427678162756993885e+00
3.501447037899851900e-01 9.394863731604287338e+00
3.511852526866505730e-01 9.441090938223965168e+00
3.522258015833159561e-01 9.428059439435600098e+00
3.532663504799813392e-01 9.423734345778383314e+00
3.543068993766467223e-01 9.433325336573318509e+00
3.553474482733121054e-01 9.452855418874978710e+00
3.563879971699774885e-01 9.445544166740935665e+00
3.574285460666428715e-01 9.430995942710362456e+00
3.584690949633082546e-01 9.461126814380650174e+00
3.595096438599736377e-01 9.447560526542027048e+00
3.605501927566390208e-01 9.464256915903538570e+00
3.615907416533044039e-01 9.431839175525860597e+00
3.626312905499697870e-01 9.454517990705582520e+00
3.636718394466351700e-01 9.475568666682097074e+00
3.647123883433005531e-01 9.465760575525736797e+00
3.657529372399659362e-01 9.433649949050257888e+00
3.667934861366313193e-01 9.392637209332756143e+00
3.678340350332967024e-01 9.448325440393890773e+00
3.688745839299620854e-01 9.450269781248682222e+00
3.699151328266274685e-01 9.519932729559879903e+00
3.709556817232928516e-01 9.459443113956938376e+00
3.719962306199582347e-01 9.455464168039066308e+00
3.730367795166236178e-01 9.469740077271831424e+00
3.740773284132890009e-01 9.402368467469544910e+00
3.751178773099543839e-01 9.433695956315572673e+00
3.761584262066197670e-01 9.467397339740724505e+00
3.771989751032851501e-01 9.438476885418975115e+00
3.782395239999505332e-01 9.364915035606429683e+00
3.792800728966159163e-01 9.344003875585777052e+00
3.803206217932812994e-01 9.417435969958351194e+00
3.813611706899466824e-01 9.423480481269050912e+00
3.824017195866120655e-01 9.465534304624801720e+00
3.834422684832774486e-01 9.424200137777422270e+00
3.844828173799428317e-01 9.444467587403888587e+00
3.855233662766082148e-01 9.468886678832960868e+00
3.865639151732735979e-01 9.396244578870097897e+00
3.876044640699389809e-01 9.388896532887887503e+00
3.886450129666043640e-01 9.426767891105416908e+00
3.896855618632697471e-01 9.465865843229424925e+00
3.907261107599351302e-01 9.445858785247862599e+00
3.917666596566005133e-01 9.408963397440169629e+00
3.928072085532658964e-01 9.392037629162857115e+00
3.938477574499312794e-01 9.431024063527978285e+00
3.948883063465966625e-01 9.454563483923204004e+00
3.959288552432620456e-01 9.422234482558801361e+00
3.969694041399274287e-01 9.439231335255653832e+00
3.980099530365928118e-01 9.467967704784577165e+00
3.990505019332581949e-01 9.454938597162806602e+00
4.000910508299235779e-01 9.411741924521141556e+00
4.011315997265889610e-01 9.446027357233322874e+00
4.021721486232543441e-01 9.499609421793104858e+00
4.032126975199197272e-01 9.488301365641882867e+00
4.042532464165851103e-01 9.487620334290683743e+00
4.052937953132504934e-01 9.450761705130707568e+00
4.063343442099158764e-01 9.466108868709834923e+00
4.073748931065812595e-01 9.472174488907649348e+00
4.084154420032466426e-01 9.402920063043127996e+00
4.094559908999120257e-01 9.418533356507220233e+00
4.104965397965774088e-01 9.434942007654893104e+00
4.115370886932427918e-01 9.402981742049854930e+00
4.125776375899081749e-01 9.421561623806134378e+00
4.136181864865735580e-01 9.417262034421765904e+00
4.146587353832389411e-01 9.409278137668650288e+00
4.156992842799043242e-01 9.411718795298599005e+00
4.167398331765697073e-01 9.450267584843695445e+00
4.177803820732350903e-01 9.458639404738951484e+00
4.188209309699004734e-01 9.476924087000607955e+00
4.198614798665658565e-01 9.473508181742294809e+00
4.209020287632312396e-01 9.424491118289875402e+00
4.219425776598966227e-01 9.416141197196473911e+00
4.229831265565620058e-01 9.456382878299308459e+00
4.240236754532273888e-01 9.482590313942374394e+00
4.250642243498927719e-01 9.474105095629720807e+00
4.261047732465581550e-01 9.461801294357861991e+00
4.271453221432235381e-01 9.486282561183017492e+00
4.281858710398889212e-01 9.434223380830136563e+00
4.292264199365543043e-01 9.430121127567298700e+00
4.302669688332196873e-01 9.432341616761048542e+00
4.313075177298850704e-01 9.469086923774334252e+00
4.323480666265504535e-01 9.474917261468480234e+00
4.333886155232158366e-01 9.435630185372177792e+00
4.344291644198812197e-01 9.513174549710949890e+00
