# q (1/Angstrom), Intensity (arb)
2.029070354705860696e-02 9.761406770419262102e+01
2.133125244372399004e-02 8.033594895268166169e+01
2.237180134038937659e-02 6.727718149921173563e+01
2.341235023705475968e-02 5.685282409184711128e+01
2.445289913372014276e-02 4.777947926418607949e+01
2.549344803038552584e-02 4.222643170684956715e+01
2.653399692705091240e-02 3.840799386834314078e+01
2.757454582371629548e-02 3.375845963783798709e+01
2.861509472038167856e-02 3.049836723761816870e+01
2.965564361704706164e-02 2.836328555936202633e+01
3.069619251371244473e-02 2.542370194863583777e+01
3.173674141037782781e-02 2.158842292294862375e+01
3.277729030704321089e-02 2.140274913301472282e+01
3.381783920370859398e-02 2.021231804028054313e+01
3.485838810037397706e-02 1.922725016331347092e+01
3.589893699703936014e-02 1.798830402744901136e+01
3.693948589370474322e-02 1.746466942179045390e+01
3.798003479037012631e-02 1.680701888540248490e+01
3.902058368703550939e-02 1.674139273713833376e+01
4.006113258370089247e-02 1.553783717085165961e+01
4.110168148036627556e-02 1.480390199738447876e+01
4.214223037703165864e-02 1.371852889148834720e+01
4.318277927369704866e-02 1.390655039502955503e+01
4.422332817036243174e-02 1.398257745813532438e+01
4.526387706702781483e-02 1.296136156043998255e+01
4.630442596369319791e-02 1.312797878549702801e+01
4.734497486035858099e-02 1.290610477231611952e+01
4.838552375702396408e-02 1.242793297299830613e+01
4.942607265368934716e-02 1.224450631116552302e+01
5.046662155035473024e-02 1.210275570142831469e+01
5.150717044702011332e-02 1.161069244579928039e+01
5.254771934368549641e-02 1.126477678650429226e+01
5.358826824035087949e-02 1.233873188588120229e+01
5.462881713701626257e-02 1.234221168157633741e+01
5.566936603368164566e-02 1.267742693730009762e+01
5.670991493034702874e-02 1.245308656495576827e+01
5.775046382701241182e-02 1.289999321066625981e+01
5.879101272367779490e-02 1.415968460868430867e+01
5.983156162034317799e-02 1.471780264902945135e+01
6.087211051700856107e-02 1.640041413488344091e+01
6.191265941367394415e-02 1.787316959410593853e+01
6.295320831033933417e-02 1.867501967931888629e+01
6.399375720700471726e-02 1.895423657497659065e+01
6.503430610367010034e-02 1.948017716370079455e+01
6.607485500033548342e-02 2.108283132063952081e+01
6.711540389700086651e-02 2.328048514053790541e+01
6.815595279366624959e-02 2.567350487259220415e+01
6.919650169033163267e-02 2.763710783357382894e+01
7.023705058699701576e-02 3.010971737465101938e+01
7.127759948366239884e-02 3.306929418442133084e+01
7.231814838032778192e-02 3.568436346381973578e+01
7.335869727699316500e-02 3.999521812809876309e+01
7.439924617365854809e-02 4.581365546304692771e+01
7.543979507032393117e-02 5.639876486155155533e+01
7.648034396698931425e-02 8.046400851339549831e+01
7.752089286365469734e-02 1.384101518566671700e+02
7.856144176032008042e-02 2.272248775079672782e+02
7.960199065698546350e-02 3.117800096327826509e+02
8.064253955365084658e-02 4.083702311682627624e+02
8.168308845031622967e-02 6.284886195887289659e+02
8.272363734698161275e-02 1.007095107744242455e+03
8.376418624364699583e-02 1.178378074069457853e+03
8.480473514031239279e-02 8.842052838234023966e+02
8.584528403697777588e-02 5.156884037316624472e+02
8.688583293364315896e-02 3.377474230851565835e+02
8.792638183030854204e-02 2.607694429213293574e+02
8.896693072697392513e-02 2.149727980498842896e+02
9.000747962363930821e-02 1.824311658844021622e+02
9.104802852030469129e-02 1.585869539075374064e+02
9.208857741697007437e-02 1.402100564332211832e+02
9.312912631363545746e-02 1.289005116177179389e+02
9.416967521030084054e-02 1.300602581010467134e+02
9.521022410696622362e-02 1.407425942178369382e+02
9.625077300363160671e-02 1.414054615874882757e+02
9.729132190029698979e-02 1.112821014501963504e+02
9.833187079696237287e-02 6.777399173298736912e+01
9.937241969362775595e-02 3.777785565638465215e+01
1.004129685902931390e-01 2.340340488167681343e+01
1.014535174869585221e-01 1.649682080174628851e+01
1.024940663836239052e-01 1.268471945242041699e+01
1.035346152802892883e-01 9.725208222981983397e+00
1.045751641769546714e-01 7.604842135374767054e+00
1.056157130736200545e-01 6.127984608110267573e+00
1.066562619702854375e-01 5.426468485025282007e+00
1.076968108669508206e-01 4.825514843355030337e+00
1.087373597636162037e-01 3.952876939655723731e+00
1.097779086602815868e-01 3.010321982624525106e+00
1.108184575569469699e-01 2.678413393874208737e+00
1.118590064536123529e-01 2.350071155592360128e+00
1.128995553502777360e-01 2.477857076153838989e+00
1.139401042469431191e-01 2.823710925036216679e+00
1.149806531436085022e-01 2.879960749803728959e+00
1.160212020402738853e-01 2.179505888475233633e+00
1.170617509369392684e-01 1.863612538912605032e+00
1.181022998336046514e-01 1.937290570810574764e+00
1.191428487302700345e-01 1.724866534996635892e+00
1.201833976269354176e-01 2.119586526027433138e+00
1.212239465236008007e-01 1.709111539844762717e+00
1.222644954202661838e-01 2.053180844630695390e+00
1.233050443169315669e-01 2.584909709646900922e+00
1.243455932135969499e-01 2.936440408464179086e+00
1.253861421102623330e-01 2.712610936889618074e+00
1.264266910069277161e-01 2.767161031810879024e+00
1.274672399035930992e-01 2.890163560310028856e+00
1.285077888002584823e-01 3.014009892774843991e+00
1.295483376969238654e-01 3.699489967177235883e+00
1.305888865935892484e-01 3.844736585968028919e+00
1.316294354902546315e-01 4.622825461999923391e+00
1.326699843869200146e-01 6.446461748202814590e+00
1.337105332835853977e-01 1.069149017782273603e+01
1.347510821802507808e-01 1.916834325210114542e+01
1.357916310769161639e-01 2.848063590051532401e+01
1.368321799735815469e-01 3.053934033180863139e+01
1.378727288702469300e-01 2.243293265815062654e+01
1.389132777669123131e-01 1.377052832988864850e+01
1.399538266635776962e-01 1.000026739381850405e+01
1.409943755602430793e-01 8.456090042575510779e+00
1.420349244569084624e-01 7.397476837610092559e+00
1.430754733535738454e-01 7.025239294405281498e+00
1.441160222502392285e-01 7.565875560527068444e+00
1.451565711469046116e-01 7.478758327589474675e+00
1.461971200435699947e-01 6.869937682499042353e+00
1.472376689402353778e-01 7.206328382937023491e+00
1.482782178369007609e-01 7.430356070641789046e+00
1.493187667335661439e-01 7.331324763861530869e+00
1.503593156302315270e-01 7.300206648371929674e+00
1.513998645268969101e-01 7.314188698871305405e+00
1.524404134235622932e-01 8.000705543611140058e+00
1.534809623202276763e-01 9.015770860997527336e+00
1.545215112168930593e-01 1.067891777489694505e+01
1.555620601135584424e-01 1.337699940477397931e+01
1.566026090102238255e-01 2.007229685841186395e+01
1.576431579068892086e-01 3.269532931130466125e+01
1.586837068035545917e-01 5.151774651733074961e+01
1.597242557002199748e-01 6.532898014703087597e+01
1.607648045968853578e-01 5.945619212149894395e+01
1.618053534935507409e-01 4.063145100235635709e+01
1.628459023902161240e-01 2.599069372391239696e+01
1.638864512868815071e-01 1.905122297283291388e+01
1.649270001835468902e-01 1.708667196928395526e+01
1.659675490802122733e-01 1.807036870368195736e+01
1.670080979768776563e-01 1.837444851805491552e+01
1.680486468735430672e-01 1.487092093270623394e+01
1.690891957702084503e-01 9.837932031345964390e+00
1.701297446668738333e-01 6.711121715534869026e+00
1.711702935635392164e-01 4.732586553899665205e+00
1.722108424602045995e-01 3.559825725299070598e+00
1.732513913568699826e-01 2.904456670809778984e+00
1.742919402535353657e-01 2.365207000105669977e+00
1.753324891502007488e-01 1.934104090658593122e+00
1.763730380468661318e-01 1.624741653454702117e+00
1.774135869435315149e-01 1.621347999111726779e+00
1.784541358401968980e-01 1.690021178654848910e+00
1.794946847368622811e-01 1.751960967401206659e+00
1.805352336335276642e-01 1.411759688991391926e+00
1.815757825301930473e-01 1.266210385835201180e+00
1.826163314268584303e-01 1.409383366954369166e+00
1.836568803235238134e-01 1.627565676789888727e+00
1.846974292201891965e-01 1.394064110297168924e+00
1.857379781168545796e-01 1.294250988847934991e+00
1.867785270135199627e-01 1.236987970065648312e+00
1.878190759101853458e-01 1.271797498316690422e+00
1.888596248068507288e-01 1.369669919874180408e+00
1.899001737035161119e-01 1.234509861199043712e+00
1.909407226001814950e-01 1.142484449311186978e+00
1.919812714968468781e-01 1.106379015329146398e+00
1.930218203935122612e-01 9.772883125830027495e-01
1.940623692901776443e-01 9.843909098118963641e-01
1.951029181868430273e-01 1.019764357013748679e+00
1.961434670835084104e-01 8.272930098874553551e-01
1.971840159801737935e-01 3.691713379217418378e-01
1.982245648768391766e-01 4.484193583265287941e-01
1.992651137735045597e-01 3.765776622244452199e-01
2.003056626701699428e-01 6.281786264068713876e-01
2.013462115668353813e-01 7.541156787164169373e-01
2.023867604635007644e-01 6.223168555652769385e-01
2.034273093601661475e-01 4.442094323285203927e-01
2.044678582568315306e-01 5.234646743104534039e-01
2.055084071534969137e-01 9.292626810434150286e-01
2.065489560501622968e-01 9.006317301540498477e-01
2.075895049468276798e-01 1.104395267146536241e+00
2.086300538434930629e-01 1.247932705368395290e+00
2.096706027401584460e-01 1.316778385762244596e+00
2.107111516368238291e-01 1.476455440213310766e+00
2.117517005334892122e-01 1.617666615684424158e+00
2.127922494301545953e-01 1.972232134428189454e+00
2.138327983268199783e-01 2.209108313610858687e+00
2.148733472234853614e-01 2.510001541425921801e+00
2.159138961201507445e-01 2.680290471147269926e+00
2.169544450168161276e-01 1.980835387889289478e+00
2.179949939134815107e-01 1.424684483579373051e+00
2.190355428101468938e-01 1.169489991166525300e+00
2.200760917068122768e-01 1.248510438220687746e+00
2.211166406034776599e-01 1.131497359064546515e+00
2.221571895001430430e-01 1.176184168994716117e+00
2.231977383968084261e-01 9.470781303074602420e-01
2.242382872934738092e-01 1.141925065498899272e+00
2.252788361901391923e-01 1.263983735554692345e+00
2.263193850868045753e-01 1.132511900274785432e+00
2.273599339834699584e-01 1.107129042535355268e+00
2.284004828801353415e-01 1.339800701634771940e+00
2.294410317768007246e-01 1.218991837430120739e+00
2.304815806734661077e-01 1.489301329891230097e+00
2.315221295701314908e-01 1.758367387015557171e+00
2.325626784667968738e-01 2.010064269385996027e+00
2.336032273634622569e-01 2.381289440761293008e+00
2.346437762601276400e-01 3.345306699923508376e+00
2.356843251567930231e-01 3.836127542587970396e+00
2.367248740534584062e-01 3.606922549951541157e+00
2.377654229501237892e-01 3.240140619302092517e+00
2.388059718467891723e-01 2.310953981421477010e+00
2.398465207434545554e-01 1.912210522819194125e+00
2.408870696401199385e-01 2.068053711740656553e+00
2.419276185367853216e-01 1.819590104998745517e+00
2.429681674334507047e-01 1.846505984902080399e+00
2.440087163301160877e-01 1.656343757836420849e+00
2.450492652267814708e-01 1.607560522923488833e+00
2.460898141234468539e-01 1.876207485621968374e+00
2.471303630201122370e-01 2.186199369602711329e+00
2.481709119167776201e-01 2.610678200469653376e+00
2.492114608134430032e-01 3.148760600931613141e+00
2.502520097101083585e-01 3.354374979798663503e+00
2.512925586067737416e-01 3.341771587774616137e+00
2.523331075034391247e-01 2.662323154692735727e+00
2.533736564001045077e-01 2.254943216415018270e+00
2.544142052967698908e-01 1.549269831502812167e+00
2.554547541934352739e-01 1.379178723341574653e+00
2.564953030901006570e-01 1.091811094216470934e+00
2.575358519867660401e-01 1.004260140500107923e+00
2.585764008834314231e-01 9.570558318965964872e-01
2.596169497800968062e-01 1.066925644109808502e+00
2.606574986767621893e-01 7.141488981668508984e-01
2.616980475734275724e-01 7.942664787098543400e-01
2.627385964700929555e-01 9.202197025287723875e-01
2.637791453667583386e-01 5.839560442274311924e-01
2.648196942634237216e-01 6.762826475818641825e-01
2.658602431600891047e-01 4.102087437154580130e-01
2.669007920567544878e-01 5.821627560239193144e-01
2.679413409534198709e-01 9.979365232107788586e-01
2.689818898500852540e-01 9.322689629307738812e-01
2.700224387467506371e-01 7.679151187653587840e-01
2.710629876434160201e-01 9.370621594847250435e-01
2.721035365400814032e-01 6.770811306657442685e-01
2.731440854367467863e-01 7.125379482381895002e-01
2.741846343334121694e-01 7.174314471791909398e-01
2.752251832300775525e-01 7.198083778746315886e-01
2.762657321267429356e-01 8.438080054178414002e-01
2.773062810234083186e-01 4.342329057079794552e-01
2.783468299200737017e-01 4.375026620099120578e-01
2.793873788167390848e-01 7.138257494071389431e-01
2.804279277134044679e-01 5.249576081981217612e-01
2.814684766100698510e-01 2.796932609236293388e-01
2.825090255067352341e-01 1.196615579608781843e-01
2.835495744034006171e-01 4.825175361569193910e-01
2.845901233000660002e-01 4.155123266537295024e-01
2.856306721967313833e-01 3.700972174957399830e-01
2.866712210933967664e-01 4.102930323795170864e-01
2.877117699900621495e-01 5.422435513259991069e-01
2.887523188867275326e-01 6.125257402371033777e-01
2.897928677833929156e-01 7.705275438033893920e-01
2.908334166800582987e-01 6.743009610345680471e-01
2.918739655767236818e-01 4.865492444231698244e-01
2.929145144733890649e-01 0.000000000000000000e+00
2.939550633700544480e-01 3.971666270682696620e-01
2.949956122667198311e-01 3.415850252724439429e-01
2.960361611633852141e-01 1.718184458801204073e-01
2.970767100600505972e-01 3.882158781275890647e-01
2.981172589567159803e-01 6.364130064902369099e-01
2.991578078533813634e-01 8.066853257462334170e-01
3.001983567500468020e-01 6.042440377470796875e-01
3.012389056467121851e-01 5.047689539802995284e-01
3.022794545433775681e-01 6.322481492051821306e-01
3.033200034400429512e-01 6.282013688550875941e-01
3.043605523367083343e-01 7.227126958766731946e-01
3.054011012333737174e-01 7.793704278967581445e-01
3.064416501300391005e-01 5.971794371128353873e-01
3.074821990267044836e-01 8.731268506718485867e-01
3.085227479233698666e-01 8.673992732525874771e-01
3.095632968200352497e-01 8.018217749390750271e-01
3.106038457167006328e-01 1.020468477915276395e+00
3.116443946133660159e-01 1.000670790193957771e+00
3.126849435100313990e-01 7.735938616572930471e-01
3.137254924066967821e-01 7.257484724972869117e-01
3.147660413033621651e-01 7.520444633527425538e-01
3.158065902000275482e-01 5.765167152645815918e-01
3.168471390966929313e-01 8.248063576997353152e-01
3.178876879933583144e-01 1.050811338566653319e+00
3.189282368900236975e-01 1.199537916643450330e+00
3.199687857866890806e-01 1.107480108781405903e+00
3.210093346833544636e-01 7.691573201501924473e-01
3.220498835800198467e-01 7.507052384641532683e-01
3.230904324766852298e-01 5.519356959703998200e-01
3.241309813733506129e-01 3.944974110447176940e-01
3.251715302700159960e-01 3.443802751886657632e-01
3.262120791666813790e-01 4.671034374528275634e-01
3.272526280633467621e-01 6.468345123371257444e-01
3.282931769600121452e-01 5.292665042244415474e-01
3.293337258566775283e-01 4.219970108640609396e-01
3.303742747533429114e-01 3.383691079167654436e-01
3.314148236500082945e-01 4.275474576252058512e-01
3.324553725466736775e-01 5.838724178230521034e-01
3.334959214433390606e-01 5.217616767733375127e-01
3.345364703400044437e-01 5.813680266262934992e-01
3.355770192366698268e-01 8.258854639747355009e-01
3.366175681333352099e-01 7.667346898169391523e-01
3.376581170300005930e-01 7.828376076277336892e-01
3.386986659266659760e-01 1.039322957973372041e+00
3.397392148233313591e-01 9.719866962590018034e-01
3.407797637199967422e-01 9.759759940942664969e-01
3.418203126166621253e-01 8.978186304436022169e-01
3.428608615133275084e-01 8.363800177686364634e-01
3.439014104099928915e-01 8.058280010934950610e-01
3.449419593066582745e-01 7.195604096620655810e-01
3.459825082033236576e-01 8.086541764052270764e-01
3.470230570999890407e-01 9.282951964908150444e-01
3.480636059966544238e-01 6.534736270928540591e-01
3.491041548933198069e-01 5.250150274584264309e-01
3.501447037899851900e-01 4.326869294511901387e-01
3.511852526866505730e-01 5.115386242073434175e-01
3.522258015833159561e-01 4.250573777700843436e-01
3.532663504799813392e-01 5.765855626831637437e-01
3.543068993766467223e-01 6.438163639782317205e-01
3.553474482733121054e-01 6.810544156796218829e-01
3.563879971699774885e-01 6.552242875355460683e-01
3.574285460666428715e-01 5.432887897544205202e-01
3.584690949633082546e-01 3.215935291556668574e-01
3.595096438599736377e-01 4.978026267920760972e-01
3.605501927566390208e-01 5.869008521695278091e-01
3.615907416533044039e-01 5.208317927860015573e-01
3.626312905499697870e-01 3.827860157826208365e-01
3.636718394466351700e-01 4.066352202088268086e-01
3.647123883433005531e-01 4.455758429237945961e-01
3.657529372399659362e-01 3.726665559510244918e-01
3.667934861366313193e-01 3.667216669589627998e-01
3.678340350332967024e-01 4.514466238056478176e-01
3.688745839299620854e-01 4.939138203369992652e-01
3.699151328266274685e-01 4.479865097481692260e-01
3.709556817232928516e-01 4.560797876686812913e-01
3.719962306199582347e-01 2.761691506146490838e-01
3.730367795166236178e-01 2.880400588985843058e-01
3.740773284132890009e-01 4.958951651126639604e-01
3.751178773099543839e-01 4.118774157400793001e-01
3.761584262066197670e-01 3.985781274724722323e-01
3.771989751032851501e-01 4.781863136582771290e-01
3.782395239999505332e-01 3.736182738720366103e-01
3.792800728966159163e-01 5.071309411730169359e-01
3.803206217932812994e-01 4.525375973174590172e-01
3.813611706899466824e-01 6.521460019714702128e-01
3.824017195866120655e-01 5.338176294690448742e-01
3.834422684832774486e-01 3.383951703740706307e-01
3.844828173799428317e-01 3.274751053475846163e-01
3.855233662766082148e-01 4.414371088719342140e-01
3.865639151732735979e-01 3.383079318980755090e-01
3.876044640699389809e-01 4.191952596143480037e-01
3.886450129666043640e-01 5.731700974382327729e-01
3.896855618632697471e-01 3.590313863182323928e-01
3.907261107599351302e-01 2.813870605726798146e-01
3.917666596566005133e-01 4.231244658152419902e-01
3.928072085532658964e-01 5.343580421435234484e-01
3.938477574499312794e-01 4.956187578068664834e-01
3.948883063465966625e-01 5.546194850299670520e-01
3.959288552432620456e-01 6.220104468180274182e-01
3.969694041399274287e-01 4.455216032514712765e-01
3.980099530365928118e-01 4.316378073201860843e-01
3.990505019332581949e-01 4.402577561947644824e-01
4.000910508299235779e-01 5.458649599395997143e-01
4.011315997265889610e-01 3.855127546787571191e-01
4.021721486232543441e-01 2.506067506327127603e-01
4.032126975199197272e-01 3.985991661481982362e-01
4.042532464165851103e-01 4.633533398902578426e-01
4.052937953132504934e-01 5.173616300004084678e-01
4.063343442099158764e-01 5.612010781042364727e-01
4.073748931065812595e-01 4.488586207462006428e-01
4.084154420032466426e-01 5.858018758864922404e-01
4.094559908999120257e-01 4.796628426038473947e-01
4.104965397965774088e-01 4.761904291836067671e-01
4.115370886932427918e-01 7.565656240459581738e-01
4.125776375899081749e-01 6.394130054944930919e-01
4.136181864865735580e-01 5.294316470238022987e-01
4.146587353832389411e-01 4.818662439854399793e-01
4.156992842799043242e-01 4.973758268750607670e-01
4.167398331765697073e-01 5.869734812709346272e-01
4.177803820732350903e-01 7.260310388089656897e-01
4.188209309699004734e-01 6.401659098076102339e-01
4.198614798665658565e-01 6.975204205315144179e-01
4.209020287632312396e-01 7.572217608002915767e-01
4.219425776598966227e-01 7.485385009232672360e-01
4.229831265565620058e-01 5.826347031833734036e-01
4.240236754532273888e-01 5.846993821693864390e-01
4.250642243498927719e-01 4.664817409537356241e-01
4.261047732465581550e-01 2.601773045785371608e-01
4.271453221432235381e-01 3.120356715562735417e-01
4.281858710398889212e-01 3.368815360230499323e-01
4.292264199365543043e-01 2.849555662922540478e-01
4.302669688332196873e-01 4.790463870054821882e-01
4.313075177298850704e-01 5.761551510446452085e-01
4.323480666265504535e-01 6.399989472426739212e-01
4.333886155232158366e-01 5.818550519711749303e-01
4.344291644198812197e-01 4.852086162303024253e-01
