# q (1/Angstrom), Intensity (arb)
2.029070354705860696e-02 1.061211885202041572e+02
2.133125244372399004e-02 8.936056506353193640e+01
2.237180134038937659e-02 7.630112691019405702e+01
2.341235023705475968e-02 6.312145512176121542e+01
2.445289913372014276e-02 5.480978435346722222e+01
2.549344803038552584e-02 4.655309045005165558e+01
2.653399692705091240e-02 4.194688612824216989e+01
2.757454582371629548e-02 3.708806289290824054e+01
2.861509472038167856e-02 3.179289373432615662e+01
2.965564361704706164e-02 3.075489115075127700e+01
3.069619251371244473e-02 2.781040519501956965e+01
3.173674141037782781e-02 2.672466477511952121e+01
3.277729030704321089e-02 2.450912795143023004e+01
3.381783920370859398e-02 2.214112677497237769e+01
3.485838810037397706e-02 2.239031641289125929e+01
3.589893699703936014e-02 2.140246097109956480e+01
3.693948589370474322e-02 1.991211206390703836e+01
3.798003479037012631e-02 1.867962063574282183e+01
3.902058368703550939e-02 1.865834733998352846e+01
4.006113258370089247e-02 1.764407497422406124e+01
4.110168148036627556e-02 1.660190559923129427e+01
4.214223037703165864e-02 1.664291914330748767e+01
4.318277927369704866e-02 1.637250808521677925e+01
4.422332817036243174e-02 1.616720701802459104e+01
4.526387706702781483e-02 1.615327315813367903e+01
4.630442596369319791e-02 1.552554563780319796e+01
4.734497486035858099e-02 1.559275996322406144e+01
4.838552375702396408e-02 1.436751955277274106e+01
4.942607265368934716e-02 1.392195641942073081e+01
5.046662155035473024e-02 1.441910426360809794e+01
5.150717044702011332e-02 1.402166356991446605e+01
5.254771934368549641e-02 1.442795142051847535e+01
5.358826824035087949e-02 1.583960767814930648e+01
5.462881713701626257e-02 1.651805495711612792e+01
5.566936603368164566e-02 1.621443463394953000e+01
5.670991493034702874e-02 1.714401436916205057e+01
5.775046382701241182e-02 1.835860174159654434e+01
5.879101272367779490e-02 1.815568515971281016e+01
5.983156162034317799e-02 1.915406478612930385e+01
6.087211051700856107e-02 2.085293056049451366e+01
6.191265941367394415e-02 2.274683492158730758e+01
6.295320831033933417e-02 2.432595743123319210e+01
6.399375720700471726e-02 2.575184732591510084e+01
6.503430610367010034e-02 2.832591309454971196e+01
6.607485500033548342e-02 3.081735613243915139e+01
6.711540389700086651e-02 3.282790885450405938e+01
6.815595279366624959e-02 3.643580361703051551e+01
6.919650169033163267e-02 3.984519229762807413e+01
7.023705058699701576e-02 4.501232466866535731e+01
7.127759948366239884e-02 5.087246453699325599e+01
7.231814838032778192e-02 6.180345417206467573e+01
7.335869727699316500e-02 8.541478541890407428e+01
7.439924617365854809e-02 1.443418305328917199e+02
7.543979507032393117e-02 2.442513931470170405e+02
7.648034396698931425e-02 3.457835191251700735e+02
7.752089286365469734e-02 4.591545739500692207e+02
7.856144176032008042e-02 7.132352732164359850e+02
7.960199065698546350e-02 1.124458568359802712e+03
8.064253955365084658e-02 1.275621147213412087e+03
8.168308845031622967e-02 9.217795893664309688e+02
8.272363734698161275e-02 5.296498958117517759e+02
8.376418624364699583e-02 3.479397508319354415e+02
8.480473514031239279e-02 2.707710216056591435e+02
8.584528403697777588e-02 2.222937548083642696e+02
8.688583293364315896e-02 1.861514718902932941e+02
8.792638183030854204e-02 1.596161659726631683e+02
8.896693072697392513e-02 1.404538349266014734e+02
9.000747962363930821e-02 1.328191022482113794e+02
9.104802852030469129e-02 1.383114062849390393e+02
9.208857741697007437e-02 1.457026182556217577e+02
9.312912631363545746e-02 1.289281487024093167e+02
9.416967521030084054e-02 8.462899190253632753e+01
9.521022410696622362e-02 4.656426297861959540e+01
9.625077300363160671e-02 2.722147067561846967e+01
9.729132190029698979e-02 1.694560878188821818e+01
9.833187079696237287e-02 1.160054946343312565e+01
9.937241969362775595e-02 9.090954564102844415e+00
1.004129685902931390e-01 7.091830620956280029e+00
1.014535174869585221e-01 5.135563727362644215e+00
1.024940663836239052e-01 4.610600552494190651e+00
1.035346152802892883e-01 3.527534034761558246e+00
1.045751641769546714e-01 2.837629211546861541e+00
1.056157130736200545e-01 3.043116332942588542e+00
1.066562619702854375e-01 2.674423945039514194e+00
1.076968108669508206e-01 1.934685864090191387e+00
1.087373597636162037e-01 1.610300928403724186e+00
1.097779086602815868e-01 1.761559611650682200e+00
1.108184575569469699e-01 2.110403826293534735e+00
1.118590064536123529e-01 2.202403995781075707e+00
1.128995553502777360e-01 2.193120092772957719e+00
1.139401042469431191e-01 1.943720868188620443e+00
1.149806531436085022e-01 1.908707583859275303e+00
1.160212020402738853e-01 2.075337040037510405e+00
1.170617509369392684e-01 2.386899914616535057e+00
1.181022998336046514e-01 2.264622169941866048e+00
1.191428487302700345e-01 2.686775344492595252e+00
1.201833976269354176e-01 2.834281274588271060e+00
1.212239465236008007e-01 2.762455609900115405e+00
1.222644954202661838e-01 2.846736655012684025e+00
1.233050443169315669e-01 2.670324037301497810e+00
1.243455932135969499e-01 3.938438758148230079e+00
1.253861421102623330e-01 4.882759284068164618e+00
1.264266910069277161e-01 6.303583860744566891e+00
1.274672399035930992e-01 8.410754928466502633e+00
1.285077888002584823e-01 1.381824587991545172e+01
1.295483376969238654e-01 2.643557360398946088e+01
1.305888865935892484e-01 4.094669500690071118e+01
1.316294354902546315e-01 4.330081563484804263e+01
1.326699843869200146e-01 3.136209634918981237e+01
1.337105332835853977e-01 1.905476901284260549e+01
1.347510821802507808e-01 1.279610079049535187e+01
1.357916310769161639e-01 1.024340869415544830e+01
1.368321799735815469e-01 9.162545946233265681e+00
1.378727288702469300e-01 9.171972267556164127e+00
1.389132777669123131e-01 8.715620062776970656e+00
1.399538266635776962e-01 8.520121045584161834e+00
1.409943755602430793e-01 8.431951468383140025e+00
1.420349244569084624e-01 8.262682667493045585e+00
1.430754733535738454e-01 8.142002342999333564e+00
1.441160222502392285e-01 8.230361374776435923e+00
1.451565711469046116e-01 8.938580709048444817e+00
1.461971200435699947e-01 9.509520063041236426e+00
1.472376689402353778e-01 9.866308882730244534e+00
1.482782178369007609e-01 1.140012175118524596e+01
1.493187667335661439e-01 1.420145254020492587e+01
1.503593156302315270e-01 2.055024968468267588e+01
1.513998645268969101e-01 3.503811133937436040e+01
1.524404134235622932e-01 5.658068738229393091e+01
1.534809623202276763e-01 7.456534507461736894e+01
1.545215112168930593e-01 7.032241429143438438e+01
1.555620601135584424e-01 4.938245262985653028e+01
1.566026090102238255e-01 3.084603122122390317e+01
1.576431579068892086e-01 2.179933530352590054e+01
1.586837068035545917e-01 1.941965563639937642e+01
1.597242557002199748e-01 1.959079848849791006e+01
1.607648045968853578e-01 1.875555181260695292e+01
1.618053534935507409e-01 1.483204511791701208e+01
1.628459023902161240e-01 9.330633434848905949e+00
1.638864512868815071e-01 5.668911467850421104e+00
1.649270001835468902e-01 4.024330782469903056e+00
1.659675490802122733e-01 3.019344661098777749e+00
1.670080979768776563e-01 2.296721909297026798e+00
1.680486468735430672e-01 1.736655898569381407e+00
1.690891957702084503e-01 1.385035267940665449e+00
1.701297446668738333e-01 1.126669369490137740e+00
1.711702935635392164e-01 1.250310580063029420e+00
1.722108424602045995e-01 1.253706087087856247e+00
1.732513913568699826e-01 7.656791418591950560e-01
1.742919402535353657e-01 3.600745299485268447e-01
1.753324891502007488e-01 4.225832733724033119e-01
1.763730380468661318e-01 6.007018376924904146e-01
1.774135869435315149e-01 9.193942366360445817e-01
1.784541358401968980e-01 5.030520088024630354e-01
1.794946847368622811e-01 5.461185359628828451e-01
1.805352336335276642e-01 9.563760501495579547e-01
1.815757825301930473e-01 7.943945328054979882e-01
1.826163314268584303e-01 4.775536690565402864e-01
1.836568803235238134e-01 7.096312347908622087e-01
1.846974292201891965e-01 8.927566936598765324e-01
1.857379781168545796e-01 9.192256799336746553e-01
1.867785270135199627e-01 8.693383797924809642e-01
1.878190759101853458e-01 6.038951714914588820e-01
1.888596248068507288e-01 3.914414286786609409e-01
1.899001737035161119e-01 2.046058981491256645e-01
1.909407226001814950e-01 3.529833752705968664e-01
1.919812714968468781e-01 7.183582922823390504e-01
1.930218203935122612e-01 6.456347316946562387e-01
1.940623692901776443e-01 6.607809499999959257e-01
1.951029181868430273e-01 6.868091667452276283e-01
1.961434670835084104e-01 4.782192913404941237e-01
1.971840159801737935e-01 8.100011964765982952e-01
1.982245648768391766e-01 1.043446167793788959e+00
1.992651137735045597e-01 1.100099447956168319e+00
2.003056626701699428e-01 1.451893972986759707e+00
2.013462115668353813e-01 1.792725677933368900e+00
2.023867604635007644e-01 1.859852140464049342e+00
2.034273093601661475e-01 2.190016794361326902e+00
2.044678582568315306e-01 3.043646746486267318e+00
2.055084071534969137e-01 3.371733508977364124e+00
2.065489560501622968e-01 3.778794927090245892e+00
2.075895049468276798e-01 3.631392337061143394e+00
2.086300538434930629e-01 3.067648318168380683e+00
2.096706027401584460e-01 2.074333873376453141e+00
2.107111516368238291e-01 1.842750584470223885e+00
2.117517005334892122e-01 1.487263267211844209e+00
2.127922494301545953e-01 1.295277745511285161e+00
2.138327983268199783e-01 1.555155382020117827e+00
2.148733472234853614e-01 1.252747545852770372e+00
2.159138961201507445e-01 8.283850925323648084e-01
2.169544450168161276e-01 1.153719502664635854e+00
2.179949939134815107e-01 1.015038731734847488e+00
2.190355428101468938e-01 1.150264052138794568e+00
2.200760917068122768e-01 1.536401945445323491e+00
2.211166406034776599e-01 1.615860413780950466e+00
2.221571895001430430e-01 1.619341274580342827e+00
2.231977383968084261e-01 1.811709001974278976e+00
2.242382872934738092e-01 2.567394705414272948e+00
2.252788361901391923e-01 3.340304293023788063e+00
2.263193850868045753e-01 3.830213401711453969e+00
2.273599339834699584e-01 4.294897426047029398e+00
2.284004828801353415e-01 4.153953076291621471e+00
2.294410317768007246e-01 3.155492356773059726e+00
2.304815806734661077e-01 2.644993285564314789e+00
2.315221295701314908e-01 2.304711432038711649e+00
2.325626784667968738e-01 1.873951742420029376e+00
2.336032273634622569e-01 1.689361479838826341e+00
2.346437762601276400e-01 1.615789416734340733e+00
2.356843251567930231e-01 1.633309454000741567e+00
2.367248740534584062e-01 2.145777177521559054e+00
2.377654229501237892e-01 2.536099620366208285e+00
2.388059718467891723e-01 3.024562725638482164e+00
2.398465207434545554e-01 3.456163661639301665e+00
2.408870696401199385e-01 3.459344843367848199e+00
2.419276185367853216e-01 3.315286029560841286e+00
2.429681674334507047e-01 2.526960950255354277e+00
2.440087163301160877e-01 2.079204827512008080e+00
2.450492652267814708e-01 1.577475883251260314e+00
2.460898141234468539e-01 9.867471659174782417e-01
2.471303630201122370e-01 7.328782809570952850e-01
2.481709119167776201e-01 6.283853791589670834e-01
2.492114608134430032e-01 6.393105859025460802e-01
2.502520097101083585e-01 8.022497630859746209e-01
2.512925586067737416e-01 4.779564775744269411e-01
2.523331075034391247e-01 3.828946234053525188e-01
2.533736564001045077e-01 3.272988802063885316e-01
2.544142052967698908e-01 4.815645431959900691e-01
2.554547541934352739e-01 6.908739125011820192e-01
2.564953030901006570e-01 6.008207059922021642e-01
2.575358519867660401e-01 5.429619577089539462e-01
2.585764008834314231e-01 2.847475898526603544e-01
2.596169497800968062e-01 3.695227787539572262e-01
2.606574986767621893e-01 2.497453902570505591e-01
2.616980475734275724e-01 1.020400541692580987e-01
2.627385964700929555e-01 4.728662683706446046e-01
2.637791453667583386e-01 5.470474506474154452e-01
2.648196942634237216e-01 4.196129788534541660e-01
2.658602431600891047e-01 3.920217190787802508e-01
2.669007920567544878e-01 2.456104514427295271e-01
2.679413409534198709e-01 1.932291222490007954e-01
2.689818898500852540e-01 1.938636572458776186e-01
2.700224387467506371e-01 4.064969741668988945e-01
2.710629876434160201e-01 4.493636811612411464e-01
2.721035365400814032e-01 3.229453581389556405e-01
2.731440854367467863e-01 3.593632299669273777e-01
2.741846343334121694e-01 1.634341889001085235e-01
2.752251832300775525e-01 2.263416940592293258e-01
2.762657321267429356e-01 1.901768191256074658e-01
2.773062810234083186e-01 3.233608539814198934e-01
2.783468299200737017e-01 3.276383514891314519e-01
2.793873788167390848e-01 4.207824310611485430e-01
2.804279277134044679e-01 3.703983606607792467e-01
2.814684766100698510e-01 3.338194470685493798e-01
2.825090255067352341e-01 3.335925047598919946e-01
2.835495744034006171e-01 1.463465355503856813e-01
2.845901233000660002e-01 4.280167902129967672e-01
2.856306721967313833e-01 6.196719298106501128e-01
2.866712210933967664e-01 4.400431752519686768e-01
2.877117699900621495e-01 4.358521299577517993e-01
2.887523188867275326e-01 6.655048102488017037e-01
2.897928677833929156e-01 5.087358424617711705e-01
2.908334166800582987e-01 4.486400048619998415e-01
2.918739655767236818e-01 6.641858691461024478e-01
2.929145144733890649e-01 9.589633237002388455e-01
2.939550633700544480e-01 1.002650370132212032e+00
2.949956122667198311e-01 7.400850143471657816e-01
2.960361611633852141e-01 7.443820132460992056e-01
2.970767100600505972e-01 8.114252757775410885e-01
2.981172589567159803e-01 5.337463664067776392e-01
2.991578078533813634e-01 5.684177728605988023e-01
3.001983567500468020e-01 6.664324211298442435e-01
3.012389056467121851e-01 9.319687114942816208e-01
3.022794545433775681e-01 8.646648707564388303e-01
3.033200034400429512e-01 7.088234696441055860e-01
3.043605523367083343e-01 8.383597888625189398e-01
3.054011012333737174e-01 1.067787928870771452e+00
3.064416501300391005e-01 1.026481471621089270e+00
3.074821990267044836e-01 9.944487309020288990e-01
3.085227479233698666e-01 9.065590431772605484e-01
3.095632968200352497e-01 8.742112700579909301e-01
3.106038457167006328e-01 7.465051968165710150e-01
3.116443946133660159e-01 8.123675811261641400e-01
3.126849435100313990e-01 5.834029622563221551e-01
3.137254924066967821e-01 5.438479336087986837e-01
3.147660413033621651e-01 4.277354975144334048e-01
3.158065902000275482e-01 5.333377434280706098e-01
3.168471390966929313e-01 6.615959507439619358e-01
3.178876879933583144e-01 5.088573741757898006e-01
3.189282368900236975e-01 4.804376460314898623e-01
3.199687857866890806e-01 6.083925220468842099e-01
3.210093346833544636e-01 4.138442317048856012e-01
3.220498835800198467e-01 5.967281878275301210e-01
3.230904324766852298e-01 5.398047276245492299e-01
3.241309813733506129e-01 3.074884171578631253e-01
3.251715302700159960e-01 3.209927739258695567e-01
3.262120791666813790e-01 4.052488971436289944e-01
3.272526280633467621e-01 4.337669640980195140e-01
3.282931769600121452e-01 6.325829861354819172e-01
3.293337258566775283e-01 7.252858507099269048e-01
3.303742747533429114e-01 6.591365149723991124e-01
3.314148236500082945e-01 6.061437455607716629e-01
3.324553725466736775e-01 6.854172524537354150e-01
3.334959214433390606e-01 5.501995852648882135e-01
3.345364703400044437e-01 4.151969569220916867e-01
3.355770192366698268e-01 3.092471507328440339e-01
3.366175681333352099e-01 4.459534441211836509e-01
3.376581170300005930e-01 3.491337819097495299e-01
3.386986659266659760e-01 1.224075873032823836e-01
3.397392148233313591e-01 1.711054584283679958e-01
3.407797637199967422e-01 4.670200563938493588e-01
3.418203126166621253e-01 5.713763904594948428e-01
3.428608615133275084e-01 3.232407646174308979e-01
3.439014104099928915e-01 2.951958387343047718e-01
3.449419593066582745e-01 3.331430429053057196e-01
3.459825082033236576e-01 5.451070554787627032e-01
3.470230570999890407e-01 2.550447353758045210e-01
3.480636059966544238e-01 2.672153208340333208e-01
3.491041548933198069e-01 3.411484673565432502e-01
3.501447037899851900e-01 3.628743168789831941e-01
3.511852526866505730e-01 3.976163527701892519e-01
3.522258015833159561e-01 3.221138111896451051e-01
3.532663504799813392e-01 4.180221784629445381e-01
3.543068993766467223e-01 4.766157275181939212e-01
3.553474482733121054e-01 3.400688195966630190e-01
3.563879971699774885e-01 2.561309256639390242e-01
3.574285460666428715e-01 9.308112988414052325e-02
3.584690949633082546e-01 4.205963876407743385e-01
3.595096438599736377e-01 4.840083649907924723e-01
3.605501927566390208e-01 1.164369238929126027e-01
3.615907416533044039e-01 1.235800914639639814e-01
3.626312905499697870e-01 1.890239763027246056e-01
3.636718394466351700e-01 5.826483278981093861e-01
3.647123883433005531e-01 5.692504251979109142e-01
3.657529372399659362e-01 3.674597241192358865e-01
3.667934861366313193e-01 3.902233144981970270e-01
3.678340350332967024e-01 5.103696553940118008e-01
3.688745839299620854e-01 3.427464687752497241e-01
3.699151328266274685e-01 3.271572430927349728e-01
3.709556817232928516e-01 2.069958845119508339e-01
3.719962306199582347e-01 1.375023728284183733e-01
3.730367795166236178e-01 5.059862619767230285e-01
3.740773284132890009e-01 3.771834471108412856e-01
3.751178773099543839e-01 3.415445165460226917e-01
3.761584262066197670e-01 3.237271444974680890e-01
3.771989751032851501e-01 3.412814214297092974e-01
3.782395239999505332e-01 3.819535318301845450e-01
3.792800728966159163e-01 3.040607261257868288e-01
3.803206217932812994e-01 3.803868308135527343e-01
3.813611706899466824e-01 5.353616477361065051e-01
3.824017195866120655e-01 4.195435814014949472e-01
3.834422684832774486e-01 5.598488708415665371e-01
3.844828173799428317e-01 5.386151653027226871e-01
3.855233662766082148e-01 4.276370982387156516e-01
3.865639151732735979e-01 6.682476640551264779e-01
3.876044640699389809e-01 4.293222788770307830e-01
3.886450129666043640e-01 4.259330132260323865e-01
3.896855618632697471e-01 6.419396763653892890e-01
3.907261107599351302e-01 5.323478296918651154e-01
3.917666596566005133e-01 6.155864015991276972e-01
3.928072085532658964e-01 5.847580193183077313e-01
3.938477574499312794e-01 6.069047854079308024e-01
3.948883063465966625e-01 6.388444526354639663e-01
3.959288552432620456e-01 6.258968990130178156e-01
3.969694041399274287e-01 3.778803627564180090e-01
3.980099530365928118e-01 2.635442097452411758e-01
3.990505019332581949e-01 3.344888074235505826e-01
4.000910508299235779e-01 5.267275259411761112e-01
4.011315997265889610e-01 4.366835615414643712e-01
4.021721486232543441e-01 4.877716685664736929e-01
4.032126975199197272e-01 4.693434133681471110e-01
4.042532464165851103e-01 5.979199664558407790e-01
4.052937953132504934e-01 5.579586115306263139e-01
4.063343442099158764e-01 6.353302626606840420e-01
4.073748931065812595e-01 6.387423810673311664e-01
4.084154420032466426e-01 6.161932663030427193e-01
4.094559908999120257e-01 7.101507392817083542e-01
4.104965397965774088e-01 5.365447568204828599e-01
4.115370886932427918e-01 4.834429496514935920e-01
4.125776375899081749e-01 2.614364431066711347e-01
4.136181864865735580e-01 2.766226451949407306e-01
4.146587353832389411e-01 3.371194725456980734e-01
4.156992842799043242e-01 5.059219699575123741e-01
4.167398331765697073e-01 3.687854939547356992e-01
4.177803820732350903e-01 2.315855097714134558e-01
4.188209309699004734e-01 2.004434494251974286e-01
4.198614798665658565e-01 8.030508623746257513e-02
4.209020287632312396e-01 2.718953191846864570e-01
4.219425776598966227e-01 3.112552217013515587e-01
4.229831265565620058e-01 5.715571954347353767e-02
4.240236754532273888e-01 1.147325380442545395e-01
4.250642243498927719e-01 2.224367672328639856e-01
4.261047732465581550e-01 2.400397441951369615e-01
4.271453221432235381e-01 1.856140293109014294e-01
4.281858710398889212e-01 2.902959215367495460e-01
4.292264199365543043e-01 2.509226551421335216e-01
4.302669688332196873e-01 5.454502617121192998e-02
4.313075177298850704e-01 0.000000000000000000e+00
4.323480666265504535e-01 2.597447679522204567e-01
4.333886155232158366e-01 3.208666248517424435e-01
4.344291644198812197e-01 2.505554891231440706e-01
