# q (1/Angstrom), Intensity (arb)
2.029070354705860696e-02 1.006256428750168084e+02
2.133125244372399004e-02 8.561163725555090309e+01
2.237180134038937659e-02 7.299873728534197426e+01
2.341235023705475968e-02 6.574932815339064973e+01
2.445289913372014276e-02 5.822953745496351985e+01
2.549344803038552584e-02 5.131725092547959832e+01
2.653399692705091240e-02 4.417433325311812098e+01
2.757454582371629548e-02 3.844523510361527485e+01
2.861509472038167856e-02 3.480125383850186438e+01
2.965564361704706164e-02 3.159480103962242481e+01
3.069619251371244473e-02 2.966770929534655465e+01
3.173674141037782781e-02 2.796179575626173630e+01
3.277729030704321089e-02 2.552777903225961609e+01
3.381783920370859398e-02 2.235259308507927756e+01
3.485838810037397706e-02 2.293257337202455659e+01
3.589893699703936014e-02 2.212111853471134992e+01
3.693948589370474322e-02 2.062104199738151067e+01
3.798003479037012631e-02 1.975909184236261495e+01
3.902058368703550939e-02 1.892432547862614456e+01
4.006113258370089247e-02 1.667759866095540389e+01
4.110168148036627556e-02 1.612586180604858299e+01
4.214223037703165864e-02 1.772947647304625463e+01
4.318277927369704866e-02 1.797787234812878410e+01
4.422332817036243174e-02 1.722025848566010353e+01
4.526387706702781483e-02 1.607829572011572594e+01
4.630442596369319791e-02 1.567018392271913285e+01
4.734497486035858099e-02 1.538920890244686035e+01
4.838552375702396408e-02 1.584328233785566908e+01
4.942607265368934716e-02 1.592306996596538227e+01
5.046662155035473024e-02 1.579947992234868792e+01
5.150717044702011332e-02 1.460071771316105327e+01
5.254771934368549641e-02 1.490603700537759835e+01
5.358826824035087949e-02 1.598947761286757441e+01
5.462881713701626257e-02 1.653712292497289127e+01
5.566936603368164566e-02 1.668033393296605738e+01
5.670991493034702874e-02 1.696854474647585675e+01
5.775046382701241182e-02 1.777253731893602406e+01
5.879101272367779490e-02 1.838404154250581968e+01
5.983156162034317799e-02 1.955527241664579918e+01
6.087211051700856107e-02 2.030647537907787381e+01
6.191265941367394415e-02 2.161692485174201295e+01
6.295320831033933417e-02 2.350491117190453849e+01
6.399375720700471726e-02 2.573230051385821326e+01
6.503430610367010034e-02 2.820191131919647631e+01
6.607485500033548342e-02 2.973266627611292279e+01
6.711540389700086651e-02 3.216390949584349812e+01
6.815595279366624959e-02 3.559432083115396495e+01
6.919650169033163267e-02 3.960423469966765708e+01
7.023705058699701576e-02 4.362543091678897866e+01
7.127759948366239884e-02 5.024404387637058989e+01
7.231814838032778192e-02 6.108135264477927961e+01
7.335869727699316500e-02 8.623268047382254053e+01
7.439924617365854809e-02 1.450218010860650963e+02
7.543979507032393117e-02 2.447610009267518762e+02
7.648034396698931425e-02 3.468151489819480275e+02
7.752089286365469734e-02 4.610780506604464790e+02
7.856144176032008042e-02 7.114351885337425756e+02
7.960199065698546350e-02 1.122210432560156050e+03
8.064253955365084658e-02 1.269480303369086187e+03
8.168308845031622967e-02 9.186217758541274634e+02
8.272363734698161275e-02 5.302079376156364106e+02
8.376418624364699583e-02 3.485109260005429519e+02
8.480473514031239279e-02 2.688434045227738238e+02
8.584528403697777588e-02 2.207232628381341328e+02
8.688583293364315896e-02 1.858739830607464967e+02
8.792638183030854204e-02 1.589792944643140231e+02
8.896693072697392513e-02 1.402636095713778559e+02
9.000747962363930821e-02 1.331790188693150299e+02
9.104802852030469129e-02 1.386956325831387176e+02
9.208857741697007437e-02 1.460308668745060459e+02
9.312912631363545746e-02 1.289913953152534418e+02
9.416967521030084054e-02 8.429878988363844883e+01
9.521022410696622362e-02 4.563837933534233571e+01
9.625077300363160671e-02 2.651828404403653394e+01
9.729132190029698979e-02 1.746837601677959384e+01
9.833187079696237287e-02 1.237338618842611027e+01
9.937241969362775595e-02 8.833712978764836521e+00
1.004129685902931390e-01 7.119963872836251539e+00
1.014535174869585221e-01 5.996348061288095721e+00
1.024940663836239052e-01 4.806279620350672133e+00
1.035346152802892883e-01 3.878196199638246355e+00
1.045751641769546714e-01 3.199685570256477263e+00
1.056157130736200545e-01 2.811193512713302312e+00
1.066562619702854375e-01 2.703261021260111363e+00
1.076968108669508206e-01 2.352091518892926558e+00
1.087373597636162037e-01 1.991448434839085735e+00
1.097779086602815868e-01 1.828773553752640169e+00
1.108184575569469699e-01 2.135514216923866115e+00
1.118590064536123529e-01 2.040224827781074168e+00
1.128995553502777360e-01 1.672799758272539350e+00
1.139401042469431191e-01 2.040351384495181719e+00
1.149806531436085022e-01 2.381395802303707399e+00
1.160212020402738853e-01 2.160750344371869858e+00
1.170617509369392684e-01 2.205915201991246022e+00
1.181022998336046514e-01 2.126875499361489119e+00
1.191428487302700345e-01 2.335401986934684260e+00
1.201833976269354176e-01 2.624437457797462514e+00
1.212239465236008007e-01 3.215561904314483854e+00
1.222644954202661838e-01 3.752659970601413875e+00
1.233050443169315669e-01 3.365863565972283311e+00
1.243455932135969499e-01 3.629124278328440312e+00
1.253861421102623330e-01 4.833936394151280069e+00
1.264266910069277161e-01 6.041472669958729114e+00
1.274672399035930992e-01 8.242855640508800263e+00
1.285077888002584823e-01 1.386190495323167937e+01
1.295483376969238654e-01 2.591894776750623208e+01
1.305888865935892484e-01 4.007919826150327935e+01
1.316294354902546315e-01 4.274084019605746931e+01
1.326699843869200146e-01 3.123780919099967690e+01
1.337105332835853977e-01 1.920845136857406743e+01
1.347510821802507808e-01 1.279289950776727380e+01
1.357916310769161639e-01 1.004275432158947723e+01
1.368321799735815469e-01 9.168200235049582147e+00
1.378727288702469300e-01 8.500825275826542793e+00
1.389132777669123131e-01 8.500944022209111495e+00
1.399538266635776962e-01 8.578366839303953384e+00
1.409943755602430793e-01 8.335025886034920006e+00
1.420349244569084624e-01 8.057338880510016565e+00
1.430754733535738454e-01 8.259037286667116007e+00
1.441160222502392285e-01 8.578255621117762075e+00
1.451565711469046116e-01 8.838076262501402880e+00
1.461971200435699947e-01 9.279514692709312840e+00
1.472376689402353778e-01 9.985720486530766493e+00
1.482782178369007609e-01 1.159223973576634137e+01
1.493187667335661439e-01 1.474695656850061454e+01
1.503593156302315270e-01 2.149105489481809883e+01
1.513998645268969101e-01 3.532653864519119224e+01
1.524404134235622932e-01 5.695014487570517048e+01
1.534809623202276763e-01 7.519790029097507045e+01
1.545215112168930593e-01 7.142317321594248369e+01
1.555620601135584424e-01 4.977428056370547438e+01
1.566026090102238255e-01 3.093185363726221482e+01
1.576431579068892086e-01 2.195971092639806699e+01
1.586837068035545917e-01 1.962767783019160106e+01
1.597242557002199748e-01 1.973593729529279983e+01
1.607648045968853578e-01 1.897176159255505468e+01
1.618053534935507409e-01 1.496094815687086310e+01
1.628459023902161240e-01 9.450631635905317296e+00
1.638864512868815071e-01 5.627041498148130927e+00
1.649270001835468902e-01 4.243083224721949875e+00
1.659675490802122733e-01 3.131486040934980508e+00
1.670080979768776563e-01 2.552735011280105937e+00
1.680486468735430672e-01 1.889480526814843131e+00
1.690891957702084503e-01 1.745568449037349978e+00
1.701297446668738333e-01 1.965311971832726101e+00
1.711702935635392164e-01 1.510613020624560932e+00
1.722108424602045995e-01 1.042068463209545826e+00
1.732513913568699826e-01 1.544175769091175709e+00
1.742919402535353657e-01 1.501096148089246185e+00
1.753324891502007488e-01 1.300368324767092076e+00
1.763730380468661318e-01 8.887501069203906923e-01
1.774135869435315149e-01 7.431339053223240398e-01
1.784541358401968980e-01 7.953074320404951436e-01
1.794946847368622811e-01 9.032186048917907328e-01
1.805352336335276642e-01 7.824763729925550138e-01
1.815757825301930473e-01 6.606915670305539834e-01
1.826163314268584303e-01 6.809556255335564856e-01
1.836568803235238134e-01 3.087960106409610717e-01
1.846974292201891965e-01 3.149317882147144587e-01
1.857379781168545796e-01 5.869626980931172966e-01
1.867785270135199627e-01 1.066267855386918484e+00
1.878190759101853458e-01 8.345373475435664545e-01
1.888596248068507288e-01 6.211307192595398874e-01
1.899001737035161119e-01 5.094238239826651693e-01
1.909407226001814950e-01 4.609845106707695095e-01
1.919812714968468781e-01 5.204745131958361526e-01
1.930218203935122612e-01 2.392975883428860584e-01
1.940623692901776443e-01 2.226420172716530033e-01
1.951029181868430273e-01 5.437573330063472099e-01
1.961434670835084104e-01 7.657619345492818752e-01
1.971840159801737935e-01 7.092225946269934411e-01
1.982245648768391766e-01 9.703261456934058060e-01
1.992651137735045597e-01 1.132075443246172597e+00
2.003056626701699428e-01 1.541891440515904321e+00
2.013462115668353813e-01 2.022626695616146719e+00
2.023867604635007644e-01 2.186022009336618055e+00
2.034273093601661475e-01 2.555945719270006578e+00
2.044678582568315306e-01 2.814846026499630227e+00
2.055084071534969137e-01 3.199239946915326982e+00
2.065489560501622968e-01 3.625392341607579283e+00
2.075895049468276798e-01 3.849822924453135897e+00
2.086300538434930629e-01 3.351345246059466376e+00
2.096706027401584460e-01 2.455162004000825959e+00
2.107111516368238291e-01 1.878408020150565960e+00
2.117517005334892122e-01 1.467616929670050752e+00
2.127922494301545953e-01 1.432381972307922524e+00
2.138327983268199783e-01 1.726630785360587339e+00
2.148733472234853614e-01 1.259740933700051357e+00
2.159138961201507445e-01 1.519650851428451688e+00
2.169544450168161276e-01 1.352392987352104115e+00
2.179949939134815107e-01 1.132774400653985936e+00
2.190355428101468938e-01 1.131637628612253366e+00
2.200760917068122768e-01 1.464646938345016025e+00
2.211166406034776599e-01 1.588627955923648472e+00
2.221571895001430430e-01 1.912144309282560073e+00
2.231977383968084261e-01 2.317576806274654899e+00
2.242382872934738092e-01 2.535643931855823041e+00
2.252788361901391923e-01 3.435534375867590029e+00
2.263193850868045753e-01 4.223718401689744439e+00
2.273599339834699584e-01 4.654050748018136119e+00
2.284004828801353415e-01 4.573381024408547546e+00
2.294410317768007246e-01 3.679637303179596586e+00
2.304815806734661077e-01 2.656409815625998760e+00
2.315221295701314908e-01 1.936418046620119071e+00
2.325626784667968738e-01 1.805686130642982334e+00
2.336032273634622569e-01 1.833228422470348562e+00
2.346437762601276400e-01 1.780152594915609399e+00
2.356843251567930231e-01 1.822272987051288595e+00
2.367248740534584062e-01 1.918516279786398826e+00
2.377654229501237892e-01 2.221519344930939610e+00
2.388059718467891723e-01 2.712283026200974945e+00
2.398465207434545554e-01 3.633204790873939771e+00
2.408870696401199385e-01 4.269389196497257899e+00
2.419276185367853216e-01 3.905617180827338331e+00
2.429681674334507047e-01 2.641168410769189734e+00
2.440087163301160877e-01 1.634386460931001039e+00
2.450492652267814708e-01 1.230624047328849002e+00
2.460898141234468539e-01 1.061652904505287154e+00
2.471303630201122370e-01 7.267415544019257823e-01
2.481709119167776201e-01 5.543024534058318409e-01
2.492114608134430032e-01 4.461834593097400159e-01
2.502520097101083585e-01 3.719641017603656508e-01
2.512925586067737416e-01 6.657401306745001079e-01
2.523331075034391247e-01 6.859651685396990217e-01
2.533736564001045077e-01 4.236463473843272709e-01
2.544142052967698908e-01 5.693740535549629556e-01
2.554547541934352739e-01 5.265810998079523131e-01
2.564953030901006570e-01 6.912135847998044369e-01
2.575358519867660401e-01 4.278735388465015888e-01
2.585764008834314231e-01 5.297619715643477889e-01
2.596169497800968062e-01 5.845475697740063481e-01
2.606574986767621893e-01 7.652465577278739772e-01
2.616980475734275724e-01 4.934528857945679192e-01
2.627385964700929555e-01 6.388144551140761962e-01
2.637791453667583386e-01 6.775486591354606958e-01
2.648196942634237216e-01 4.293031200410979409e-01
2.658602431600891047e-01 5.191620406917323294e-01
2.669007920567544878e-01 6.290658686869434746e-01
2.679413409534198709e-01 1.612279875331132928e-01
2.689818898500852540e-01 6.506748401864470566e-02
2.700224387467506371e-01 4.910060002328542339e-01
2.710629876434160201e-01 5.429333548943908738e-01
2.721035365400814032e-01 5.228475871204594227e-01
2.731440854367467863e-01 3.610021962716665200e-01
2.741846343334121694e-01 4.118130033400539958e-01
2.752251832300775525e-01 4.987489668191606995e-01
2.762657321267429356e-01 6.770033487997189070e-01
2.773062810234083186e-01 5.611195563784505680e-01
2.783468299200737017e-01 5.678047079125185803e-01
2.793873788167390848e-01 4.522482008225523487e-01
2.804279277134044679e-01 2.935910389844522683e-01
2.814684766100698510e-01 1.213073314168653383e-01
2.825090255067352341e-01 8.132126776150627734e-02
2.835495744034006171e-01 3.533795865743378783e-01
2.845901233000660002e-01 6.233406308790883088e-01
2.856306721967313833e-01 6.503142516456250632e-01
2.866712210933967664e-01 3.562794542125828912e-01
2.877117699900621495e-01 6.058837519824358253e-01
2.887523188867275326e-01 6.333732568850827249e-01
2.897928677833929156e-01 5.122903147480855068e-01
2.908334166800582987e-01 5.950267306104990439e-01
2.918739655767236818e-01 6.303149504701224259e-01
2.929145144733890649e-01 6.968403453967617622e-01
2.939550633700544480e-01 7.599913368484614296e-01
2.949956122667198311e-01 5.336951025634952828e-01
2.960361611633852141e-01 6.676261771938314382e-01
2.970767100600505972e-01 8.181670575316672966e-01
2.981172589567159803e-01 6.433636162461908725e-01
2.991578078533813634e-01 5.899717129752488631e-01
3.001983567500468020e-01 8.661651673807817531e-01
3.012389056467121851e-01 8.030835418998556463e-01
3.022794545433775681e-01 9.504344049731408006e-01
3.033200034400429512e-01 1.244078197008498421e+00
3.043605523367083343e-01 1.245986314901415426e+00
3.054011012333737174e-01 1.097346842745185569e+00
3.064416501300391005e-01 1.023387173513448545e+00
3.074821990267044836e-01 1.136006834098200358e+00
3.085227479233698666e-01 8.963587131105441586e-01
3.095632968200352497e-01 7.612125050464726428e-01
3.106038457167006328e-01 9.214152433946445342e-01
3.116443946133660159e-01 8.186331338372667688e-01
3.126849435100313990e-01 4.613361364331787229e-01
3.137254924066967821e-01 4.902991424582232582e-01
3.147660413033621651e-01 6.286183960617606203e-01
3.158065902000275482e-01 6.086040804706271956e-01
3.168471390966929313e-01 5.711154300555172370e-01
3.178876879933583144e-01 7.477785487678367815e-01
3.189282368900236975e-01 9.155508886299266180e-01
3.199687857866890806e-01 9.411685872683435150e-01
3.210093346833544636e-01 6.059320701722796798e-01
3.220498835800198467e-01 4.245153303484379137e-01
3.230904324766852298e-01 1.928849499757276931e-01
3.241309813733506129e-01 4.175466544819066428e-01
3.251715302700159960e-01 5.701307896641907291e-01
3.262120791666813790e-01 5.063850838095653728e-01
3.272526280633467621e-01 4.689162403649724808e-01
3.282931769600121452e-01 6.668857997465025278e-01
3.293337258566775283e-01 7.852905928940927538e-01
3.303742747533429114e-01 3.884179740805890901e-01
3.314148236500082945e-01 4.006216781221603185e-01
3.324553725466736775e-01 5.543211127076439482e-01
3.334959214433390606e-01 5.420426937394147160e-01
3.345364703400044437e-01 6.692886876701251708e-01
3.355770192366698268e-01 6.304521832809051318e-01
3.366175681333352099e-01 7.252079996637696979e-01
3.376581170300005930e-01 6.075150833479412427e-01
3.386986659266659760e-01 4.342214714348102689e-01
3.397392148233313591e-01 5.188953247863707929e-01
3.407797637199967422e-01 6.854533897557786304e-01
3.418203126166621253e-01 6.066058328210708339e-01
3.428608615133275084e-01 4.006702866861751033e-01
3.439014104099928915e-01 2.475713640002048521e-01
3.449419593066582745e-01 1.422441228533521951e-01
3.459825082033236576e-01 3.779674850039285161e-01
3.470230570999890407e-01 4.949485011514553889e-01
3.480636059966544238e-01 5.661162459778026346e-01
3.491041548933198069e-01 4.120265299540655235e-01
3.501447037899851900e-01 3.944152730876879787e-01
3.511852526866505730e-01 3.452405733461461068e-01
3.522258015833159561e-01 4.000157718147683283e-01
3.532663504799813392e-01 4.287168085255537164e-01
3.543068993766467223e-01 4.077376970616306551e-01
3.553474482733121054e-01 2.396953194390007980e-01
3.563879971699774885e-01 3.055272248398352986e-01
3.574285460666428715e-01 3.705101564366337641e-01
3.584690949633082546e-01 4.108552724493996777e-01
3.595096438599736377e-01 2.754046894674573309e-01
3.605501927566390208e-01 3.526544056568212682e-01
3.615907416533044039e-01 3.599855044317692432e-01
3.626312905499697870e-01 3.267286736209378262e-01
3.636718394466351700e-01 5.616779960792150916e-01
3.647123883433005531e-01 4.498564153157111889e-01
3.657529372399659362e-01 3.210180560525159876e-01
3.667934861366313193e-01 4.715889868484275382e-01
3.678340350332967024e-01 3.129828667049352475e-01
3.688745839299620854e-01 1.507269206288235353e-01
3.699151328266274685e-01 1.774585920609155210e-01
3.709556817232928516e-01 2.916121626719743176e-01
3.719962306199582347e-01 6.452397052392164767e-01
3.730367795166236178e-01 6.398778335998080991e-01
3.740773284132890009e-01 5.040110228272141057e-01
3.751178773099543839e-01 4.422571119269669282e-01
3.761584262066197670e-01 4.367836005130243393e-01
3.771989751032851501e-01 5.472667755086071395e-01
3.782395239999505332e-01 6.525917758471031505e-01
3.792800728966159163e-01 5.708086791879871669e-01
3.803206217932812994e-01 5.706708583359940690e-01
3.813611706899466824e-01 5.280741983434076303e-01
3.824017195866120655e-01 5.877563432053101167e-01
3.834422684832774486e-01 5.143718232899239240e-01
3.844828173799428317e-01 5.976256163485658135e-01
3.855233662766082148e-01 6.535287778406200232e-01
3.865639151732735979e-01 5.708664124483497915e-01
3.876044640699389809e-01 4.104581614605180562e-01
3.886450129666043640e-01 3.700393516502629154e-01
3.896855618632697471e-01 3.696299789260990565e-01
3.907261107599351302e-01 5.363739372798761451e-01
3.917666596566005133e-01 4.612162558234125243e-01
3.928072085532658964e-01 5.562953024090617760e-01
3.938477574499312794e-01 6.445155757972393928e-01
3.948883063465966625e-01 6.904185534690050474e-01
3.959288552432620456e-01 7.201368162694166131e-01
3.969694041399274287e-01 6.290842989248375261e-01
3.980099530365928118e-01 4.526808032944842353e-01
3.990505019332581949e-01 2.938469511694670189e-01
4.000910508299235779e-01 3.341662471897670628e-01
4.011315997265889610e-01 4.062538876763603923e-01
4.021721486232543441e-01 5.177122677123442429e-01
4.032126975199197272e-01 5.717325220448401524e-01
4.042532464165851103e-01 5.333593813021941799e-01
4.052937953132504934e-01 5.381007647237012748e-01
4.063343442099158764e-01 4.674085839244845886e-01
4.073748931065812595e-01 2.876077773561824813e-01
4.084154420032466426e-01 3.419089405898034784e-01
4.094559908999120257e-01 6.486725740493533010e-01
4.104965397965774088e-01 5.224354614745401193e-01
4.115370886932427918e-01 5.001017937676728309e-01
4.125776375899081749e-01 4.502832102718450358e-01
4.136181864865735580e-01 4.096590939646205243e-01
4.146587353832389411e-01 5.787523936258587298e-01
4.156992842799043242e-01 7.882647195359062664e-01
4.167398331765697073e-01 5.350983389563843673e-01
4.177803820732350903e-01 3.216337000438400651e-01
4.188209309699004734e-01 1.265502244179472768e-01
4.198614798665658565e-01 3.244883659411641474e-01
4.209020287632312396e-01 4.041534352133062669e-01
4.219425776598966227e-01 1.477059436655068225e-01
4.229831265565620058e-01 0.000000000000000000e+00
4.240236754532273888e-01 3.051595604979411291e-01
4.250642243498927719e-01 1.945563699407060199e-01
4.261047732465581550e-01 2.363469781229241562e-01
4.271453221432235381e-01 3.301396239446603431e-01
4.281858710398889212e-01 2.337694111161781052e-01
4.292264199365543043e-01 2.888484899439056619e-01
4.302669688332196873e-01 3.757085252315093271e-01
4.313075177298850704e-01 4.633999612418051584e-01
4.323480666265504535e-01 4.136036131858027431e-01
4.333886155232158366e-01 1.883209288972764739e-01
4.344291644198812197e-01 1.301222085376032567e-01
