# q (1/Angstrom), Intensity (arb)
2.029070354705860696e-02 1.059192279565995136e+02
2.133125244372399004e-02 8.834010643896215242e+01
2.237180134038937659e-02 7.354333597319993032e+01
2.341235023705475968e-02 6.340587195830684664e+01
2.445289913372014276e-02 5.575346557761733379e+01
2.549344803038552584e-02 4.857391126902636813e+01
2.653399692705091240e-02 4.278405098725161793e+01
2.757454582371629548e-02 3.950868882781681179e+01
2.861509472038167856e-02 3.636205549370836820e+01
2.965564361704706164e-02 3.299016516677231436e+01
3.069619251371244473e-02 3.049783672370435283e+01
3.173674141037782781e-02 2.687825697859392449e+01
3.277729030704321089e-02 2.314364000591754689e+01
3.381783920370859398e-02 2.288637587161200315e+01
3.485838810037397706e-02 2.282717399420236148e+01
3.589893699703936014e-02 2.110453921962921697e+01
3.693948589370474322e-02 2.076660639151931775e+01
3.798003479037012631e-02 2.031724359134685187e+01
3.902058368703550939e-02 1.863258946518347159e+01
4.006113258370089247e-02 1.820612620471682419e+01
4.110168148036627556e-02 1.784755646461000822e+01
4.214223037703165864e-02 1.771538499941641476e+01
4.318277927369704866e-02 1.738173187358187732e+01
4.422332817036243174e-02 1.561276946250209363e+01
4.526387706702781483e-02 1.522259195861616377e+01
4.630442596369319791e-02 1.549089469702974498e+01
4.734497486035858099e-02 1.546844189747568521e+01
4.838552375702396408e-02 1.538359445542906201e+01
4.942607265368934716e-02 1.502317625623106778e+01
5.046662155035473024e-02 1.520613303291342788e+01
5.150717044702011332e-02 1.534606290787857574e+01
5.254771934368549641e-02 1.555786237953853401e+01
5.358826824035087949e-02 1.626550133390262687e+01
5.462881713701626257e-02 1.709387083069146485e+01
5.566936603368164566e-02 1.751724638237955389e+01
5.670991493034702874e-02 1.752091976038431653e+01
5.775046382701241182e-02 1.826594113341565162e+01
5.879101272367779490e-02 1.930019981249829186e+01
5.983156162034317799e-02 2.015868267774034450e+01
6.087211051700856107e-02 2.078082774387455345e+01
6.191265941367394415e-02 2.149014668758604785e+01
6.295320831033933417e-02 2.333560018353543342e+01
6.399375720700471726e-02 2.601295928254204171e+01
6.503430610367010034e-02 2.910931091878758536e+01
6.607485500033548342e-02 3.165669190205827732e+01
6.711540389700086651e-02 3.449950720084591893e+01
6.815595279366624959e-02 3.714545045403940549e+01
6.919650169033163267e-02 4.039002877533737745e+01
7.023705058699701576e-02 4.437796417485778022e+01
7.127759948366239884e-02 4.979071646326121936e+01
7.231814838032778192e-02 6.053937318966644199e+01
7.335869727699316500e-02 8.373846887024913599e+01
7.439924617365854809e-02 1.388746504487147888e+02
7.543979507032393117e-02 2.385656415123344232e+02
7.648034396698931425e-02 3.438044751743979646e+02
7.752089286365469734e-02 4.550360146228959479e+02
7.856144176032008042e-02 6.948580699210343710e+02
7.960199065698546350e-02 1.114861083969377887e+03
8.064253955365084658e-02 1.317810799481719414e+03
8.168308845031622967e-02 9.924454453148953235e+02
8.272363734698161275e-02 5.750038752192353968e+02
8.376418624364699583e-02 3.725968735794067470e+02
8.480473514031239279e-02 2.846412569018253862e+02
8.584528403697777588e-02 2.337703717083003312e+02
8.688583293364315896e-02 1.960680553451282151e+02
8.792638183030854204e-02 1.680039583324012256e+02
8.896693072697392513e-02 1.470961034710422837e+02
9.000747962363930821e-02 1.376274627686492522e+02
9.104802852030469129e-02 1.420088812051398861e+02
9.208857741697007437e-02 1.514960226628860198e+02
9.312912631363545746e-02 1.383116497107722864e+02
9.416967521030084054e-02 9.445858017850163435e+01
9.521022410696622362e-02 5.183528571572652055e+01
9.625077300363160671e-02 2.933760631070052938e+01
9.729132190029698979e-02 1.892454186065448596e+01
9.833187079696237287e-02 1.389342250409269042e+01
9.937241969362775595e-02 1.064834931062122791e+01
1.004129685902931390e-01 8.017896552266776666e+00
1.014535174869585221e-01 6.227065718415005335e+00
1.024940663836239052e-01 5.450372505947889579e+00
1.035346152802892883e-01 4.129232895413991855e+00
1.045751641769546714e-01 3.169731749177742586e+00
1.056157130736200545e-01 2.551415822285065360e+00
1.066562619702854375e-01 2.606368486679521368e+00
1.076968108669508206e-01 2.220347800739169486e+00
1.087373597636162037e-01 1.899138638077829455e+00
1.097779086602815868e-01 1.800034381347039414e+00
1.108184575569469699e-01 1.871180144280714330e+00
1.118590064536123529e-01 1.671948652782873523e+00
1.128995553502777360e-01 1.426257679996453476e+00
1.139401042469431191e-01 2.036255389976197705e+00
1.149806531436085022e-01 2.478029205281366387e+00
1.160212020402738853e-01 2.656732952455818975e+00
1.170617509369392684e-01 2.664174948694601142e+00
1.181022998336046514e-01 2.318570267812283703e+00
1.191428487302700345e-01 2.601488874581349364e+00
1.201833976269354176e-01 2.712295130730680626e+00
1.212239465236008007e-01 2.678973926383669379e+00
1.222644954202661838e-01 2.781193199483318779e+00
1.233050443169315669e-01 2.839344728412854124e+00
1.243455932135969499e-01 3.569580362801154649e+00
1.253861421102623330e-01 4.127282456430570790e+00
1.264266910069277161e-01 5.271667680627381003e+00
1.274672399035930992e-01 7.703973819584170712e+00
1.285077888002584823e-01 1.265906709322002399e+01
1.295483376969238654e-01 2.326433024457593746e+01
1.305888865935892484e-01 3.776017391452867855e+01
1.316294354902546315e-01 4.344537039869620543e+01
1.326699843869200146e-01 3.313192573970538746e+01
1.337105332835853977e-01 2.019353125330038523e+01
1.347510821802507808e-01 1.365161882603318588e+01
1.357916310769161639e-01 1.129777879200221236e+01
1.368321799735815469e-01 9.914519857692695837e+00
1.378727288702469300e-01 8.929045547933803562e+00
1.389132777669123131e-01 8.612335409765130123e+00
1.399538266635776962e-01 8.203126356559479859e+00
1.409943755602430793e-01 8.604632398768352175e+00
1.420349244569084624e-01 8.843264379401560404e+00
1.430754733535738454e-01 8.701539774305288688e+00
1.441160222502392285e-01 8.439546482634490587e+00
1.451565711469046116e-01 8.320672079399926702e+00
1.461971200435699947e-01 8.506863343422253365e+00
1.472376689402353778e-01 9.851398396741082308e+00
1.482782178369007609e-01 1.127334691099704855e+01
1.493187667335661439e-01 1.458039515508949080e+01
1.503593156302315270e-01 2.118713311764815188e+01
1.513998645268969101e-01 3.321656873687437184e+01
1.524404134235622932e-01 5.289545740410846975e+01
1.534809623202276763e-01 7.340488207543089061e+01
1.545215112168930593e-01 7.447123789815498185e+01
1.555620601135584424e-01 5.467249697638839478e+01
1.566026090102238255e-01 3.467315553573937592e+01
1.576431579068892086e-01 2.384880050049128641e+01
1.586837068035545917e-01 2.036724857455292437e+01
1.597242557002199748e-01 2.056391860965738516e+01
1.607648045968853578e-01 2.056736779629073197e+01
1.618053534935507409e-01 1.660458582925281945e+01
1.628459023902161240e-01 1.086361196622041092e+01
1.638864512868815071e-01 6.476286495238099405e+00
1.649270001835468902e-01 4.347566282996822906e+00
1.659675490802122733e-01 3.320573137612996106e+00
1.670080979768776563e-01 2.775577999727559586e+00
1.680486468735430672e-01 2.375545889823271750e+00
1.690891957702084503e-01 1.978133291749578859e+00
1.701297446668738333e-01 1.717799374938962842e+00
1.711702935635392164e-01 1.371614690041454310e+00
1.722108424602045995e-01 1.298472267827577298e+00
1.732513913568699826e-01 1.150334597113776169e+00
1.742919402535353657e-01 1.285944287265380126e+00
1.753324891502007488e-01 1.025727078264814907e+00
1.763730380468661318e-01 9.632354377973157966e-01
1.774135869435315149e-01 1.153209260875584619e+00
1.784541358401968980e-01 1.075376613771432233e+00
1.794946847368622811e-01 1.222736488815783673e+00
1.805352336335276642e-01 9.882829488707898236e-01
1.815757825301930473e-01 8.541845093738729133e-01
1.826163314268584303e-01 6.789897762464107700e-01
1.836568803235238134e-01 8.693052738197977192e-01
1.846974292201891965e-01 6.775299545805850698e-01
1.857379781168545796e-01 5.482956339757123487e-01
1.867785270135199627e-01 6.836507847111761293e-01
1.878190759101853458e-01 7.514376045294959283e-01
1.888596248068507288e-01 7.037022113840549764e-01
1.899001737035161119e-01 8.488741464779998580e-01
1.909407226001814950e-01 9.841609412566647563e-01
1.919812714968468781e-01 8.097735295755370544e-01
1.930218203935122612e-01 5.867413701990535913e-01
1.940623692901776443e-01 7.499365580665440234e-01
1.951029181868430273e-01 6.177660110669478399e-01
1.961434670835084104e-01 7.657781457260384173e-01
1.971840159801737935e-01 8.719580926869312520e-01
1.982245648768391766e-01 9.028606649973553999e-01
1.992651137735045597e-01 1.059894241156253969e+00
2.003056626701699428e-01 1.404461186839327524e+00
2.013462115668353813e-01 1.928871252990486340e+00
2.023867604635007644e-01 2.497648723562907236e+00
2.034273093601661475e-01 2.707942930613324251e+00
2.044678582568315306e-01 2.805370915940955001e+00
2.055084071534969137e-01 3.243991007916648073e+00
2.065489560501622968e-01 4.010559257568793612e+00
2.075895049468276798e-01 4.158619228817432401e+00
2.086300538434930629e-01 3.447109368093435933e+00
2.096706027401584460e-01 2.739956182264354112e+00
2.107111516368238291e-01 2.075001613716214166e+00
2.117517005334892122e-01 1.504522661600088185e+00
2.127922494301545953e-01 1.230790681773711981e+00
2.138327983268199783e-01 1.427393798122860602e+00
2.148733472234853614e-01 1.384457607331256668e+00
2.159138961201507445e-01 9.820125603900038413e-01
2.169544450168161276e-01 1.024735942268414135e+00
2.179949939134815107e-01 1.397266994293566711e+00
2.190355428101468938e-01 1.421023972420464077e+00
2.200760917068122768e-01 1.410224040305291027e+00
2.211166406034776599e-01 1.743628026525794183e+00
2.221571895001430430e-01 1.786502179973300741e+00
2.231977383968084261e-01 1.708066906269785079e+00
2.242382872934738092e-01 2.265455026251320447e+00
2.252788361901391923e-01 2.972092138920391591e+00
2.263193850868045753e-01 3.921217386115934289e+00
2.273599339834699584e-01 4.436678682006586882e+00
2.284004828801353415e-01 4.193858431865049141e+00
2.294410317768007246e-01 3.440159170187691018e+00
2.304815806734661077e-01 2.599756842158992498e+00
2.315221295701314908e-01 2.192230388265254959e+00
2.325626784667968738e-01 1.961311368294744284e+00
2.336032273634622569e-01 2.162235038450852187e+00
2.346437762601276400e-01 1.882658751205941172e+00
2.356843251567930231e-01 1.524586807953959067e+00
2.367248740534584062e-01 1.718074495994144968e+00
2.377654229501237892e-01 2.274420798890837148e+00
2.388059718467891723e-01 2.989622187863595570e+00
2.398465207434545554e-01 3.609027617868523663e+00
2.408870696401199385e-01 4.054311000355568240e+00
2.419276185367853216e-01 4.170400359566190929e+00
2.429681674334507047e-01 3.321721784168651936e+00
2.440087163301160877e-01 1.985162778065753031e+00
2.450492652267814708e-01 1.065832839390168374e+00
2.460898141234468539e-01 1.090994890021054431e+00
2.471303630201122370e-01 9.835841046796502951e-01
2.481709119167776201e-01 8.065743153956077549e-01
2.492114608134430032e-01 5.203240688368104827e-01
2.502520097101083585e-01 5.876012905751402116e-01
2.512925586067737416e-01 5.435077485901658179e-01
2.523331075034391247e-01 6.183830934056473438e-01
2.533736564001045077e-01 5.478512493799705396e-01
2.544142052967698908e-01 4.483182970940440271e-01
2.554547541934352739e-01 3.532781544011776020e-01
2.564953030901006570e-01 5.823194778650240266e-01
2.575358519867660401e-01 2.631386591113091811e-01
2.585764008834314231e-01 3.480347564686674389e-01
2.596169497800968062e-01 4.366346496789077491e-01
2.606574986767621893e-01 4.929965419772699420e-01
2.616980475734275724e-01 5.874962579872722301e-01
2.627385964700929555e-01 7.357897456061834873e-01
2.637791453667583386e-01 4.774346555087483068e-01
2.648196942634237216e-01 5.044806533298249462e-01
2.658602431600891047e-01 5.824027934912692217e-01
2.669007920567544878e-01 4.406245221675639812e-01
2.679413409534198709e-01 2.674954848048827216e-01
2.689818898500852540e-01 5.503071256113365450e-01
2.700224387467506371e-01 7.944152152948582568e-01
2.710629876434160201e-01 6.415782430160028582e-01
2.721035365400814032e-01 2.850977791271382955e-01
2.731440854367467863e-01 1.857124627345037027e-01
2.741846343334121694e-01 2.344372097488829354e-01
2.752251832300775525e-01 4.595767031571682537e-01
2.762657321267429356e-01 2.889228599714179779e-01
2.773062810234083186e-01 5.191673580335276483e-01
2.783468299200737017e-01 7.997248172824349410e-01
2.793873788167390848e-01 8.661440999797171969e-01
2.804279277134044679e-01 4.605079211736509137e-01
2.814684766100698510e-01 5.948775513764594791e-01
2.825090255067352341e-01 3.583438042909463661e-01
2.835495744034006171e-01 2.570973133326184268e-01
2.845901233000660002e-01 3.234808556856449968e-01
2.856306721967313833e-01 3.354203123201315861e-01
2.866712210933967664e-01 2.673491165796804125e-01
2.877117699900621495e-01 4.751917640777776342e-01
2.887523188867275326e-01 5.602317011997826057e-01
2.897928677833929156e-01 5.336643717865463543e-01
2.908334166800582987e-01 7.687457377526065727e-01
2.918739655767236818e-01 8.705684048679884768e-01
2.929145144733890649e-01 8.235533799667216215e-01
2.939550633700544480e-01 8.428001710455852447e-01
2.949956122667198311e-01 5.862868908046046101e-01
2.960361611633852141e-01 5.123354236875883316e-01
2.970767100600505972e-01 5.220989712011459005e-01
2.981172589567159803e-01 7.255743816092774523e-01
2.991578078533813634e-01 8.135240236949385917e-01
3.001983567500468020e-01 9.065468213134550979e-01
3.012389056467121851e-01 8.075958605100375109e-01
3.022794545433775681e-01 7.864344906335496432e-01
3.033200034400429512e-01 1.054340284293562746e+00
3.043605523367083343e-01 1.141979998381618344e+00
3.054011012333737174e-01 1.019357465227447079e+00
3.064416501300391005e-01 9.762873074337896639e-01
3.074821990267044836e-01 1.104519241555031783e+00
3.085227479233698666e-01 1.087801938513301536e+00
3.095632968200352497e-01 1.000458077211376917e+00
3.106038457167006328e-01 8.368982489416012527e-01
3.116443946133660159e-01 6.919787741884348975e-01
3.126849435100313990e-01 7.306634763163195601e-01
3.137254924066967821e-01 7.426509704353598806e-01
3.147660413033621651e-01 5.353963900804856735e-01
3.158065902000275482e-01 6.188987855591996379e-01
3.168471390966929313e-01 6.836913854870054763e-01
3.178876879933583144e-01 5.477308283680315526e-01
3.189282368900236975e-01 5.526819284573605273e-01
3.199687857866890806e-01 5.327240557279857569e-01
3.210093346833544636e-01 3.702838267228472091e-01
3.220498835800198467e-01 3.585849718604023906e-01
3.230904324766852298e-01 5.312956671642155015e-01
3.241309813733506129e-01 6.395617746324262498e-01
3.251715302700159960e-01 6.433244455465398914e-01
3.262120791666813790e-01 6.251590465732697055e-01
3.272526280633467621e-01 5.858350063320152401e-01
3.282931769600121452e-01 5.073927829433628744e-01
3.293337258566775283e-01 5.222628851449151455e-01
3.303742747533429114e-01 7.452000748840177380e-01
3.314148236500082945e-01 6.519037369402376214e-01
3.324553725466736775e-01 8.965734439290820035e-01
3.334959214433390606e-01 8.112273014125328530e-01
3.345364703400044437e-01 5.256675929363083810e-01
3.355770192366698268e-01 6.118795703536399344e-01
3.366175681333352099e-01 5.471137496309346204e-01
3.376581170300005930e-01 5.154994696139496568e-01
3.386986659266659760e-01 5.747921255053682899e-01
3.397392148233313591e-01 4.948150996703120086e-01
3.407797637199967422e-01 3.581038867453969488e-01
3.418203126166621253e-01 5.095649850885379806e-01
3.428608615133275084e-01 6.207334124298036215e-01
3.439014104099928915e-01 4.124970844791278068e-01
3.449419593066582745e-01 3.801915311548178522e-01
3.459825082033236576e-01 5.537000625744212812e-01
3.470230570999890407e-01 5.866110915276934179e-01
3.480636059966544238e-01 4.536554872130444949e-01
3.491041548933198069e-01 4.014578677050018030e-01
3.501447037899851900e-01 2.172458849738916342e-01
3.511852526866505730e-01 3.000920924073966489e-01
3.522258015833159561e-01 2.649836925735797877e-01
3.532663504799813392e-01 2.161696198053881801e-01
3.543068993766467223e-01 4.583549445922159293e-01
3.553474482733121054e-01 3.863427190058033034e-01
3.563879971699774885e-01 3.521494433498553178e-01
3.574285460666428715e-01 2.746943999454423135e-01
3.584690949633082546e-01 1.477354752472983535e-01
3.595096438599736377e-01 2.257480016630317721e-01
3.605501927566390208e-01 4.576399515496127890e-01
3.615907416533044039e-01 5.824732787249047306e-01
3.626312905499697870e-01 3.431130954313168502e-01
3.636718394466351700e-01 2.365346736614455381e-01
3.647123883433005531e-01 2.686977893491473424e-01
3.657529372399659362e-01 2.104564892655496067e-01
3.667934861366313193e-01 4.019986567290523283e-01
3.678340350332967024e-01 3.278759668066477673e-01
3.688745839299620854e-01 3.810205741502770138e-01
3.699151328266274685e-01 4.933493088911973246e-01
3.709556817232928516e-01 5.211437978816988448e-01
3.719962306199582347e-01 1.219076345778695725e-01
3.730367795166236178e-01 4.230124554992613639e-01
3.740773284132890009e-01 5.986684844171961117e-01
3.751178773099543839e-01 4.581312918184785588e-01
3.761584262066197670e-01 2.552475124255977335e-01
3.771989751032851501e-01 3.038427342226732719e-01
3.782395239999505332e-01 3.711374225228603052e-01
3.792800728966159163e-01 5.351377696783323756e-01
3.803206217932812994e-01 5.701181941746327198e-01
3.813611706899466824e-01 6.375996240131662773e-01
3.824017195866120655e-01 5.364416840754735460e-01
3.834422684832774486e-01 5.462453067787933492e-01
3.844828173799428317e-01 6.079974908959826507e-01
3.855233662766082148e-01 4.021971490554960837e-01
3.865639151732735979e-01 5.200291076198446660e-01
3.876044640699389809e-01 5.943631180309161266e-01
3.886450129666043640e-01 5.229489064690362454e-01
3.896855618632697471e-01 2.675893683629055886e-01
3.907261107599351302e-01 4.354770670670582433e-01
3.917666596566005133e-01 5.893282444759542216e-01
3.928072085532658964e-01 6.561923655258397048e-01
3.938477574499312794e-01 6.497490365350344632e-01
3.948883063465966625e-01 8.279752406496605488e-01
3.959288552432620456e-01 9.199809779785894648e-01
3.969694041399274287e-01 5.718288149746157956e-01
3.980099530365928118e-01 4.739332913310789763e-01
3.990505019332581949e-01 5.989530362743842318e-01
4.000910508299235779e-01 5.139695344207204641e-01
4.011315997265889610e-01 4.673787859611984175e-01
4.021721486232543441e-01 4.348796670634627048e-01
4.032126975199197272e-01 6.150320998836420472e-01
4.042532464165851103e-01 4.793720624434421040e-01
4.052937953132504934e-01 5.795163624562924554e-01
4.063343442099158764e-01 7.396324750994054398e-01
4.073748931065812595e-01 6.547992629887353644e-01
4.084154420032466426e-01 5.568864713784940079e-01
4.094559908999120257e-01 5.085650480838168619e-01
4.104965397965774088e-01 4.384799021651204498e-01
4.115370886932427918e-01 3.254786643691076620e-01
4.125776375899081749e-01 5.371985263110161668e-01
4.136181864865735580e-01 5.293621423069652110e-01
4.146587353832389411e-01 4.767537755834183599e-01
4.156992842799043242e-01 4.345829138110346435e-01
4.167398331765697073e-01 4.692852707070223062e-01
4.177803820732350903e-01 5.762878840576135531e-01
4.188209309699004734e-01 5.533656587947710648e-01
4.198614798665658565e-01 4.001009827606303304e-01
4.209020287632312396e-01 3.371493555768552142e-01
4.219425776598966227e-01 5.358003224842349255e-01
4.229831265565620058e-01 6.879741157345513614e-01
4.240236754532273888e-01 4.320192848609600844e-01
4.250642243498927719e-01 5.138674042548778687e-01
4.261047732465581550e-01 5.302660456980383685e-01
4.271453221432235381e-01 3.513229033679223789e-01
4.281858710398889212e-01 1.995513836286448850e-01
4.292264199365543043e-01 0.000000000000000000e+00
4.302669688332196873e-01 2.676202756128702731e-01
4.313075177298850704e-01 3.134584427527506989e-01
4.323480666265504535e-01 3.275435044411096897e-01
4.333886155232158366e-01 5.215737589477207337e-01
4.344291644198812197e-01 3.162369058484522100e-01
