# q (1/Angstrom), Intensity (arb)
2.029070354705860696e-02 1.543875110877592078e+03
2.133125244372399004e-02 1.542956010486015657e+03
2.237180134038937659e-02 1.545808559900342061e+03
2.341235023705475968e-02 1.531955409658869257e+03
2.445289913372014276e-02 1.515934263510111577e+03
2.549344803038552584e-02 1.506259454211673983e+03
2.653399692705091240e-02 1.489273001972364455e+03
2.757454582371629548e-02 1.474660889460498765e+03
2.861509472038167856e-02 1.457939204268129743e+03
2.965564361704706164e-02 1.440414161016816934e+03
3.069619251371244473e-02 1.424372083391431943e+03
3.173674141037782781e-02 1.399166451575177916e+03
3.277729030704321089e-02 1.380905167953038472e+03
3.381783920370859398e-02 1.363419726606638505e+03
3.485838810037397706e-02 1.344139324358302929e+03
3.589893699703936014e-02 1.317299541869542054e+03
3.693948589370474322e-02 1.295230690516632421e+03
3.798003479037012631e-02 1.278537266164736593e+03
3.902058368703550939e-02 1.257019903822079641e+03
4.006113258370089247e-02 1.227991770911186222e+03
4.110168148036627556e-02 1.202970601706118941e+03
4.214223037703165864e-02 1.177522627688651255e+03
4.318277927369704866e-02 1.152924609031805403e+03
4.422332817036243174e-02 1.129982821389386572e+03
4.526387706702781483e-02 1.104486342669707483e+03
4.630442596369319791e-02 1.078490047509663555e+03
4.734497486035858099e-02 1.053120604168622322e+03
4.838552375702396408e-02 1.026983269174736733e+03
4.942607265368934716e-02 9.999225117818090212e+02
5.046662155035473024e-02 9.742951597560495429e+02
5.150717044702011332e-02 9.502042528308481906e+02
5.254771934368549641e-02 9.251952042928365927e+02
5.358826824035087949e-02 9.002942257701781728e+02
5.462881713701626257e-02 8.794176651677620384e+02
5.566936603368164566e-02 8.523723142096228003e+02
5.670991493034702874e-02 8.238764365702504620e+02
5.775046382701241182e-02 7.994220476496982428e+02
5.879101272367779490e-02 7.746551264707120481e+02
5.983156162034317799e-02 7.488115556239845318e+02
6.087211051700856107e-02 7.259803997307892587e+02
6.191265941367394415e-02 7.025033828485558161e+02
6.295320831033933417e-02 6.782344318782521668e+02
6.399375720700471726e-02 6.557111944111641151e+02
6.503430610367010034e-02 6.328496167688897458e+02
6.607485500033548342e-02 6.095921563622944177e+02
6.711540389700086651e-02 5.891833784020491294e+02
6.815595279366624959e-02 5.654876099332294643e+02
6.919650169033163267e-02 5.435126822483158548e+02
7.023705058699701576e-02 5.224365796927336305e+02
7.127759948366239884e-02 4.991101807139056632e+02
7.231814838032778192e-02 4.769948201287560323e+02
7.335869727699316500e-02 4.589907964604330459e+02
7.439924617365854809e-02 4.409370361347098992e+02
7.543979507032393117e-02 4.192810932415442835e+02
7.648034396698931425e-02 3.996653167154678385e+02
7.752089286365469734e-02 3.819429494039060273e+02
7.856144176032008042e-02 3.643304844829140166e+02
7.960199065698546350e-02 3.477343777816379315e+02
8.064253955365084658e-02 3.313703854854666702e+02
8.168308845031622967e-02 3.148439915067403376e+02
8.272363734698161275e-02 2.967914327695554562e+02
8.376418624364699583e-02 2.823641927753790242e+02
8.480473514031239279e-02 2.678115621042412613e+02
8.584528403697777588e-02 2.522227688511619021e+02
8.688583293364315896e-02 2.375534274671269088e+02
8.792638183030854204e-02 2.246458642872285054e+02
8.896693072697392513e-02 2.110096701484293362e+02
9.000747962363930821e-02 1.996173661242478943e+02
9.104802852030469129e-02 1.875130744747979179e+02
9.208857741697007437e-02 1.755542457639514566e+02
9.312912631363545746e-02 1.646564915024123934e+02
9.416967521030084054e-02 1.535460458133743487e+02
9.521022410696622362e-02 1.436201956318335533e+02
9.625077300363160671e-02 1.340739425647312828e+02
9.729132190029698979e-02 1.252219007800810004e+02
9.833187079696237287e-02 1.161695672321694985e+02
9.937241969362775595e-02 1.071414117967108837e+02
1.004129685902931390e-01 9.868785332331513871e+01
1.014535174869585221e-01 9.045816219664074254e+01
1.024940663836239052e-01 8.336673007232681698e+01
1.035346152802892883e-01 7.658840435586967033e+01
1.045751641769546714e-01 7.002189971331442564e+01
1.056157130736200545e-01 6.416788936245882269e+01
1.066562619702854375e-01 5.879449184830676245e+01
1.076968108669508206e-01 5.316401577034959303e+01
1.087373597636162037e-01 4.792137602303511557e+01
1.097779086602815868e-01 4.319135075147049463e+01
1.108184575569469699e-01 3.888553665929603653e+01
1.118590064536123529e-01 3.474885346331097935e+01
1.128995553502777360e-01 3.125590308095091530e+01
1.139401042469431191e-01 2.774310574175659028e+01
1.149806531436085022e-01 2.460725673602327035e+01
1.160212020402738853e-01 2.182420514193081118e+01
1.170617509369392684e-01 1.929719511002562626e+01
1.181022998336046514e-01 1.713682720930515657e+01
1.191428487302700345e-01 1.468120248745082534e+01
1.201833976269354176e-01 1.267169678937253252e+01
1.212239465236008007e-01 1.084208494528350641e+01
1.222644954202661838e-01 9.447929761818091521e+00
1.233050443169315669e-01 7.958095956145204042e+00
1.243455932135969499e-01 6.965671978909153239e+00
1.253861421102623330e-01 5.503178403989103629e+00
1.264266910069277161e-01 4.493604623314219282e+00
1.274672399035930992e-01 4.194150437863406466e+00
1.285077888002584823e-01 3.856037972350218723e+00
1.295483376969238654e-01 3.114628751230590353e+00
1.305888865935892484e-01 2.691732778871799070e+00
1.316294354902546315e-01 2.348214022715072957e+00
1.326699843869200146e-01 2.380808118850143984e+00
1.337105332835853977e-01 2.631469571487837555e+00
1.347510821802507808e-01 2.423884716025131780e+00
1.357916310769161639e-01 2.537058053111714173e+00
1.368321799735815469e-01 2.620875850585019151e+00
1.378727288702469300e-01 2.890060500799158660e+00
1.389132777669123131e-01 3.241384886142643751e+00
1.399538266635776962e-01 3.622023501330545514e+00
1.409943755602430793e-01 4.091523764894642312e+00
1.420349244569084624e-01 4.354864672768034239e+00
1.430754733535738454e-01 4.641006744275742335e+00
1.441160222502392285e-01 4.947856520125348823e+00
1.451565711469046116e-01 5.447562689618546727e+00
1.461971200435699947e-01 6.116177075354251258e+00
1.472376689402353778e-01 6.732238974433482070e+00
1.482782178369007609e-01 7.227441721864728663e+00
1.493187667335661439e-01 7.634578405035583160e+00
1.503593156302315270e-01 8.152848014372576557e+00
1.513998645268969101e-01 8.598547509348421158e+00
1.524404134235622932e-01 8.916505141661062339e+00
1.534809623202276763e-01 9.115015745317275986e+00
1.545215112168930593e-01 9.748401742660096403e+00
1.555620601135584424e-01 1.034965209181841672e+01
1.566026090102238255e-01 1.070584746473521776e+01
1.576431579068892086e-01 1.069854675156132018e+01
1.586837068035545917e-01 1.080167406413510989e+01
1.597242557002199748e-01 1.120450252433793281e+01
1.607648045968853578e-01 1.158285328152773275e+01
1.618053534935507409e-01 1.146014896316665244e+01
1.628459023902161240e-01 1.176928006917890457e+01
1.638864512868815071e-01 1.208997229323383493e+01
1.649270001835468902e-01 1.265730060407964075e+01
1.659675490802122733e-01 1.277694360088764469e+01
1.670080979768776563e-01 1.265258340508757229e+01
1.680486468735430672e-01 1.246759961430292307e+01
1.690891957702084503e-01 1.248988343755660324e+01
1.701297446668738333e-01 1.267897354235077501e+01
1.711702935635392164e-01 1.265919661440270261e+01
1.722108424602045995e-01 1.271137100498637906e+01
1.732513913568699826e-01 1.250012440206629094e+01
1.742919402535353657e-01 1.185602863432489684e+01
1.753324891502007488e-01 1.197623331099629596e+01
1.763730380468661318e-01 1.182368861091383039e+01
1.774135869435315149e-01 1.165446924896686554e+01
1.784541358401968980e-01 1.180105850446426885e+01
1.794946847368622811e-01 1.154880354137457488e+01
1.805352336335276642e-01 1.135050409608689748e+01
1.815757825301930473e-01 1.079853328222814213e+01
1.826163314268584303e-01 1.044953182014008419e+01
1.836568803235238134e-01 1.045638590053233230e+01
1.846974292201891965e-01 1.010930347498283055e+01
1.857379781168545796e-01 9.546978793397567387e+00
1.867785270135199627e-01 9.142540533294521765e+00
1.878190759101853458e-01 8.982489668578999442e+00
1.888596248068507288e-01 8.651554475027733560e+00
1.899001737035161119e-01 8.378153177714672495e+00
1.909407226001814950e-01 7.848408946057187308e+00
1.919812714968468781e-01 7.632201892685241518e+00
1.930218203935122612e-01 7.248198692412351818e+00
1.940623692901776443e-01 6.982554626724287061e+00
1.951029181868430273e-01 6.476775082103007009e+00
1.961434670835084104e-01 6.058646621654645514e+00
1.971840159801737935e-01 5.706107846114225168e+00
1.982245648768391766e-01 5.476885082618068168e+00
1.992651137735045597e-01 5.147112511450888661e+00
2.003056626701699428e-01 4.927196196185562371e+00
2.013462115668353813e-01 4.708506645989462669e+00
2.023867604635007644e-01 4.341070629921283341e+00
2.034273093601661475e-01 4.373386950344062996e+00
2.044678582568315306e-01 4.143063072376012457e+00
2.055084071534969137e-01 3.708320661596332002e+00
2.065489560501622968e-01 3.301544935034787187e+00
2.075895049468276798e-01 3.187959906298814872e+00
2.086300538434930629e-01 2.763985782463944219e+00
2.096706027401584460e-01 2.741086061039883504e+00
2.107111516368238291e-01 2.522711620578316882e+00
2.117517005334892122e-01 2.503406906226683049e+00
2.127922494301545953e-01 2.110043096076832825e+00
2.138327983268199783e-01 2.053492797894797661e+00
2.148733472234853614e-01 1.801679477078156566e+00
2.159138961201507445e-01 1.482639359638938004e+00
2.169544450168161276e-01 1.518513382013953361e+00
2.179949939134815107e-01 1.474883603775452912e+00
2.190355428101468938e-01 1.256822058128737041e+00
2.200760917068122768e-01 8.974685633648142868e-01
2.211166406034776599e-01 8.917963156857915408e-01
2.221571895001430430e-01 8.211218776753064219e-01
2.231977383968084261e-01 6.601779352478089891e-01
2.242382872934738092e-01 8.040201252584218139e-01
2.252788361901391923e-01 6.612898469659853617e-01
2.263193850868045753e-01 8.461024164513339940e-01
2.273599339834699584e-01 8.907572043335179046e-01
2.284004828801353415e-01 9.090265340491932022e-01
2.294410317768007246e-01 7.790275949727671900e-01
2.304815806734661077e-01 9.415460948696114940e-01
2.315221295701314908e-01 9.505285036614132821e-01
2.325626784667968738e-01 8.885062359295332612e-01
2.336032273634622569e-01 5.932971990643771676e-01
2.346437762601276400e-01 8.528984080495867204e-01
2.356843251567930231e-01 1.132138562940756543e+00
2.367248740534584062e-01 1.002549663303231142e+00
2.377654229501237892e-01 1.300505246396777892e+00
2.388059718467891723e-01 1.270486325725695309e+00
2.398465207434545554e-01 1.295194773707315505e+00
2.408870696401199385e-01 1.456736448814904605e+00
2.419276185367853216e-01 1.577087561647815050e+00
2.429681674334507047e-01 1.594563631420488292e+00
2.440087163301160877e-01 1.690829715012004186e+00
2.450492652267814708e-01 1.438335767204268478e+00
2.460898141234468539e-01 1.354959008686719812e+00
2.471303630201122370e-01 1.199810917702116342e+00
2.481709119167776201e-01 1.409482362372351361e+00
2.492114608134430032e-01 1.658018584328221579e+00
2.502520097101083585e-01 1.694966966334902736e+00
2.512925586067737416e-01 1.766047054867215138e+00
2.523331075034391247e-01 1.984830761824063927e+00
2.533736564001045077e-01 2.181543825722162211e+00
2.544142052967698908e-01 1.953484340730081925e+00
2.554547541934352739e-01 2.011876552111317551e+00
2.564953030901006570e-01 2.101467584279884449e+00
2.575358519867660401e-01 2.111149970556208899e+00
2.585764008834314231e-01 2.118144380940751859e+00
2.596169497800968062e-01 2.108209668891369404e+00
2.606574986767621893e-01 1.999393049408105583e+00
2.616980475734275724e-01 1.827521618177815554e+00
2.627385964700929555e-01 1.906796683086216859e+00
2.637791453667583386e-01 2.147668916702340169e+00
2.648196942634237216e-01 2.311126070333241245e+00
2.658602431600891047e-01 2.320550771026933745e+00
2.669007920567544878e-01 2.200094893868591583e+00
2.679413409534198709e-01 1.905059157071868015e+00
2.689818898500852540e-01 2.059567212473222497e+00
2.700224387467506371e-01 2.091777108721164069e+00
2.710629876434160201e-01 2.136764073056919955e+00
2.721035365400814032e-01 1.841597203272094418e+00
2.731440854367467863e-01 2.160601550076012956e+00
2.741846343334121694e-01 2.216576036203321109e+00
2.752251832300775525e-01 2.146326959563062076e+00
2.762657321267429356e-01 1.900756809199410924e+00
2.773062810234083186e-01 1.928192004871700505e+00
2.783468299200737017e-01 1.933389894095714823e+00
2.793873788167390848e-01 1.920665869301039663e+00
2.804279277134044679e-01 1.977125466854296576e+00
2.814684766100698510e-01 1.647149700079687307e+00
2.825090255067352341e-01 1.607304199357628249e+00
2.835495744034006171e-01 1.606927255067745364e+00
2.845901233000660002e-01 1.507769078292866993e+00
2.856306721967313833e-01 1.456378868696813100e+00
2.866712210933967664e-01 1.662200772989763209e+00
2.877117699900621495e-01 1.655301291503093353e+00
2.887523188867275326e-01 1.489993186836073846e+00
2.897928677833929156e-01 1.417311208690403390e+00
2.908334166800582987e-01 1.434948783904939518e+00
2.918739655767236818e-01 1.498087922802085359e+00
2.929145144733890649e-01 1.090833844967637134e+00
2.939550633700544480e-01 1.149411151152875732e+00
2.949956122667198311e-01 1.323692289673299882e+00
2.960361611633852141e-01 1.199972867325588055e+00
2.970767100600505972e-01 1.033064573338858594e+00
2.981172589567159803e-01 1.028678398962579621e+00
2.991578078533813634e-01 9.874072233860147207e-01
3.001983567500468020e-01 1.057648729146155375e+00
3.012389056467121851e-01 1.023497292672949754e+00
3.022794545433775681e-01 7.715490648616984970e-01
3.033200034400429512e-01 9.331761142454837454e-01
3.043605523367083343e-01 8.130701856377200443e-01
3.054011012333737174e-01 7.635406488701761418e-01
3.064416501300391005e-01 7.597301198243719966e-01
3.074821990267044836e-01 5.549616315929348787e-01
3.085227479233698666e-01 6.970595450518857206e-01
3.095632968200352497e-01 8.117767701503275646e-01
3.106038457167006328e-01 5.938823432350837095e-01
3.116443946133660159e-01 4.777520074353951429e-01
3.126849435100313990e-01 4.470158680247031668e-01
3.137254924066967821e-01 6.398565045510089533e-01
3.147660413033621651e-01 6.930971302914343823e-01
3.158065902000275482e-01 3.259689379101011752e-01
3.168471390966929313e-01 5.384284968215311551e-01
3.178876879933583144e-01 5.712033270668506191e-01
3.189282368900236975e-01 5.761380240575171285e-01
3.199687857866890806e-01 6.321053172104598161e-01
3.210093346833544636e-01 6.477979465877403698e-01
3.220498835800198467e-01 5.044608958014826783e-01
3.230904324766852298e-01 5.084255935298251927e-01
3.241309813733506129e-01 3.722499243938521829e-01
3.251715302700159960e-01 3.777958141387962598e-01
3.262120791666813790e-01 6.489774440640267983e-01
3.272526280633467621e-01 5.723802393197949812e-01
3.282931769600121452e-01 4.868429364212971677e-01
3.293337258566775283e-01 2.509835989581326032e-01
3.303742747533429114e-01 2.251000168359915676e-01
3.314148236500082945e-01 3.462801386563363337e-01
3.324553725466736775e-01 4.170605248063097292e-01
3.334959214433390606e-01 4.598930551620696860e-01
3.345364703400044437e-01 4.241417180823106037e-01
3.355770192366698268e-01 4.722927964850462956e-01
3.366175681333352099e-01 4.530386639870265242e-01
3.376581170300005930e-01 2.553163364570565363e-01
3.386986659266659760e-01 5.798814885075174175e-01
3.397392148233313591e-01 8.307961646701969016e-01
3.407797637199967422e-01 7.472920103166131867e-01
3.418203126166621253e-01 8.866411221148524646e-01
3.428608615133275084e-01 9.119846566360862994e-01
3.439014104099928915e-01 7.013462304249813428e-01
3.449419593066582745e-01 6.059937396395120857e-01
3.459825082033236576e-01 4.197019273641195980e-01
3.470230570999890407e-01 6.904750366982135290e-01
3.480636059966544238e-01 7.252166881153314648e-01
3.491041548933198069e-01 4.787114371133860402e-01
3.501447037899851900e-01 6.276273283434612438e-01
3.511852526866505730e-01 5.312106901118873736e-01
3.522258015833159561e-01 6.252808764861939039e-01
3.532663504799813392e-01 7.795107688860341000e-01
3.543068993766467223e-01 7.682215840782582461e-01
3.553474482733121054e-01 6.891776422629405374e-01
3.563879971699774885e-01 6.004961396245604988e-01
3.574285460666428715e-01 9.015680026796459856e-01
3.584690949633082546e-01 8.181300980081758212e-01
3.595096438599736377e-01 8.389689541915643645e-01
3.605501927566390208e-01 7.886143628058235322e-01
3.615907416533044039e-01 7.164943532825418515e-01
3.626312905499697870e-01 6.425799443631667884e-01
3.636718394466351700e-01 5.884809286035981302e-01
3.647123883433005531e-01 5.847918539991106002e-01
3.657529372399659362e-01 6.703117286164719246e-01
3.667934861366313193e-01 7.254721572020983444e-01
3.678340350332967024e-01 5.509856520330558283e-01
3.688745839299620854e-01 5.986617888878633664e-01
3.699151328266274685e-01 7.798408841393040802e-01
3.709556817232928516e-01 6.611533158782663122e-01
3.719962306199582347e-01 5.795704937488821429e-01
3.730367795166236178e-01 7.424719763166756081e-01
3.740773284132890009e-01 6.471917866902039407e-01
3.751178773099543839e-01 7.498527370361074418e-01
3.761584262066197670e-01 7.466040291837821030e-01
3.771989751032851501e-01 8.805660259899674713e-01
3.782395239999505332e-01 8.622807402242216313e-01
3.792800728966159163e-01 7.399326398180754438e-01
3.803206217932812994e-01 6.032216622369013237e-01
3.813611706899466824e-01 5.544419905207362831e-01
3.824017195866120655e-01 5.980820472800338905e-01
3.834422684832774486e-01 7.204334843983453140e-01
3.844828173799428317e-01 7.078641505692075953e-01
3.855233662766082148e-01 4.027143501687646676e-01
3.865639151732735979e-01 4.592731246991839100e-01
3.876044640699389809e-01 4.434943427729578502e-01
3.886450129666043640e-01 4.569436474121566505e-01
3.896855618632697471e-01 6.308225957518942550e-01
3.907261107599351302e-01 4.770229640562213547e-01
3.917666596566005133e-01 3.520176998665078827e-01
3.928072085532658964e-01 4.511737496432779437e-01
3.938477574499312794e-01 3.106642327723498909e-01
3.948883063465966625e-01 4.538930177690581047e-01
3.959288552432620456e-01 5.571270793847133973e-01
3.969694041399274287e-01 4.790119501002720881e-01
3.980099530365928118e-01 4.725951479756069773e-01
3.990505019332581949e-01 4.379298127688748821e-01
4.000910508299235779e-01 3.969853497988147240e-01
4.011315997265889610e-01 3.673896391301916253e-01
4.021721486232543441e-01 4.686113540629186502e-01
4.032126975199197272e-01 4.684203992449980092e-01
4.042532464165851103e-01 4.642697323284430411e-01
4.052937953132504934e-01 2.074997694261284664e-01
4.063343442099158764e-01 1.995043178909767789e-01
4.073748931065812595e-01 3.608044828057970221e-01
4.084154420032466426e-01 4.762764314807697019e-01
4.094559908999120257e-01 5.785954578400485104e-01
4.104965397965774088e-01 3.478888643007884696e-01
4.115370886932427918e-01 2.401427696320368455e-01
4.125776375899081749e-01 3.011743252360332690e-01
4.136181864865735580e-01 2.682850982203142109e-01
4.146587353832389411e-01 3.537237658793372930e-01
4.156992842799043242e-01 4.226925562908760980e-01
4.167398331765697073e-01 3.555079260969620236e-01
4.177803820732350903e-01 4.334568502855091765e-01
4.188209309699004734e-01 3.820193788495629406e-01
4.198614798665658565e-01 2.551589136134637670e-01
4.209020287632312396e-01 2.485274144913169891e-01
4.219425776598966227e-01 2.472023605946560565e-01
4.229831265565620058e-01 3.128385616112190348e-01
4.240236754532273888e-01 2.255544190344238586e-01
4.250642243498927719e-01 2.226116254112184834e-01
4.261047732465581550e-01 1.587862188984807688e-01
4.271453221432235381e-01 1.884176300999627074e-01
4.281858710398889212e-01 4.871692608321005480e-01
4.292264199365543043e-01 4.252851031984796748e-01
4.302669688332196873e-01 4.191664973216226997e-01
4.313075177298850704e-01 4.771207637021284143e-01
4.323480666265504535e-01 4.854254184050859067e-01
4.333886155232158366e-01 4.742408562559141671e-01
4.344291644198812197e-01 5.260042831293958443e-01
