# q (1/Angstrom), Intensity (arb)
2.029070354705860696e-02 1.546432490485108701e+03
2.133125244372399004e-02 1.548073344926720665e+03
2.237180134038937659e-02 1.535215300415598222e+03
2.341235023705475968e-02 1.525647722313615986e+03
2.445289913372014276e-02 1.513635275717614604e+03
2.549344803038552584e-02 1.506476327027008210e+03
2.653399692705091240e-02 1.494430240743486593e+03
2.757454582371629548e-02 1.476629979670261037e+03
2.861509472038167856e-02 1.453884978282622342e+03
2.965564361704706164e-02 1.438903867898068029e+03
3.069619251371244473e-02 1.422303170394639892e+03
3.173674141037782781e-02 1.402423888989650550e+03
3.277729030704321089e-02 1.383959083832596662e+03
3.381783920370859398e-02 1.363647061607324986e+03
3.485838810037397706e-02 1.341640266977741021e+03
3.589893699703936014e-02 1.320420657843337494e+03
3.693948589370474322e-02 1.297131260979087529e+03
3.798003479037012631e-02 1.273863635458433009e+03
3.902058368703550939e-02 1.248518476649381000e+03
4.006113258370089247e-02 1.225126303588151586e+03
4.110168148036627556e-02 1.202311095412741679e+03
4.214223037703165864e-02 1.180899021795316230e+03
4.318277927369704866e-02 1.156827348346506824e+03
4.422332817036243174e-02 1.132919282149203127e+03
4.526387706702781483e-02 1.107044144311676519e+03
4.630442596369319791e-02 1.080744830630272190e+03
4.734497486035858099e-02 1.057161891035685585e+03
4.838552375702396408e-02 1.030905976282406073e+03
4.942607265368934716e-02 1.001477539790014134e+03
5.046662155035473024e-02 9.752203065352550766e+02
5.150717044702011332e-02 9.479305214015237198e+02
5.254771934368549641e-02 9.242924988560197335e+02
5.358826824035087949e-02 9.030359109208653763e+02
5.462881713701626257e-02 8.755240238589091177e+02
5.566936603368164566e-02 8.474505397487571372e+02
5.670991493034702874e-02 8.240153319614694283e+02
5.775046382701241182e-02 7.990638312685972551e+02
5.879101272367779490e-02 7.734553644311475864e+02
5.983156162034317799e-02 7.484761415908850495e+02
6.087211051700856107e-02 7.254424575375011273e+02
6.191265941367394415e-02 7.015924158405020989e+02
6.295320831033933417e-02 6.773023959570813304e+02
6.399375720700471726e-02 6.542809897028218984e+02
6.503430610367010034e-02 6.294313620598263697e+02
6.607485500033548342e-02 6.070634972145595611e+02
6.711540389700086651e-02 5.863591123785843138e+02
6.815595279366624959e-02 5.637547985809281954e+02
6.919650169033163267e-02 5.426670174187113389e+02
7.023705058699701576e-02 5.222291904888218141e+02
7.127759948366239884e-02 5.011543444968923495e+02
7.231814838032778192e-02 4.795220875859437228e+02
7.335869727699316500e-02 4.583921171784401167e+02
7.439924617365854809e-02 4.380641211849277283e+02
7.543979507032393117e-02 4.181564540118011450e+02
7.648034396698931425e-02 4.003254725375588805e+02
7.752089286365469734e-02 3.840183312451719644e+02
7.856144176032008042e-02 3.652391096127826131e+02
7.960199065698546350e-02 3.466969778137694789e+02
8.064253955365084658e-02 3.295907703650804024e+02
8.168308845031622967e-02 3.136620009556340278e+02
8.272363734698161275e-02 2.988828091300566712e+02
8.376418624364699583e-02 2.840277823009590747e+02
8.480473514031239279e-02 2.674076474038631090e+02
8.584528403697777588e-02 2.521295828643998789e+02
8.688583293364315896e-02 2.388698889258596125e+02
8.792638183030854204e-02 2.240871571977469898e+02
8.896693072697392513e-02 2.120392563562252803e+02
9.000747962363930821e-02 1.999753031806275771e+02
9.104802852030469129e-02 1.875330279522921160e+02
9.208857741697007437e-02 1.750980883717107304e+02
9.312912631363545746e-02 1.649139670067529266e+02
9.416967521030084054e-02 1.549460464547325671e+02
9.521022410696622362e-02 1.443506193988629889e+02
9.625077300363160671e-02 1.347614117885494238e+02
9.729132190029698979e-02 1.252593780830428329e+02
9.833187079696237287e-02 1.156534835563241330e+02
9.937241969362775595e-02 1.067175635931451865e+02
1.004129685902931390e-01 9.869240740236831755e+01
1.014535174869585221e-01 9.194865548386131593e+01
1.024940663836239052e-01 8.425292337602648729e+01
1.035346152802892883e-01 7.700455274757133850e+01
1.045751641769546714e-01 7.051294729681011120e+01
1.056157130736200545e-01 6.533783182930473288e+01
1.066562619702854375e-01 5.981133991398579042e+01
1.076968108669508206e-01 5.378470989734246643e+01
1.087373597636162037e-01 4.794415330768514139e+01
1.097779086602815868e-01 4.325703258358269920e+01
1.108184575569469699e-01 3.905109795739501521e+01
1.118590064536123529e-01 3.558472967511903562e+01
1.128995553502777360e-01 3.126665450747990249e+01
1.139401042469431191e-01 2.808747019918213539e+01
1.149806531436085022e-01 2.463873277433244269e+01
1.160212020402738853e-01 2.195706977880857735e+01
1.170617509369392684e-01 1.919798489729704016e+01
1.181022998336046514e-01 1.679545260517655692e+01
1.191428487302700345e-01 1.472082201278751867e+01
1.201833976269354176e-01 1.290354228219522170e+01
1.212239465236008007e-01 1.067209964741655526e+01
1.222644954202661838e-01 8.945729292788886511e+00
1.233050443169315669e-01 7.656127285641620261e+00
1.243455932135969499e-01 6.689088915876066466e+00
1.253861421102623330e-01 5.762023227989256924e+00
1.264266910069277161e-01 5.296955243012096304e+00
1.274672399035930992e-01 4.324847258196836464e+00
1.285077888002584823e-01 3.563580320235285370e+00
1.295483376969238654e-01 3.041846528784855508e+00
1.305888865935892484e-01 2.441916401021089200e+00
1.316294354902546315e-01 2.240929961474662946e+00
1.326699843869200146e-01 2.384679359516521657e+00
1.337105332835853977e-01 2.603362803954329507e+00
1.347510821802507808e-01 2.778405799316963964e+00
1.357916310769161639e-01 2.637808906601676995e+00
1.368321799735815469e-01 2.690122690039562059e+00
1.378727288702469300e-01 2.494737562293693145e+00
1.389132777669123131e-01 2.757178061350074927e+00
1.399538266635776962e-01 3.240138882483741156e+00
1.409943755602430793e-01 4.002266752806065142e+00
1.420349244569084624e-01 4.422379978403380818e+00
1.430754733535738454e-01 4.754060153446172166e+00
1.441160222502392285e-01 5.580096707122031319e+00
1.451565711469046116e-01 6.015222870474698169e+00
1.461971200435699947e-01 6.180059136917680718e+00
1.472376689402353778e-01 6.697937742430372765e+00
1.482782178369007609e-01 7.032811861004901743e+00
1.493187667335661439e-01 7.314456533419431139e+00
1.503593156302315270e-01 7.585091576567947413e+00
1.513998645268969101e-01 8.332221148789844989e+00
1.524404134235622932e-01 8.926756436019051222e+00
1.534809623202276763e-01 9.769054700316075923e+00
1.545215112168930593e-01 1.031681589538990806e+01
1.555620601135584424e-01 1.041402694098270132e+01
1.566026090102238255e-01 1.049289137217703782e+01
1.576431579068892086e-01 1.082154746472403062e+01
1.586837068035545917e-01 1.127600727780469114e+01
1.597242557002199748e-01 1.127380668915294493e+01
1.607648045968853578e-01 1.115900905469386828e+01
1.618053534935507409e-01 1.167053504206952041e+01
1.628459023902161240e-01 1.201879077276054630e+01
1.638864512868815071e-01 1.192410805472177415e+01
1.649270001835468902e-01 1.212518257444224901e+01
1.659675490802122733e-01 1.253692223913223813e+01
1.670080979768776563e-01 1.279784734473560803e+01
1.680486468735430672e-01 1.255599254033006318e+01
1.690891957702084503e-01 1.278501522215308128e+01
1.701297446668738333e-01 1.263549781713119202e+01
1.711702935635392164e-01 1.231507350633422249e+01
1.722108424602045995e-01 1.241605987180740911e+01
1.732513913568699826e-01 1.266876305051986762e+01
1.742919402535353657e-01 1.240054277137418737e+01
1.753324891502007488e-01 1.237596003949770207e+01
1.763730380468661318e-01 1.215509875994164801e+01
1.774135869435315149e-01 1.172797107960087715e+01
1.784541358401968980e-01 1.176072694195708479e+01
1.794946847368622811e-01 1.144066759538318934e+01
1.805352336335276642e-01 1.111825002616556901e+01
1.815757825301930473e-01 1.074252859463835108e+01
1.826163314268584303e-01 1.053827942512817017e+01
1.836568803235238134e-01 1.012948881807940893e+01
1.846974292201891965e-01 9.892355583556781795e+00
1.857379781168545796e-01 9.438808449271178347e+00
1.867785270135199627e-01 9.205477557202776495e+00
1.878190759101853458e-01 9.085838442515196789e+00
1.888596248068507288e-01 8.871904444375687149e+00
1.899001737035161119e-01 8.337928644799330158e+00
1.909407226001814950e-01 7.884440098391127805e+00
1.919812714968468781e-01 7.453630215366910505e+00
1.930218203935122612e-01 7.305300894308768278e+00
1.940623692901776443e-01 6.878853431659340600e+00
1.951029181868430273e-01 6.501371063395822603e+00
1.961434670835084104e-01 6.181205627416424875e+00
1.971840159801737935e-01 5.897958944754194022e+00
1.982245648768391766e-01 5.574617821378794247e+00
1.992651137735045597e-01 4.989720917690572577e+00
2.003056626701699428e-01 4.940397549249212261e+00
2.013462115668353813e-01 4.779902441270930780e+00
2.023867604635007644e-01 4.341423924580951166e+00
2.034273093601661475e-01 4.229671770125118968e+00
2.044678582568315306e-01 3.777636872224224618e+00
2.055084071534969137e-01 3.488175466522179136e+00
2.065489560501622968e-01 3.339986746037101994e+00
2.075895049468276798e-01 2.914795293900670714e+00
2.086300538434930629e-01 2.712763053696878757e+00
2.096706027401584460e-01 2.575355565161576266e+00
2.107111516368238291e-01 2.353385199338219991e+00
2.117517005334892122e-01 1.923304895636015033e+00
2.127922494301545953e-01 1.976205835093242769e+00
2.138327983268199783e-01 1.942181302284538447e+00
2.148733472234853614e-01 1.728513489758960020e+00
2.159138961201507445e-01 1.474069481142834093e+00
2.169544450168161276e-01 1.316616997417835222e+00
2.179949939134815107e-01 1.232898291645248889e+00
2.190355428101468938e-01 1.256696000907133737e+00
2.200760917068122768e-01 1.034944626420944758e+00
2.211166406034776599e-01 1.071898254375707182e+00
2.221571895001430430e-01 1.050587711284016734e+00
2.231977383968084261e-01 9.617544800148536410e-01
2.242382872934738092e-01 9.130948238695779651e-01
2.252788361901391923e-01 1.049307134094387806e+00
2.263193850868045753e-01 9.079838764856695832e-01
2.273599339834699584e-01 6.686868414531623728e-01
2.284004828801353415e-01 8.315205861252401576e-01
2.294410317768007246e-01 8.177775545270478119e-01
2.304815806734661077e-01 7.621405206654934261e-01
2.315221295701314908e-01 9.831254528804223014e-01
2.325626784667968738e-01 1.034396131820884079e+00
2.336032273634622569e-01 1.072202398215480912e+00
2.346437762601276400e-01 1.008858027360428622e+00
2.356843251567930231e-01 9.699305888158491484e-01
2.367248740534584062e-01 9.516916455640185291e-01
2.377654229501237892e-01 9.037016906720367615e-01
2.388059718467891723e-01 1.068237024840062332e+00
2.398465207434545554e-01 1.229924547216377562e+00
2.408870696401199385e-01 1.032264236586421191e+00
2.419276185367853216e-01 1.203068194658587942e+00
2.429681674334507047e-01 1.292128474259243376e+00
2.440087163301160877e-01 1.316559681672075044e+00
2.450492652267814708e-01 1.491844965171722492e+00
2.460898141234468539e-01 1.535631680713553493e+00
2.471303630201122370e-01 1.639320478915287538e+00
2.481709119167776201e-01 1.790608626409330384e+00
2.492114608134430032e-01 1.786977967352832763e+00
2.502520097101083585e-01 1.846278074810328462e+00
2.512925586067737416e-01 1.903427451981762886e+00
2.523331075034391247e-01 2.000195653210717239e+00
2.533736564001045077e-01 2.006912279728403803e+00
2.544142052967698908e-01 1.934178955684636492e+00
2.554547541934352739e-01 1.966835422166152370e+00
2.564953030901006570e-01 2.196529147484778122e+00
2.575358519867660401e-01 2.184745919179636786e+00
2.585764008834314231e-01 2.165248945749286946e+00
2.596169497800968062e-01 2.124239534988511480e+00
2.606574986767621893e-01 2.061612736208381591e+00
2.616980475734275724e-01 2.405569615032753461e+00
2.627385964700929555e-01 2.249125341474233153e+00
2.637791453667583386e-01 2.147514753601416970e+00
2.648196942634237216e-01 2.224885241132426472e+00
2.658602431600891047e-01 2.415066708250247274e+00
2.669007920567544878e-01 2.777424424062587605e+00
2.679413409534198709e-01 2.395184519612463703e+00
2.689818898500852540e-01 2.197203176416820725e+00
2.700224387467506371e-01 2.043764236193478467e+00
2.710629876434160201e-01 2.139563806367249299e+00
2.721035365400814032e-01 2.097961994860938262e+00
2.731440854367467863e-01 2.054581779471039482e+00
2.741846343334121694e-01 2.112335120783910725e+00
2.752251832300775525e-01 2.065233151042491500e+00
2.762657321267429356e-01 2.057726202645643099e+00
2.773062810234083186e-01 1.976390623773863098e+00
2.783468299200737017e-01 1.857379273313085832e+00
2.793873788167390848e-01 1.882051853269491204e+00
2.804279277134044679e-01 1.843485151570074976e+00
2.814684766100698510e-01 1.610057346928083888e+00
2.825090255067352341e-01 1.876504007741324642e+00
2.835495744034006171e-01 1.691526053026830567e+00
2.845901233000660002e-01 1.436583521942299768e+00
2.856306721967313833e-01 1.666751073494161517e+00
2.866712210933967664e-01 1.822742468878509214e+00
2.877117699900621495e-01 1.618116406101979265e+00
2.887523188867275326e-01 1.434040326254155673e+00
2.897928677833929156e-01 1.433054905569594695e+00
2.908334166800582987e-01 1.554399855269487318e+00
2.918739655767236818e-01 1.475928896584616012e+00
2.929145144733890649e-01 1.346793340130741257e+00
2.939550633700544480e-01 1.189865770607809736e+00
2.949956122667198311e-01 1.223439270166192472e+00
2.960361611633852141e-01 1.319600418524721874e+00
2.970767100600505972e-01 1.292081913836501172e+00
2.981172589567159803e-01 1.323516781088734717e+00
2.991578078533813634e-01 1.335315464530804519e+00
3.001983567500468020e-01 1.024285043503130765e+00
3.012389056467121851e-01 9.998537836075271912e-01
3.022794545433775681e-01 7.623909123158973955e-01
3.033200034400429512e-01 8.761997813836259752e-01
3.043605523367083343e-01 7.905471076609131842e-01
3.054011012333737174e-01 8.632862368097740102e-01
3.064416501300391005e-01 8.847811593015357801e-01
3.074821990267044836e-01 4.983969922105302430e-01
3.085227479233698666e-01 5.022678010716496999e-01
3.095632968200352497e-01 6.766314646284463663e-01
3.106038457167006328e-01 5.581496885115839746e-01
3.116443946133660159e-01 4.684102632427808999e-01
3.126849435100313990e-01 6.234976497692308328e-01
3.137254924066967821e-01 5.672826918540039287e-01
3.147660413033621651e-01 4.160622150003305819e-01
3.158065902000275482e-01 4.456130426250553001e-01
3.168471390966929313e-01 6.798368635028424478e-01
3.178876879933583144e-01 9.203549456474178214e-01
3.189282368900236975e-01 9.097078814758425835e-01
3.199687857866890806e-01 7.533233616642185382e-01
3.210093346833544636e-01 6.139333062607228442e-01
3.220498835800198467e-01 6.031515213609033310e-01
3.230904324766852298e-01 7.186784525525382605e-01
3.241309813733506129e-01 6.094670971435753870e-01
3.251715302700159960e-01 6.928484621814376965e-01
3.262120791666813790e-01 6.833569207003691304e-01
3.272526280633467621e-01 4.666183646625832182e-01
3.282931769600121452e-01 5.158402520033469330e-01
3.293337258566775283e-01 6.686915007142637535e-01
3.303742747533429114e-01 5.494073014292517598e-01
3.314148236500082945e-01 4.823322414076649522e-01
3.324553725466736775e-01 6.356720877340293896e-01
3.334959214433390606e-01 6.204831385835731794e-01
3.345364703400044437e-01 7.421765035433622870e-01
3.355770192366698268e-01 6.128579334532950895e-01
3.366175681333352099e-01 6.445657491626377578e-01
3.376581170300005930e-01 6.759828912034784310e-01
3.386986659266659760e-01 6.253552644861315457e-01
3.397392148233313591e-01 5.107992127846934238e-01
3.407797637199967422e-01 5.329620854743204461e-01
3.418203126166621253e-01 6.235702311781068374e-01
3.428608615133275084e-01 7.851458754686895247e-01
3.439014104099928915e-01 6.877936728751663509e-01
3.449419593066582745e-01 7.099618133352691984e-01
3.459825082033236576e-01 8.118758574649191928e-01
3.470230570999890407e-01 8.815299243623826442e-01
3.480636059966544238e-01 6.957563429217792361e-01
3.491041548933198069e-01 7.123046931306333818e-01
3.501447037899851900e-01 6.674031478145572294e-01
3.511852526866505730e-01 8.069031116214020471e-01
3.522258015833159561e-01 7.628172698104584981e-01
3.532663504799813392e-01 8.196653822856880822e-01
3.543068993766467223e-01 9.344584739695136477e-01
3.553474482733121054e-01 7.539077286085174023e-01
3.563879971699774885e-01 6.329826421615081244e-01
3.574285460666428715e-01 6.943748605655599704e-01
3.584690949633082546e-01 6.826933885228818610e-01
3.595096438599736377e-01 8.666568467465793901e-01
3.605501927566390208e-01 8.657694258559800460e-01
3.615907416533044039e-01 8.040138518596613437e-01
3.626312905499697870e-01 7.592501147731276490e-01
3.636718394466351700e-01 8.739289995821053481e-01
3.647123883433005531e-01 8.683408748085703621e-01
3.657529372399659362e-01 9.829548764013509299e-01
3.667934861366313193e-01 9.344323829858716124e-01
3.678340350332967024e-01 7.849634420535593904e-01
3.688745839299620854e-01 8.185736847576663422e-01
3.699151328266274685e-01 1.050527798962008319e+00
3.709556817232928516e-01 7.122560914127760157e-01
3.719962306199582347e-01 7.944144233137642175e-01
3.730367795166236178e-01 7.776255161798886206e-01
3.740773284132890009e-01 7.672855948898771317e-01
3.751178773099543839e-01 6.408473751120418171e-01
3.761584262066197670e-01 6.135302154398267760e-01
3.771989751032851501e-01 6.593337602544160347e-01
3.782395239999505332e-01 6.685976412521306145e-01
3.792800728966159163e-01 6.826063731400466850e-01
3.803206217932812994e-01 6.473111519453595974e-01
3.813611706899466824e-01 5.016069758276771040e-01
3.824017195866120655e-01 6.064015383697025641e-01
3.834422684832774486e-01 6.966699418876238781e-01
3.844828173799428317e-01 7.233353729622180595e-01
3.855233662766082148e-01 7.978136571407965505e-01
3.865639151732735979e-01 6.596028703303495888e-01
3.876044640699389809e-01 5.834751912972571120e-01
3.886450129666043640e-01 6.809894943264431788e-01
3.896855618632697471e-01 5.900939253644068572e-01
3.907261107599351302e-01 5.734969270551815157e-01
3.917666596566005133e-01 4.773411754032146348e-01
3.928072085532658964e-01 7.581578654366509795e-01
3.938477574499312794e-01 7.739778215947801243e-01
3.948883063465966625e-01 7.001235679678039503e-01
3.959288552432620456e-01 5.020690974459682820e-01
3.969694041399274287e-01 4.372851716305525827e-01
3.980099530365928118e-01 5.151844516813746111e-01
3.990505019332581949e-01 4.965673482596635324e-01
4.000910508299235779e-01 4.327144800423248228e-01
4.011315997265889610e-01 3.765985583857656138e-01
4.021721486232543441e-01 4.324017802823298950e-01
4.032126975199197272e-01 4.553990682574173832e-01
4.042532464165851103e-01 3.896207957883639494e-01
4.052937953132504934e-01 3.216295369377348834e-01
4.063343442099158764e-01 4.287380516075032233e-01
4.073748931065812595e-01 4.916726219861402569e-01
4.084154420032466426e-01 4.610329397086658787e-01
4.094559908999120257e-01 4.271473436272970048e-01
4.104965397965774088e-01 4.728769124296832160e-01
4.115370886932427918e-01 4.356440972347890295e-01
4.125776375899081749e-01 2.992557141311600333e-01
4.136181864865735580e-01 4.316574929660781379e-01
4.146587353832389411e-01 4.310117194303089150e-01
4.156992842799043242e-01 4.389005094342479651e-01
4.167398331765697073e-01 5.914996117673929632e-01
4.177803820732350903e-01 5.493334906620219726e-01
4.188209309699004734e-01 3.997624883440735744e-01
4.198614798665658565e-01 5.430585442255768669e-01
4.209020287632312396e-01 4.057254195207100622e-01
4.219425776598966227e-01 4.883370066405277043e-01
4.229831265565620058e-01 4.505499397590639887e-01
4.240236754532273888e-01 3.618646258329043519e-01
4.250642243498927719e-01 3.628207657437414468e-01
4.261047732465581550e-01 5.412106306283277490e-01
4.271453221432235381e-01 4.923112917694894008e-01
4.281858710398889212e-01 3.989904998633946320e-01
4.292264199365543043e-01 5.128490280027406811e-01
4.302669688332196873e-01 4.850154440281997381e-01
4.313075177298850704e-01 3.108606695912889961e-01
4.323480666265504535e-01 3.509469188814229312e-01
4.333886155232158366e-01 4.380524048498770640e-01
4.344291644198812197e-01 5.397865889020394548e-01
