# q (1/Angstrom), Intensity (arb)
2.029070354705860696e-02 1.524401921768739612e+03
2.133125244372399004e-02 1.519349082134770697e+03
2.237180134038937659e-02 1.510790641764576776e+03
2.341235023705475968e-02 1.498776284868587027e+03
2.445289913372014276e-02 1.494085165916024607e+03
2.549344803038552584e-02 1.485120109659725358e+03
2.653399692705091240e-02 1.472998631360821946e+03
2.757454582371629548e-02 1.456894581859253321e+03
2.861509472038167856e-02 1.438677955870865389e+03
2.965564361704706164e-02 1.419129199237256444e+03
3.069619251371244473e-02 1.408162602725058605e+03
3.173674141037782781e-02 1.389483693831450410e+03
3.277729030704321089e-02 1.364866793800978257e+03
3.381783920370859398e-02 1.344927192967157453e+03
3.485838810037397706e-02 1.322179770061620047e+03
3.589893699703936014e-02 1.298798507333647422e+03
3.693948589370474322e-02 1.276426039754764133e+03
3.798003479037012631e-02 1.253886466203694908e+03
3.902058368703550939e-02 1.234140911213494292e+03
4.006113258370089247e-02 1.207498656568921888e+03
4.110168148036627556e-02 1.181012533226978576e+03
4.214223037703165864e-02 1.160060674463516307e+03
4.318277927369704866e-02 1.134455540625047888e+03
4.422332817036243174e-02 1.109385483918350019e+03
4.526387706702781483e-02 1.087025179392209111e+03
4.630442596369319791e-02 1.061794211876255076e+03
4.734497486035858099e-02 1.036612563113944134e+03
4.838552375702396408e-02 1.010575026536434166e+03
4.942607265368934716e-02 9.861223953229592780e+02
5.046662155035473024e-02 9.608042719424812503e+02
5.150717044702011332e-02 9.348991936944979670e+02
5.254771934368549641e-02 9.107614038631437552e+02
5.358826824035087949e-02 8.849990100831879545e+02
5.462881713701626257e-02 8.581720737743820564e+02
5.566936603368164566e-02 8.330558323087055896e+02
5.670991493034702874e-02 8.111183652070794778e+02
5.775046382701241182e-02 7.869174724509948646e+02
5.879101272367779490e-02 7.640926675898899703e+02
5.983156162034317799e-02 7.372361583474627196e+02
6.087211051700856107e-02 7.143675862294999206e+02
6.191265941367394415e-02 6.905508498915421569e+02
6.295320831033933417e-02 6.657412547332542090e+02
6.399375720700471726e-02 6.438392219529631575e+02
6.503430610367010034e-02 6.208728851688438226e+02
6.607485500033548342e-02 5.984422290245654494e+02
6.711540389700086651e-02 5.755703277231534685e+02
6.815595279366624959e-02 5.560394682277183165e+02
6.919650169033163267e-02 5.323525007336941144e+02
7.023705058699701576e-02 5.094225388248087256e+02
7.127759948366239884e-02 4.881033008662930115e+02
7.231814838032778192e-02 4.695132204092873280e+02
7.335869727699316500e-02 4.487712653679034815e+02
7.439924617365854809e-02 4.297302726975200358e+02
7.543979507032393117e-02 4.117135873635738221e+02
7.648034396698931425e-02 3.943685113327790077e+02
7.752089286365469734e-02 3.763567643050434981e+02
7.856144176032008042e-02 3.578991552354012242e+02
7.960199065698546350e-02 3.396493278673493705e+02
8.064253955365084658e-02 3.232180222869930049e+02
8.168308845031622967e-02 3.072027285068592732e+02
8.272363734698161275e-02 2.919400488180932598e+02
8.376418624364699583e-02 2.777915055022497199e+02
8.480473514031239279e-02 2.625413756062714583e+02
8.584528403697777588e-02 2.488335904689532470e+02
8.688583293364315896e-02 2.343300212411423900e+02
8.792638183030854204e-02 2.214573538265386503e+02
8.896693072697392513e-02 2.087450797616505440e+02
9.000747962363930821e-02 1.937519139506872250e+02
9.104802852030469129e-02 1.820556663342176762e+02
9.208857741697007437e-02 1.721137734319720778e+02
9.312912631363545746e-02 1.614581272657208899e+02
9.416967521030084054e-02 1.498256407615239993e+02
9.521022410696622362e-02 1.396974237954993612e+02
9.625077300363160671e-02 1.303232795591391664e+02
9.729132190029698979e-02 1.209911717965901801e+02
9.833187079696237287e-02 1.131759590866223135e+02
9.937241969362775595e-02 1.047636991479674293e+02
1.004129685902931390e-01 9.686393077869006163e+01
1.014535174869585221e-01 8.916861963952356973e+01
1.024940663836239052e-01 8.158106008341991355e+01
1.035346152802892883e-01 7.451153527531143084e+01
1.045751641769546714e-01 6.841941273625903364e+01
1.056157130736200545e-01 6.223265372082937574e+01
1.066562619702854375e-01 5.646273509808199975e+01
1.076968108669508206e-01 5.127685134937229350e+01
1.087373597636162037e-01 4.663360810256775579e+01
1.097779086602815868e-01 4.213686960643809698e+01
1.108184575569469699e-01 3.804724340536736094e+01
1.118590064536123529e-01 3.418300184698389188e+01
1.128995553502777360e-01 3.089095417354067052e+01
1.139401042469431191e-01 2.713091064310324896e+01
1.149806531436085022e-01 2.402483939879283525e+01
1.160212020402738853e-01 2.119947839460057537e+01
1.170617509369392684e-01 1.866666653722728597e+01
1.181022998336046514e-01 1.621825611741225970e+01
1.191428487302700345e-01 1.366609362550930840e+01
1.201833976269354176e-01 1.199171820361264196e+01
1.212239465236008007e-01 1.056847968460682807e+01
1.222644954202661838e-01 8.736037314125532305e+00
1.233050443169315669e-01 7.490906631107666414e+00
1.243455932135969499e-01 6.474490863188893996e+00
1.253861421102623330e-01 5.584402386511769123e+00
1.264266910069277161e-01 4.623056113433598568e+00
1.274672399035930992e-01 3.884086666642829755e+00
1.285077888002584823e-01 3.320556633329427854e+00
1.295483376969238654e-01 2.922699369298246808e+00
1.305888865935892484e-01 2.443663807310461067e+00
1.316294354902546315e-01 2.481109571559905191e+00
1.326699843869200146e-01 2.242965957028172141e+00
1.337105332835853977e-01 2.074435315145816361e+00
1.347510821802507808e-01 1.953654367897801336e+00
1.357916310769161639e-01 2.216508865931825056e+00
1.368321799735815469e-01 2.022636181069845662e+00
1.378727288702469300e-01 2.482750560921996197e+00
1.389132777669123131e-01 2.862536662265437570e+00
1.399538266635776962e-01 3.300744292502209021e+00
1.409943755602430793e-01 3.744382222822007833e+00
1.420349244569084624e-01 4.163980642052379721e+00
1.430754733535738454e-01 4.676912315337176551e+00
1.441160222502392285e-01 5.024106789836466191e+00
1.451565711469046116e-01 5.368870516436754059e+00
1.461971200435699947e-01 5.997105025118223409e+00
1.472376689402353778e-01 6.473675118408952045e+00
1.482782178369007609e-01 7.164113039629743440e+00
1.493187667335661439e-01 7.414233767407825582e+00
1.503593156302315270e-01 7.880690033467907085e+00
1.513998645268969101e-01 8.601774019658659398e+00
1.524404134235622932e-01 8.815568230748059619e+00
1.534809623202276763e-01 9.426119989182243586e+00
1.545215112168930593e-01 9.494641798989480463e+00
1.555620601135584424e-01 9.991448490534164506e+00
1.566026090102238255e-01 1.019726256472299042e+01
1.576431579068892086e-01 1.074238094872672988e+01
1.586837068035545917e-01 1.119084271723614421e+01
1.597242557002199748e-01 1.134696935090324743e+01
1.607648045968853578e-01 1.170475979401604150e+01
1.618053534935507409e-01 1.221859429092784666e+01
1.628459023902161240e-01 1.213128414705261093e+01
1.638864512868815071e-01 1.238769227922518823e+01
1.649270001835468902e-01 1.205472133453453765e+01
1.659675490802122733e-01 1.201854601449517901e+01
1.670080979768776563e-01 1.237388235782648849e+01
1.680486468735430672e-01 1.266702845336575933e+01
1.690891957702084503e-01 1.242485557704616284e+01
1.701297446668738333e-01 1.251209480374877003e+01
1.711702935635392164e-01 1.244856362469640843e+01
1.722108424602045995e-01 1.233938191106815196e+01
1.732513913568699826e-01 1.201573228027764273e+01
1.742919402535353657e-01 1.188518919339997026e+01
1.753324891502007488e-01 1.180342896038272116e+01
1.763730380468661318e-01 1.187375707817786363e+01
1.774135869435315149e-01 1.180480906070415514e+01
1.784541358401968980e-01 1.169318883083819927e+01
1.794946847368622811e-01 1.151291383795465251e+01
1.805352336335276642e-01 1.072502290586369966e+01
1.815757825301930473e-01 1.035426919511526833e+01
1.826163314268584303e-01 1.017102043216149809e+01
1.836568803235238134e-01 9.955195821099220410e+00
1.846974292201891965e-01 9.543152559637579913e+00
1.857379781168545796e-01 9.173994358213477085e+00
1.867785270135199627e-01 9.263955610603957780e+00
1.878190759101853458e-01 8.639073530535984702e+00
1.888596248068507288e-01 8.003586823089847258e+00
1.899001737035161119e-01 7.674255573770707883e+00
1.909407226001814950e-01 7.730841452291169702e+00
1.919812714968468781e-01 7.496656459941476669e+00
1.930218203935122612e-01 7.372744711789291472e+00
1.940623692901776443e-01 6.937045907617541474e+00
1.951029181868430273e-01 6.712315310971348481e+00
1.961434670835084104e-01 6.234731296973784254e+00
1.971840159801737935e-01 6.094959078756087223e+00
1.982245648768391766e-01 5.630515174321363503e+00
1.992651137735045597e-01 5.203748613767043452e+00
2.003056626701699428e-01 4.838313732631206676e+00
2.013462115668353813e-01 4.348029818369663957e+00
2.023867604635007644e-01 4.121959911082647920e+00
2.034273093601661475e-01 3.796912807425322001e+00
2.044678582568315306e-01 3.657855881632031014e+00
2.055084071534969137e-01 3.051928695277492665e+00
2.065489560501622968e-01 3.128601633206901766e+00
2.075895049468276798e-01 2.933393669423665528e+00
2.086300538434930629e-01 2.294635620527426312e+00
2.096706027401584460e-01 2.120599792439737286e+00
2.107111516368238291e-01 1.961216431522416315e+00
2.117517005334892122e-01 2.065185703536620565e+00
2.127922494301545953e-01 1.959019510514661278e+00
2.138327983268199783e-01 1.604081276495886499e+00
2.148733472234853614e-01 1.601338329492957513e+00
2.159138961201507445e-01 1.724974056602111006e+00
2.169544450168161276e-01 1.732535676172080485e+00
2.179949939134815107e-01 1.426549720285777312e+00
2.190355428101468938e-01 9.884895975468097618e-01
2.200760917068122768e-01 7.811676842163777224e-01
2.211166406034776599e-01 9.088700833318377192e-01
2.221571895001430430e-01 8.178600759874719017e-01
2.231977383968084261e-01 8.810123878976732215e-01
2.242382872934738092e-01 1.065120160346886280e+00
2.252788361901391923e-01 9.866611051970508584e-01
2.263193850868045753e-01 1.081756497667260675e+00
2.273599339834699584e-01 9.749833331846815554e-01
2.284004828801353415e-01 1.028402341338839676e+00
2.294410317768007246e-01 7.532143189223283741e-01
2.304815806734661077e-01 7.338297486366442968e-01
2.315221295701314908e-01 7.904127666331852708e-01
2.325626784667968738e-01 7.882064750834594236e-01
2.336032273634622569e-01 8.779826069523437582e-01
2.346437762601276400e-01 8.479650444176733970e-01
2.356843251567930231e-01 7.822302618872107871e-01
2.367248740534584062e-01 1.056124477827481201e+00
2.377654229501237892e-01 1.276886531229376232e+00
2.388059718467891723e-01 1.187379870513414204e+00
2.398465207434545554e-01 1.182377890239319385e+00
2.408870696401199385e-01 1.063340580391258783e+00
2.419276185367853216e-01 1.259914468952995747e+00
2.429681674334507047e-01 1.316735200978257581e+00
2.440087163301160877e-01 1.499142749209525505e+00
2.450492652267814708e-01 1.306943830498493497e+00
2.460898141234468539e-01 1.370988545767673372e+00
2.471303630201122370e-01 1.694772581179741167e+00
2.481709119167776201e-01 1.856088995561837152e+00
2.492114608134430032e-01 1.628248467468875305e+00
2.502520097101083585e-01 1.676824052869513082e+00
2.512925586067737416e-01 1.742705989190877602e+00
2.523331075034391247e-01 1.920639435147474927e+00
2.533736564001045077e-01 1.815782641498643102e+00
2.544142052967698908e-01 1.536542243318574918e+00
2.554547541934352739e-01 1.664062262013597859e+00
2.564953030901006570e-01 1.710553022357075292e+00
2.575358519867660401e-01 1.693821434376697965e+00
2.585764008834314231e-01 1.871721475381342259e+00
2.596169497800968062e-01 2.115045220187059982e+00
2.606574986767621893e-01 2.309266350341971474e+00
2.616980475734275724e-01 2.122562908045562580e+00
2.627385964700929555e-01 2.121868420312544856e+00
2.637791453667583386e-01 2.009233731471848472e+00
2.648196942634237216e-01 1.958882279404200233e+00
2.658602431600891047e-01 2.040046797026967340e+00
2.669007920567544878e-01 2.116270210911668670e+00
2.679413409534198709e-01 2.270824230120155107e+00
2.689818898500852540e-01 2.301622299112256798e+00
2.700224387467506371e-01 2.210205119021654951e+00
2.710629876434160201e-01 2.020174857083098630e+00
2.721035365400814032e-01 2.149015698271302455e+00
2.731440854367467863e-01 2.259793939963152809e+00
2.741846343334121694e-01 1.801848068278303572e+00
2.752251832300775525e-01 1.737119867721769850e+00
2.762657321267429356e-01 1.905249314965988816e+00
2.773062810234083186e-01 1.870167770653893058e+00
2.783468299200737017e-01 1.720157761255045159e+00
2.793873788167390848e-01 1.672220417957980487e+00
2.804279277134044679e-01 1.820865731052240477e+00
2.814684766100698510e-01 1.802317750503448224e+00
2.825090255067352341e-01 1.565874538321708087e+00
2.835495744034006171e-01 1.613680392292653920e+00
2.845901233000660002e-01 1.654163540440830360e+00
2.856306721967313833e-01 1.595056138588127226e+00
2.866712210933967664e-01 1.632282709915504171e+00
2.877117699900621495e-01 1.411214819358754369e+00
2.887523188867275326e-01 1.321578179814132170e+00
2.897928677833929156e-01 1.370361113212613446e+00
2.908334166800582987e-01 1.099367306612883510e+00
2.918739655767236818e-01 8.373884975605321301e-01
2.929145144733890649e-01 9.385344435405826857e-01
2.939550633700544480e-01 9.995276932787362512e-01
2.949956122667198311e-01 9.076839745201397136e-01
2.960361611633852141e-01 1.276282713785210632e+00
2.970767100600505972e-01 1.178913763771650025e+00
2.981172589567159803e-01 9.276058157729103471e-01
2.991578078533813634e-01 9.380531082159677680e-01
3.001983567500468020e-01 8.563573278102012409e-01
3.012389056467121851e-01 1.034568484044871894e+00
3.022794545433775681e-01 9.052443829799265984e-01
3.033200034400429512e-01 5.830951637291903467e-01
3.043605523367083343e-01 7.332133593512324410e-01
3.054011012333737174e-01 6.361282935716801035e-01
3.064416501300391005e-01 6.874163034665734529e-01
3.074821990267044836e-01 7.213120859104726890e-01
3.085227479233698666e-01 3.955972527959623619e-01
3.095632968200352497e-01 2.590883127654208806e-01
3.106038457167006328e-01 4.389712011593864815e-01
3.116443946133660159e-01 4.159167726555672573e-01
3.126849435100313990e-01 3.856065246749267317e-01
3.137254924066967821e-01 3.494862704697752065e-01
3.147660413033621651e-01 5.281540271242910478e-01
3.158065902000275482e-01 5.689197142001987118e-01
3.168471390966929313e-01 5.939390059220883700e-01
3.178876879933583144e-01 5.422444632209533211e-01
3.189282368900236975e-01 5.480469215227152802e-01
3.199687857866890806e-01 6.086975511783556669e-01
3.210093346833544636e-01 3.712225749741975278e-01
3.220498835800198467e-01 2.787333279149812881e-01
3.230904324766852298e-01 4.976918515087938033e-01
3.241309813733506129e-01 3.469099147636534042e-01
3.251715302700159960e-01 2.685704729562523596e-01
3.262120791666813790e-01 4.214089319425937674e-01
3.272526280633467621e-01 3.422013164268271623e-01
3.282931769600121452e-01 4.501108763207284369e-01
3.293337258566775283e-01 4.371234338239204931e-01
3.303742747533429114e-01 3.295725631387149690e-01
3.314148236500082945e-01 4.511191022327167843e-01
3.324553725466736775e-01 5.177942311886489790e-01
3.334959214433390606e-01 2.185829998176487265e-01
3.345364703400044437e-01 2.802955517641585459e-01
3.355770192366698268e-01 4.218553941683964581e-01
3.366175681333352099e-01 5.496143160122741733e-01
3.376581170300005930e-01 6.450982361517070274e-01
3.386986659266659760e-01 5.830771998899706432e-01
3.397392148233313591e-01 5.994095023324099714e-01
3.407797637199967422e-01 5.400930780812629450e-01
3.418203126166621253e-01 4.942705859144531644e-01
3.428608615133275084e-01 4.874737510306559329e-01
3.439014104099928915e-01 7.913793052186193222e-01
3.449419593066582745e-01 8.149847751314176492e-01
3.459825082033236576e-01 6.134405935931788179e-01
3.470230570999890407e-01 6.926519191817632759e-01
3.480636059966544238e-01 8.771564313846660355e-01
3.491041548933198069e-01 8.584256960284406546e-01
3.501447037899851900e-01 7.037489878145919420e-01
3.511852526866505730e-01 5.707506792353846947e-01
3.522258015833159561e-01 8.208031206992210116e-01
3.532663504799813392e-01 8.799683404300964185e-01
3.543068993766467223e-01 9.162824594813976375e-01
3.553474482733121054e-01 8.983028550923179978e-01
3.563879971699774885e-01 6.706266160908072038e-01
3.574285460666428715e-01 5.415483890710248716e-01
3.584690949633082546e-01 6.309689563986538019e-01
3.595096438599736377e-01 5.531536247272867968e-01
3.605501927566390208e-01 5.480495172265804626e-01
3.615907416533044039e-01 7.875779096234509780e-01
3.626312905499697870e-01 7.898594568733763310e-01
3.636718394466351700e-01 6.796265023082632695e-01
3.647123883433005531e-01 6.067558711245411018e-01
3.657529372399659362e-01 7.771531381551533002e-01
3.667934861366313193e-01 8.054918979728356021e-01
3.678340350332967024e-01 8.016979583500507545e-01
3.688745839299620854e-01 7.877116593388571175e-01
3.699151328266274685e-01 7.427373526087031053e-01
3.709556817232928516e-01 6.696474120169426669e-01
3.719962306199582347e-01 7.348181434133280732e-01
3.730367795166236178e-01 5.122218666372724272e-01
3.740773284132890009e-01 5.742727560237668172e-01
3.751178773099543839e-01 7.208319731653460849e-01
3.761584262066197670e-01 6.812715349743783122e-01
3.771989751032851501e-01 7.015560999212944182e-01
3.782395239999505332e-01 6.693193039499298891e-01
3.792800728966159163e-01 4.639282720635691248e-01
3.803206217932812994e-01 4.727745021565539218e-01
3.813611706899466824e-01 6.147561539873507286e-01
3.824017195866120655e-01 6.376396519457969703e-01
3.834422684832774486e-01 7.880764309380090538e-01
3.844828173799428317e-01 6.080385738294218356e-01
3.855233662766082148e-01 4.760609666630450931e-01
3.865639151732735979e-01 4.065554015408388011e-01
3.876044640699389809e-01 6.004547940098312608e-01
3.886450129666043640e-01 5.627863773729018249e-01
3.896855618632697471e-01 5.745332435521248726e-01
3.907261107599351302e-01 4.976137134260305572e-01
3.917666596566005133e-01 7.844594516501679493e-01
3.928072085532658964e-01 8.385918996028536299e-01
3.938477574499312794e-01 5.114934470438932124e-01
3.948883063465966625e-01 4.349575219497587852e-01
3.959288552432620456e-01 3.910741429490549592e-01
3.969694041399274287e-01 3.440430806388086182e-01
3.980099530365928118e-01 4.285018702946423730e-01
3.990505019332581949e-01 6.066303395847754132e-01
4.000910508299235779e-01 4.815068183776745059e-01
4.011315997265889610e-01 2.244604393309046486e-01
4.021721486232543441e-01 3.993354368566421897e-01
4.032126975199197272e-01 4.264275027878667856e-01
4.042532464165851103e-01 4.052566489223003998e-01
4.052937953132504934e-01 5.768249896680188726e-01
4.063343442099158764e-01 5.882894054155052288e-01
4.073748931065812595e-01 4.844047218992528769e-01
4.084154420032466426e-01 3.036498104053357849e-01
4.094559908999120257e-01 1.999193545971493791e-01
4.104965397965774088e-01 3.007291479876244011e-01
4.115370886932427918e-01 2.514465710167606005e-01
4.125776375899081749e-01 2.271645354325819710e-01
4.136181864865735580e-01 3.895451070235580460e-01
4.146587353832389411e-01 3.403941843390647648e-01
4.156992842799043242e-01 3.747548405365250801e-01
4.167398331765697073e-01 3.047374813327152765e-01
4.177803820732350903e-01 1.880341327164281040e-01
4.188209309699004734e-01 2.453251944373633364e-01
4.198614798665658565e-01 3.315858208090638470e-01
4.209020287632312396e-01 1.942937626530039097e-01
4.219425776598966227e-01 2.611150368176247127e-01
4.229831265565620058e-01 4.395390686918645429e-01
4.240236754532273888e-01 3.629850406013339637e-01
4.250642243498927719e-01 4.434065541279217371e-01
4.261047732465581550e-01 3.110719816317732977e-01
4.271453221432235381e-01 2.030822426734388841e-01
4.281858710398889212e-01 1.815040586037071080e-01
4.292264199365543043e-01 3.808135520358426618e-01
4.302669688332196873e-01 3.207492095011907907e-01
4.313075177298850704e-01 2.677149710746817846e-01
4.323480666265504535e-01 2.696813688357515559e-01
4.333886155232158366e-01 4.124316545236581533e-01
4.344291644198812197e-01 3.841413201330965421e-01
