# q (1/Angstrom), Intensity (arb)
2.029070354705860696e-02 1.523287514032524996e+03
2.133125244372399004e-02 1.518776850089459458e+03
2.237180134038937659e-02 1.512656176229808807e+03
2.341235023705475968e-02 1.509801982179201104e+03
2.445289913372014276e-02 1.498448853071899975e+03
2.549344803038552584e-02 1.485506135907859289e+03
2.653399692705091240e-02 1.467911471305277928e+03
2.757454582371629548e-02 1.454236777331060011e+03
2.861509472038167856e-02 1.441328149221217018e+03
2.965564361704706164e-02 1.422457244788487060e+03
3.069619251371244473e-02 1.404286793757073838e+03
3.173674141037782781e-02 1.381842794239252044e+03
3.277729030704321089e-02 1.363496081409626186e+03
3.381783920370859398e-02 1.344855565612562032e+03
3.485838810037397706e-02 1.323979719834996558e+03
3.589893699703936014e-02 1.300893643102911028e+03
3.693948589370474322e-02 1.277000309813211743e+03
3.798003479037012631e-02 1.249711005788301236e+03
3.902058368703550939e-02 1.230405085740073673e+03
4.006113258370089247e-02 1.206599286060127270e+03
4.110168148036627556e-02 1.185488334695538697e+03
4.214223037703165864e-02 1.161314728005564348e+03
4.318277927369704866e-02 1.138906366777898256e+03
4.422332817036243174e-02 1.111845791544495341e+03
4.526387706702781483e-02 1.086147327684959919e+03
4.630442596369319791e-02 1.062419360843256982e+03
4.734497486035858099e-02 1.037909697272748417e+03
4.838552375702396408e-02 1.016387000798336999e+03
4.942607265368934716e-02 9.863474190279923732e+02
5.046662155035473024e-02 9.620222356337274050e+02
5.150717044702011332e-02 9.383004510977145856e+02
5.254771934368549641e-02 9.091350774308449445e+02
5.358826824035087949e-02 8.819478966756378213e+02
5.462881713701626257e-02 8.590732235866174733e+02
5.566936603368164566e-02 8.336221320529933791e+02
5.670991493034702874e-02 8.118013097978415544e+02
5.775046382701241182e-02 7.874038193008578901e+02
5.879101272367779490e-02 7.656719745297817781e+02
5.983156162034317799e-02 7.404513225002838226e+02
6.087211051700856107e-02 7.117948467469642537e+02
6.191265941367394415e-02 6.897476873256262024e+02
6.295320831033933417e-02 6.657141301089752687e+02
6.399375720700471726e-02 6.428058918418444136e+02
6.503430610367010034e-02 6.212036454881423424e+02
6.607485500033548342e-02 5.985005800512853966e+02
6.711540389700086651e-02 5.783510857965879950e+02
6.815595279366624959e-02 5.566617547055558362e+02
6.919650169033163267e-02 5.319590646043441211e+02
7.023705058699701576e-02 5.115955900185745122e+02
7.127759948366239884e-02 4.924937467042221897e+02
7.231814838032778192e-02 4.715793550225837976e+02
7.335869727699316500e-02 4.509456457934606988e+02
7.439924617365854809e-02 4.314498847956023724e+02
7.543979507032393117e-02 4.116681930095314783e+02
7.648034396698931425e-02 3.939829740839213628e+02
7.752089286365469734e-02 3.768480232130559102e+02
7.856144176032008042e-02 3.596308500862497226e+02
7.960199065698546350e-02 3.426423528108492746e+02
8.064253955365084658e-02 3.254965291682460133e+02
8.168308845031622967e-02 3.077022465941984706e+02
8.272363734698161275e-02 2.919511029622297542e+02
8.376418624364699583e-02 2.757277943250585963e+02
8.480473514031239279e-02 2.614368221140654782e+02
8.584528403697777588e-02 2.475028509129689382e+02
8.688583293364315896e-02 2.339391726996501859e+02
8.792638183030854204e-02 2.208831748440785248e+02
8.896693072697392513e-02 2.086995764651616128e+02
9.000747962363930821e-02 1.957940489334230278e+02
9.104802852030469129e-02 1.831387540566172163e+02
9.208857741697007437e-02 1.717229164544116031e+02
9.312912631363545746e-02 1.610764746231569688e+02
9.416967521030084054e-02 1.512173604209037308e+02
9.521022410696622362e-02 1.417244345205965033e+02
9.625077300363160671e-02 1.312607743191848044e+02
9.729132190029698979e-02 1.218015635724144374e+02
9.833187079696237287e-02 1.137087795668698504e+02
9.937241969362775595e-02 1.048019996089695098e+02
1.004129685902931390e-01 9.624529267722923009e+01
1.014535174869585221e-01 8.949307754682156713e+01
1.024940663836239052e-01 8.279554719471650515e+01
1.035346152802892883e-01 7.558179798013871675e+01
1.045751641769546714e-01 6.886299422597807052e+01
1.056157130736200545e-01 6.283321984196368248e+01
1.066562619702854375e-01 5.636939786927152340e+01
1.076968108669508206e-01 5.149984594073507083e+01
1.087373597636162037e-01 4.719296249914248875e+01
1.097779086602815868e-01 4.276111904128347874e+01
1.108184575569469699e-01 3.837219314505759371e+01
1.118590064536123529e-01 3.447131374689541872e+01
1.128995553502777360e-01 3.080568919226587354e+01
1.139401042469431191e-01 2.743471523603061257e+01
1.149806531436085022e-01 2.431579807492994050e+01
1.160212020402738853e-01 2.136727787892871433e+01
1.170617509369392684e-01 1.831625136734317749e+01
1.181022998336046514e-01 1.593266820671160033e+01
1.191428487302700345e-01 1.395144453819439789e+01
1.201833976269354176e-01 1.222568231363212732e+01
1.212239465236008007e-01 1.032457908177749317e+01
1.222644954202661838e-01 8.836145404956379679e+00
1.233050443169315669e-01 7.667699996902289428e+00
1.243455932135969499e-01 6.561173442567511671e+00
1.253861421102623330e-01 5.546208233706671820e+00
1.264266910069277161e-01 4.447620617777065632e+00
1.274672399035930992e-01 4.034957433221315171e+00
1.285077888002584823e-01 3.142163426592407660e+00
1.295483376969238654e-01 2.645949273079384767e+00
1.305888865935892484e-01 2.444319146661506181e+00
1.316294354902546315e-01 2.142931055096735093e+00
1.326699843869200146e-01 2.256939845848158654e+00
1.337105332835853977e-01 2.372037460729519154e+00
1.347510821802507808e-01 2.173035581218442758e+00
1.357916310769161639e-01 2.394220254482274157e+00
1.368321799735815469e-01 2.831552273103774553e+00
1.378727288702469300e-01 3.152680449508366678e+00
1.389132777669123131e-01 3.380485323471031478e+00
1.399538266635776962e-01 3.574165025248081662e+00
1.409943755602430793e-01 3.694479450155224498e+00
1.420349244569084624e-01 4.370494907872121360e+00
1.430754733535738454e-01 4.927185348855168456e+00
1.441160222502392285e-01 5.297790706015902629e+00
1.451565711469046116e-01 5.687512873981642514e+00
1.461971200435699947e-01 6.234656570537779885e+00
1.472376689402353778e-01 6.934576991402920498e+00
1.482782178369007609e-01 7.641331318543102213e+00
1.493187667335661439e-01 7.897803375984732810e+00
1.503593156302315270e-01 8.141252033826148704e+00
1.513998645268969101e-01 8.147961104470486049e+00
1.524404134235622932e-01 8.799189207956146674e+00
1.534809623202276763e-01 9.748525058307535573e+00
1.545215112168930593e-01 9.964409707750672140e+00
1.555620601135584424e-01 1.019821446619835825e+01
1.566026090102238255e-01 1.034259037058904696e+01
1.576431579068892086e-01 1.097978746148638862e+01
1.586837068035545917e-01 1.130636821546367088e+01
1.597242557002199748e-01 1.164861354912223490e+01
1.607648045968853578e-01 1.106481942172271005e+01
1.618053534935507409e-01 1.117427220557803835e+01
1.628459023902161240e-01 1.171145126766634803e+01
1.638864512868815071e-01 1.194938235988915309e+01
1.649270001835468902e-01 1.214935678101252137e+01
1.659675490802122733e-01 1.222224843497459190e+01
1.670080979768776563e-01 1.270666740119636273e+01
1.680486468735430672e-01 1.271612187201732880e+01
1.690891957702084503e-01 1.258986748415725998e+01
1.701297446668738333e-01 1.280246680079858734e+01
1.711702935635392164e-01 1.283139714341075432e+01
1.722108424602045995e-01 1.274572723581254863e+01
1.732513913568699826e-01 1.257603142764232373e+01
1.742919402535353657e-01 1.214681972844137192e+01
1.753324891502007488e-01 1.215341366891024322e+01
1.763730380468661318e-01 1.181120943338528306e+01
1.774135869435315149e-01 1.166217555774564474e+01
1.784541358401968980e-01 1.156710693793941402e+01
1.794946847368622811e-01 1.133721369828807113e+01
1.805352336335276642e-01 1.121365646467035404e+01
1.815757825301930473e-01 1.069194586967673644e+01
1.826163314268584303e-01 1.026969466371461337e+01
1.836568803235238134e-01 1.012656857481797346e+01
1.846974292201891965e-01 1.008229160271501357e+01
1.857379781168545796e-01 9.516262617878968655e+00
1.867785270135199627e-01 9.196435407637949311e+00
1.878190759101853458e-01 8.834739187392493420e+00
1.888596248068507288e-01 8.540479994035809597e+00
1.899001737035161119e-01 8.406215725663702898e+00
1.909407226001814950e-01 8.018751629075918430e+00
1.919812714968468781e-01 7.513468873779242330e+00
1.930218203935122612e-01 7.119208272696777584e+00
1.940623692901776443e-01 6.878836233164545177e+00
1.951029181868430273e-01 6.513236778243893355e+00
1.961434670835084104e-01 6.109414209717094479e+00
1.971840159801737935e-01 5.683362487508240690e+00
1.982245648768391766e-01 5.098320262092112642e+00
1.992651137735045597e-01 4.843652546242108059e+00
2.003056626701699428e-01 4.877851831004338834e+00
2.013462115668353813e-01 4.631364752719573374e+00
2.023867604635007644e-01 4.245543167397116235e+00
2.034273093601661475e-01 4.007809459904180471e+00
2.044678582568315306e-01 3.772123729075950394e+00
2.055084071534969137e-01 3.587997122601102262e+00
2.065489560501622968e-01 3.399576430945209893e+00
2.075895049468276798e-01 3.139316847334949756e+00
2.086300538434930629e-01 2.914249320546403510e+00
2.096706027401584460e-01 2.597147166154535114e+00
2.107111516368238291e-01 2.014700824473404595e+00
2.117517005334892122e-01 2.062260130498000166e+00
2.127922494301545953e-01 2.077112343161086727e+00
2.138327983268199783e-01 1.932720916895672048e+00
2.148733472234853614e-01 1.841693811279917270e+00
2.159138961201507445e-01 1.560575753253480968e+00
2.169544450168161276e-01 1.636283463587915321e+00
2.179949939134815107e-01 1.302332703395489233e+00
2.190355428101468938e-01 1.345865753734589276e+00
2.200760917068122768e-01 1.342201524439687432e+00
2.211166406034776599e-01 1.116946704004156743e+00
2.221571895001430430e-01 9.864102658635083287e-01
2.231977383968084261e-01 8.960614742262258403e-01
2.242382872934738092e-01 9.810533762591653328e-01
2.252788361901391923e-01 1.019818337803943820e+00
2.263193850868045753e-01 9.277010984931131077e-01
2.273599339834699584e-01 7.699889711627037059e-01
2.284004828801353415e-01 9.384499702307707025e-01
2.294410317768007246e-01 1.126680581564354355e+00
2.304815806734661077e-01 9.158286540871536374e-01
2.315221295701314908e-01 7.117947943470355199e-01
2.325626784667968738e-01 6.304122738410136151e-01
2.336032273634622569e-01 7.162002481447942159e-01
2.346437762601276400e-01 7.211770780913866474e-01
2.356843251567930231e-01 7.335076693954754035e-01
2.367248740534584062e-01 7.473495749684175848e-01
2.377654229501237892e-01 9.166434813021844263e-01
2.388059718467891723e-01 1.253544773007057245e+00
2.398465207434545554e-01 1.244665753175226541e+00
2.408870696401199385e-01 1.079780844327924427e+00
2.419276185367853216e-01 1.189652290983772787e+00
2.429681674334507047e-01 1.044515220207859585e+00
2.440087163301160877e-01 1.133262423710366562e+00
2.450492652267814708e-01 1.330564790327592561e+00
2.460898141234468539e-01 1.496087712992757446e+00
2.471303630201122370e-01 1.322473441287684182e+00
2.481709119167776201e-01 1.480293794419562659e+00
2.492114608134430032e-01 1.780058418292028932e+00
2.502520097101083585e-01 1.931984134178300394e+00
2.512925586067737416e-01 1.942157758329589257e+00
2.523331075034391247e-01 2.059391304404311285e+00
2.533736564001045077e-01 2.135732065131282553e+00
2.544142052967698908e-01 1.774533039249927668e+00
2.554547541934352739e-01 1.742285896495733510e+00
2.564953030901006570e-01 1.878605703963192042e+00
2.575358519867660401e-01 2.015027836658887850e+00
2.585764008834314231e-01 2.180804232974679735e+00
2.596169497800968062e-01 2.298797475424656511e+00
2.606574986767621893e-01 2.100871075768409924e+00
2.616980475734275724e-01 2.031984746451893642e+00
2.627385964700929555e-01 2.014645423468717667e+00
2.637791453667583386e-01 2.235321690174931319e+00
2.648196942634237216e-01 2.121661717736827768e+00
2.658602431600891047e-01 2.159447269872423192e+00
2.669007920567544878e-01 2.349640071613368519e+00
2.679413409534198709e-01 2.265084929906656441e+00
2.689818898500852540e-01 2.173477182123374263e+00
2.700224387467506371e-01 2.440830892643013783e+00
2.710629876434160201e-01 2.255405298758773824e+00
2.721035365400814032e-01 2.191848081665341397e+00
2.731440854367467863e-01 2.285789316169438479e+00
2.741846343334121694e-01 2.222930366229057597e+00
2.752251832300775525e-01 1.906110137232616353e+00
2.762657321267429356e-01 1.938153678913149491e+00
2.773062810234083186e-01 2.085044516978378226e+00
2.783468299200737017e-01 1.902834567803054711e+00
2.793873788167390848e-01 1.440917774089058412e+00
2.804279277134044679e-01 1.477717881828628066e+00
2.814684766100698510e-01 1.875235102794665210e+00
2.825090255067352341e-01 1.905245959351081098e+00
2.835495744034006171e-01 1.674713694645163287e+00
2.845901233000660002e-01 1.715126678490285883e+00
2.856306721967313833e-01 1.799078058322631790e+00
2.866712210933967664e-01 1.534518573004771014e+00
2.877117699900621495e-01 1.374524021019080777e+00
2.887523188867275326e-01 1.522250387521662418e+00
2.897928677833929156e-01 1.484736902631034638e+00
2.908334166800582987e-01 1.368629442038582056e+00
2.918739655767236818e-01 1.232966750228232655e+00
2.929145144733890649e-01 1.265217647165496118e+00
2.939550633700544480e-01 1.254396216553804067e+00
2.949956122667198311e-01 1.084894368665164421e+00
2.960361611633852141e-01 1.100410961937186016e+00
2.970767100600505972e-01 1.036025099187089182e+00
2.981172589567159803e-01 8.962491584148857271e-01
2.991578078533813634e-01 1.061905020922313980e+00
3.001983567500468020e-01 1.023430778073606717e+00
3.012389056467121851e-01 9.910484528011522798e-01
3.022794545433775681e-01 9.898520887148869463e-01
3.033200034400429512e-01 9.118842863934020215e-01
3.043605523367083343e-01 8.034384217016388163e-01
3.054011012333737174e-01 7.689370574911933431e-01
3.064416501300391005e-01 8.634389164590743349e-01
3.074821990267044836e-01 6.965343138065129835e-01
3.085227479233698666e-01 5.194363057717303889e-01
3.095632968200352497e-01 5.344024492386907355e-01
3.106038457167006328e-01 5.972941354702818728e-01
3.116443946133660159e-01 6.771783635422217174e-01
3.126849435100313990e-01 6.490264148587279180e-01
3.137254924066967821e-01 6.130290887489877605e-01
3.147660413033621651e-01 6.410713843379305388e-01
3.158065902000275482e-01 4.359073481319128973e-01
3.168471390966929313e-01 3.335504312612940225e-01
3.178876879933583144e-01 5.158897687017152123e-01
3.189282368900236975e-01 4.794120683583216191e-01
3.199687857866890806e-01 5.375383469084056287e-01
3.210093346833544636e-01 6.635278011286196431e-01
3.220498835800198467e-01 4.012216535675392493e-01
3.230904324766852298e-01 2.315197653670182376e-01
3.241309813733506129e-01 6.804698818152026263e-01
3.251715302700159960e-01 6.810900484190192117e-01
3.262120791666813790e-01 6.393105962428400346e-01
3.272526280633467621e-01 7.462112038941342007e-01
3.282931769600121452e-01 6.632921864270358014e-01
3.293337258566775283e-01 6.499889387721466960e-01
3.303742747533429114e-01 6.234260817287022860e-01
3.314148236500082945e-01 4.798403129368509212e-01
3.324553725466736775e-01 3.252443221136864793e-01
3.334959214433390606e-01 4.072372909894212967e-01
3.345364703400044437e-01 5.521115737951554081e-01
3.355770192366698268e-01 6.700676880495457510e-01
3.366175681333352099e-01 7.656789652834419257e-01
3.376581170300005930e-01 6.352613548471488514e-01
3.386986659266659760e-01 6.485659104600038916e-01
3.397392148233313591e-01 7.175733717003573986e-01
3.407797637199967422e-01 7.294114548275025811e-01
3.418203126166621253e-01 6.157632124698011467e-01
3.428608615133275084e-01 4.437081729952048192e-01
3.439014104099928915e-01 5.416983038960694330e-01
3.449419593066582745e-01 6.545879270756564949e-01
3.459825082033236576e-01 8.523426905414055454e-01
3.470230570999890407e-01 8.865952192592487791e-01
3.480636059966544238e-01 7.872531730453893317e-01
3.491041548933198069e-01 8.094144942882977034e-01
3.501447037899851900e-01 8.532508678143173597e-01
3.511852526866505730e-01 9.093938415951576815e-01
3.522258015833159561e-01 9.167662821836408682e-01
3.532663504799813392e-01 1.010238247074418894e+00
3.543068993766467223e-01 9.643701687539376621e-01
3.553474482733121054e-01 8.723580456936304017e-01
3.563879971699774885e-01 7.819384469544523597e-01
3.574285460666428715e-01 5.311477267986468576e-01
3.584690949633082546e-01 6.651388388413259634e-01
3.595096438599736377e-01 9.329427014011812958e-01
3.605501927566390208e-01 8.205716060842114246e-01
3.615907416533044039e-01 9.032427383680037281e-01
3.626312905499697870e-01 7.732926055079438754e-01
3.636718394466351700e-01 7.789543416973465639e-01
3.647123883433005531e-01 6.486954611177182528e-01
3.657529372399659362e-01 7.853203666230967883e-01
3.667934861366313193e-01 6.513129393685908042e-01
3.678340350332967024e-01 8.410268788919772476e-01
3.688745839299620854e-01 7.885655933349902114e-01
3.699151328266274685e-01 7.771473342005279505e-01
3.709556817232928516e-01 7.370216492477048575e-01
3.719962306199582347e-01 8.427584635879128427e-01
3.730367795166236178e-01 9.506343305548909939e-01
3.740773284132890009e-01 7.822795062838103775e-01
3.751178773099543839e-01 6.853108275612314060e-01
3.761584262066197670e-01 9.250015250592227289e-01
3.771989751032851501e-01 1.033877310249593506e+00
3.782395239999505332e-01 7.100500991940030815e-01
3.792800728966159163e-01 5.608982105517270611e-01
3.803206217932812994e-01 7.453746767002726870e-01
3.813611706899466824e-01 8.067843457029191256e-01
3.824017195866120655e-01 6.169702317179890372e-01
3.834422684832774486e-01 6.940978044483863130e-01
3.844828173799428317e-01 6.931345540498519142e-01
3.855233662766082148e-01 7.282347495690295602e-01
3.865639151732735979e-01 6.590796841508108628e-01
3.876044640699389809e-01 4.481520419090188057e-01
3.886450129666043640e-01 3.834420362458459408e-01
3.896855618632697471e-01 5.560791865194438799e-01
3.907261107599351302e-01 5.462909966516278359e-01
3.917666596566005133e-01 7.292294070480984658e-01
3.928072085532658964e-01 7.210477747757586542e-01
3.938477574499312794e-01 4.797492363156727890e-01
3.948883063465966625e-01 5.762019620507246032e-01
3.959288552432620456e-01 5.181629426540901306e-01
3.969694041399274287e-01 4.105907930002494766e-01
3.980099530365928118e-01 5.526550309665694272e-01
3.990505019332581949e-01 6.411859832364292799e-01
4.000910508299235779e-01 6.427889858472362050e-01
4.011315997265889610e-01 5.098435657242283980e-01
4.021721486232543441e-01 3.889289316438642174e-01
4.032126975199197272e-01 4.748360829806657080e-01
4.042532464165851103e-01 4.175503567385909776e-01
4.052937953132504934e-01 4.010778571933428793e-01
4.063343442099158764e-01 4.045020488536010816e-01
4.073748931065812595e-01 5.050082036202319102e-01
4.084154420032466426e-01 5.120351970415981668e-01
4.094559908999120257e-01 4.588633376859441171e-01
4.104965397965774088e-01 3.732648492337951041e-01
4.115370886932427918e-01 3.593063372716187587e-01
4.125776375899081749e-01 4.229700364808302027e-01
4.136181864865735580e-01 4.255891491374690361e-01
4.146587353832389411e-01 5.443453751703977161e-01
4.156992842799043242e-01 4.258126367624193165e-01
4.167398331765697073e-01 3.922280019172568188e-01
4.177803820732350903e-01 4.435029135098247366e-01
4.188209309699004734e-01 4.443560094452827514e-01
4.198614798665658565e-01 4.054492521885677547e-01
4.209020287632312396e-01 4.887885279152399676e-01
4.219425776598966227e-01 3.106672983958453926e-01
4.229831265565620058e-01 4.171289691258621701e-01
4.240236754532273888e-01 4.176877444544722096e-01
4.250642243498927719e-01 3.244430344863182825e-01
4.261047732465581550e-01 2.506198851392014149e-01
4.271453221432235381e-01 4.005534807462005631e-01
4.281858710398889212e-01 4.591478867996627855e-01
4.292264199365543043e-01 3.921894260846414682e-01
4.302669688332196873e-01 5.021784485422102762e-01
4.313075177298850704e-01 6.762798577285025203e-01
4.323480666265504535e-01 5.345779120261298090e-01
4.333886155232158366e-01 5.646189518760600379e-01
4.344291644198812197e-01 7.101153609242452092e-01
