# q (1/Angstrom), Intensity (arb)
2.029070354705860696e-02 1.463742179090823356e+03
2.133125244372399004e-02 1.464004357964994824e+03
2.237180134038937659e-02 1.460240310902683632e+03
2.341235023705475968e-02 1.447526835803046424e+03
2.445289913372014276e-02 1.432090293903156635e+03
2.549344803038552584e-02 1.421264616242925058e+03
2.653399692705091240e-02 1.404100327299070159e+03
2.757454582371629548e-02 1.394714437582913888e+03
2.861509472038167856e-02 1.383198495691967764e+03
2.965564361704706164e-02 1.362529130619214811e+03
3.069619251371244473e-02 1.344915038298095396e+03
3.173674141037782781e-02 1.326366961631703361e+03
3.277729030704321089e-02 1.310141309107931647e+03
3.381783920370859398e-02 1.292068390779627634e+03
3.485838810037397706e-02 1.267137890968958118e+03
3.589893699703936014e-02 1.244314286071113202e+03
3.693948589370474322e-02 1.223437058565949883e+03
3.798003479037012631e-02 1.200113833004503476e+03
3.902058368703550939e-02 1.182108729218412691e+03
4.006113258370089247e-02 1.160574558653683653e+03
4.110168148036627556e-02 1.135241998645957437e+03
4.214223037703165864e-02 1.111033869480240810e+03
4.318277927369704866e-02 1.090708421572877342e+03
4.422332817036243174e-02 1.063373423448110316e+03
4.526387706702781483e-02 1.038540013898503958e+03
4.630442596369319791e-02 1.016587166777590596e+03
4.734497486035858099e-02 9.926125518820443858e+02
4.838552375702396408e-02 9.664066993576088862e+02
4.942607265368934716e-02 9.471786212751068206e+02
5.046662155035473024e-02 9.230000375506699584e+02
5.150717044702011332e-02 8.989606833842636888e+02
5.254771934368549641e-02 8.724412651941167951e+02
5.358826824035087949e-02 8.454113639981501365e+02
5.462881713701626257e-02 8.232080148968103686e+02
5.566936603368164566e-02 7.990185121479481722e+02
5.670991493034702874e-02 7.737027089320795312e+02
5.775046382701241182e-02 7.513825642065613692e+02
5.879101272367779490e-02 7.295504759925718190e+02
5.983156162034317799e-02 7.059941326950391840e+02
6.087211051700856107e-02 6.828083759601904603e+02
6.191265941367394415e-02 6.583737595227811426e+02
6.295320831033933417e-02 6.362059203816448871e+02
6.399375720700471726e-02 6.154727877377861205e+02
6.503430610367010034e-02 5.937212100744110330e+02
6.607485500033548342e-02 5.699259476189797624e+02
6.711540389700086651e-02 5.493440754490508198e+02
6.815595279366624959e-02 5.297975980551068460e+02
6.919650169033163267e-02 5.077234846225335332e+02
7.023705058699701576e-02 4.881448135562297352e+02
7.127759948366239884e-02 4.694059226919981143e+02
7.231814838032778192e-02 4.496916379860713278e+02
7.335869727699316500e-02 4.299078828473070075e+02
7.439924617365854809e-02 4.125661984647438771e+02
7.543979507032393117e-02 3.940947191612104916e+02
7.648034396698931425e-02 3.763441944455865382e+02
7.752089286365469734e-02 3.568635923114256912e+02
7.856144176032008042e-02 3.412736227951132832e+02
7.960199065698546350e-02 3.243069492254017518e+02
8.064253955365084658e-02 3.089214223535595920e+02
8.168308845031622967e-02 2.934169200647610865e+02
8.272363734698161275e-02 2.780043776325782119e+02
8.376418624364699583e-02 2.621424749003143688e+02
8.480473514031239279e-02 2.488669618057620028e+02
8.584528403697777588e-02 2.344586056090635964e+02
8.688583293364315896e-02 2.217978985196341171e+02
8.792638183030854204e-02 2.102775107151548468e+02
8.896693072697392513e-02 1.976511981169835508e+02
9.000747962363930821e-02 1.853101360690044430e+02
9.104802852030469129e-02 1.729976402132940052e+02
9.208857741697007437e-02 1.613896918542943126e+02
9.312912631363545746e-02 1.519727299438174271e+02
9.416967521030084054e-02 1.433238283148235155e+02
9.521022410696622362e-02 1.338802148763132038e+02
9.625077300363160671e-02 1.237948434948358170e+02
9.729132190029698979e-02 1.144210154157593422e+02
9.833187079696237287e-02 1.063655089181509084e+02
9.937241969362775595e-02 9.848404861141172262e+01
1.004129685902931390e-01 9.120244547395103041e+01
1.014535174869585221e-01 8.435950910150371840e+01
1.024940663836239052e-01 7.786209980685278254e+01
1.035346152802892883e-01 7.118730872398342058e+01
1.045751641769546714e-01 6.504510242093832062e+01
1.056157130736200545e-01 5.906284618378554541e+01
1.066562619702854375e-01 5.359026276132721023e+01
1.076968108669508206e-01 4.895940928547155124e+01
1.087373597636162037e-01 4.484380044757881478e+01
1.097779086602815868e-01 4.044987013774899509e+01
1.108184575569469699e-01 3.591366273491855310e+01
1.118590064536123529e-01 3.197654138185175654e+01
1.128995553502777360e-01 2.846299914578214540e+01
1.139401042469431191e-01 2.552546556807180878e+01
1.149806531436085022e-01 2.246675193660398406e+01
1.160212020402738853e-01 1.948382432339751347e+01
1.170617509369392684e-01 1.667406256976279622e+01
1.181022998336046514e-01 1.459350066653635736e+01
1.191428487302700345e-01 1.290725680306905332e+01
1.201833976269354176e-01 1.096839724374465064e+01
1.212239465236008007e-01 9.129431489036150538e+00
1.222644954202661838e-01 7.828238072325238051e+00
1.233050443169315669e-01 6.458810045056861071e+00
1.243455932135969499e-01 5.454182685698551580e+00
1.253861421102623330e-01 5.096920239854028978e+00
1.264266910069277161e-01 3.904722208503951464e+00
1.274672399035930992e-01 3.004352041790863126e+00
1.285077888002584823e-01 2.778387407066574610e+00
1.295483376969238654e-01 2.608223064617604336e+00
1.305888865935892484e-01 2.395660602957839558e+00
1.316294354902546315e-01 1.988204074125683007e+00
1.326699843869200146e-01 1.805411105416297346e+00
1.337105332835853977e-01 1.965693188881790121e+00
1.347510821802507808e-01 2.116005669939060141e+00
1.357916310769161639e-01 2.344480955340802808e+00
1.368321799735815469e-01 2.374064183224465552e+00
1.378727288702469300e-01 2.862702017450551750e+00
1.389132777669123131e-01 3.516176345010759263e+00
1.399538266635776962e-01 4.025502580833865807e+00
1.409943755602430793e-01 4.108462656713580685e+00
1.420349244569084624e-01 3.898716980313064795e+00
1.430754733535738454e-01 4.115942923098398154e+00
1.441160222502392285e-01 4.870487678153107680e+00
1.451565711469046116e-01 5.129943020974000234e+00
1.461971200435699947e-01 5.647887339654772632e+00
1.472376689402353778e-01 5.981832603159038086e+00
1.482782178369007609e-01 6.125432436632557653e+00
1.493187667335661439e-01 6.714035124550857603e+00
1.503593156302315270e-01 7.095554380182480969e+00
1.513998645268969101e-01 7.552441259406691643e+00
1.524404134235622932e-01 8.058100683120947849e+00
1.534809623202276763e-01 8.666472773336387547e+00
1.545215112168930593e-01 9.259273874064668064e+00
1.555620601135584424e-01 9.428669549061453381e+00
1.566026090102238255e-01 9.802074090560381592e+00
1.576431579068892086e-01 9.931334636983724096e+00
1.586837068035545917e-01 1.052671082883384202e+01
1.597242557002199748e-01 1.046951046173947475e+01
1.607648045968853578e-01 1.118676251519343623e+01
1.618053534935507409e-01 1.159815280899749013e+01
1.628459023902161240e-01 1.131330390249539164e+01
1.638864512868815071e-01 1.115275571921555908e+01
1.649270001835468902e-01 1.128016190874311064e+01
1.659675490802122733e-01 1.155806576317701229e+01
1.670080979768776563e-01 1.190158538827693846e+01
1.680486468735430672e-01 1.137283822420519286e+01
1.690891957702084503e-01 1.161914123897505036e+01
1.701297446668738333e-01 1.185507864064928185e+01
1.711702935635392164e-01 1.190828561941286168e+01
1.722108424602045995e-01 1.143014744228296564e+01
1.732513913568699826e-01 1.155978084081431945e+01
1.742919402535353657e-01 1.165805774721731325e+01
1.753324891502007488e-01 1.135915728903020039e+01
1.763730380468661318e-01 1.093459167831775147e+01
1.774135869435315149e-01 1.098996356629284321e+01
1.784541358401968980e-01 1.035224812473143174e+01
1.794946847368622811e-01 1.008073787614782191e+01
1.805352336335276642e-01 1.010175943043883251e+01
1.815757825301930473e-01 9.888466462243172828e+00
1.826163314268584303e-01 9.670091761007590492e+00
1.836568803235238134e-01 9.178051452923480014e+00
1.846974292201891965e-01 9.029517252167757135e+00
1.857379781168545796e-01 8.718357133418187743e+00
1.867785270135199627e-01 8.380220010591393986e+00
1.878190759101853458e-01 8.115789291219886792e+00
1.888596248068507288e-01 8.007999884288526715e+00
1.899001737035161119e-01 7.416420108208004791e+00
1.909407226001814950e-01 7.090013941464370362e+00
1.919812714968468781e-01 7.067741216722712494e+00
1.930218203935122612e-01 6.547347040820156394e+00
1.940623692901776443e-01 6.124499886465599729e+00
1.951029181868430273e-01 5.998772471500107173e+00
1.961434670835084104e-01 5.085383289968142151e+00
1.971840159801737935e-01 4.909387534268347508e+00
1.982245648768391766e-01 5.044899401866523192e+00
1.992651137735045597e-01 4.823375677400125738e+00
2.003056626701699428e-01 4.300769703619163664e+00
2.013462115668353813e-01 3.836916756222155556e+00
2.023867604635007644e-01 3.436329336278383551e+00
2.034273093601661475e-01 3.327620152463609315e+00
2.044678582568315306e-01 3.049731300773249387e+00
2.055084071534969137e-01 2.785685850961652221e+00
2.065489560501622968e-01 2.839015669071976333e+00
2.075895049468276798e-01 2.443233365264120494e+00
2.086300538434930629e-01 2.085348037276339994e+00
2.096706027401584460e-01 2.285272475899411404e+00
2.107111516368238291e-01 2.234138228981066732e+00
2.117517005334892122e-01 1.982801906613634202e+00
2.127922494301545953e-01 1.879900782731066755e+00
2.138327983268199783e-01 1.643983819344661867e+00
2.148733472234853614e-01 1.424876420984890757e+00
2.159138961201507445e-01 1.235767234556270466e+00
2.169544450168161276e-01 1.322210064064613277e+00
2.179949939134815107e-01 1.153346146365976210e+00
2.190355428101468938e-01 6.828727884390453085e-01
2.200760917068122768e-01 4.732808523405971357e-01
2.211166406034776599e-01 6.891206665390470221e-01
2.221571895001430430e-01 8.674312778948340963e-01
2.231977383968084261e-01 4.470687251152014596e-01
2.242382872934738092e-01 5.114546462427718154e-01
2.252788361901391923e-01 8.520244030961272586e-01
2.263193850868045753e-01 8.034450806435309289e-01
2.273599339834699584e-01 5.587550071598279544e-01
2.284004828801353415e-01 7.139546878926523732e-01
2.294410317768007246e-01 5.695157392329619483e-01
2.304815806734661077e-01 2.615869082960742276e-01
2.315221295701314908e-01 5.083718127639791362e-01
2.325626784667968738e-01 5.859978772568794625e-01
2.336032273634622569e-01 6.695684375892128060e-01
2.346437762601276400e-01 8.666924173590615510e-01
2.356843251567930231e-01 7.947964145158863403e-01
2.367248740534584062e-01 7.280928720981556523e-01
2.377654229501237892e-01 6.004686571061625955e-01
2.388059718467891723e-01 5.840365878937099353e-01
2.398465207434545554e-01 8.013580273667173515e-01
2.408870696401199385e-01 9.122387465016181807e-01
2.419276185367853216e-01 1.358179805426619424e+00
2.429681674334507047e-01 1.337820421370079060e+00
2.440087163301160877e-01 8.259482220841469768e-01
2.450492652267814708e-01 1.004575572089407842e+00
2.460898141234468539e-01 1.094204446093488770e+00
2.471303630201122370e-01 1.084715803807643653e+00
2.481709119167776201e-01 1.250634112166672196e+00
2.492114608134430032e-01 1.360698411507332395e+00
2.502520097101083585e-01 1.398050880789618589e+00
2.512925586067737416e-01 1.305202032826521474e+00
2.523331075034391247e-01 1.358444688729722571e+00
2.533736564001045077e-01 1.748667540436763090e+00
2.544142052967698908e-01 1.520476416613426807e+00
2.554547541934352739e-01 1.587097114617797899e+00
2.564953030901006570e-01 1.784698641400233043e+00
2.575358519867660401e-01 1.597499080442478459e+00
2.585764008834314231e-01 1.503753657554387502e+00
2.596169497800968062e-01 1.524660653634825280e+00
2.606574986767621893e-01 1.651650768010355819e+00
2.616980475734275724e-01 1.897390202959421401e+00
2.627385964700929555e-01 1.981071890300547977e+00
2.637791453667583386e-01 1.754194286047006557e+00
2.648196942634237216e-01 1.913745930756281410e+00
2.658602431600891047e-01 1.867664232262978175e+00
2.669007920567544878e-01 1.982934661222632400e+00
2.679413409534198709e-01 1.638673545432435930e+00
2.689818898500852540e-01 1.906952046288530767e+00
2.700224387467506371e-01 1.976666225720130399e+00
2.710629876434160201e-01 1.887540794411069811e+00
2.721035365400814032e-01 1.734510220484466458e+00
2.731440854367467863e-01 1.652390807598848710e+00
2.741846343334121694e-01 1.739264051963505864e+00
2.752251832300775525e-01 1.576000149821041418e+00
2.762657321267429356e-01 1.490221028056222252e+00
2.773062810234083186e-01 1.399312808383211149e+00
2.783468299200737017e-01 1.431817176455741247e+00
2.793873788167390848e-01 1.691785512698920968e+00
2.804279277134044679e-01 1.749383365486728792e+00
2.814684766100698510e-01 1.715686031301466130e+00
2.825090255067352341e-01 1.674614414932442230e+00
2.835495744034006171e-01 1.438173069329227616e+00
2.845901233000660002e-01 1.589042064335735915e+00
2.856306721967313833e-01 1.484631604169731389e+00
2.866712210933967664e-01 1.521383742316224641e+00
2.877117699900621495e-01 1.520504105637055403e+00
2.887523188867275326e-01 1.464760212723231092e+00
2.897928677833929156e-01 1.257210027432716259e+00
2.908334166800582987e-01 1.073601234583392738e+00
2.918739655767236818e-01 8.919935674753673993e-01
2.929145144733890649e-01 1.153589082698253776e+00
2.939550633700544480e-01 1.309195555046777315e+00
2.949956122667198311e-01 1.215892035331755494e+00
2.960361611633852141e-01 1.101057217882249972e+00
2.970767100600505972e-01 8.499180007515079183e-01
2.981172589567159803e-01 6.426012807971943630e-01
2.991578078533813634e-01 6.935223957505911585e-01
3.001983567500468020e-01 6.660975542670399818e-01
3.012389056467121851e-01 5.793337288721538414e-01
3.022794545433775681e-01 6.728406147150387540e-01
3.033200034400429512e-01 7.668533571062496890e-01
3.043605523367083343e-01 6.733669675004563260e-01
3.054011012333737174e-01 6.673157095375543690e-01
3.064416501300391005e-01 6.390491846528014719e-01
3.074821990267044836e-01 5.999158157442394668e-01
3.085227479233698666e-01 3.257979220646625151e-01
3.095632968200352497e-01 3.625368955693772932e-01
3.106038457167006328e-01 2.676413301355005103e-01
3.116443946133660159e-01 6.207621601639345954e-04
3.126849435100313990e-01 1.061992712523505134e-01
3.137254924066967821e-01 3.111667877794275228e-01
3.147660413033621651e-01 2.396950974506921739e-01
3.158065902000275482e-01 2.469398589442555192e-01
3.168471390966929313e-01 3.908822959101598826e-01
3.178876879933583144e-01 4.182978091526763365e-01
3.189282368900236975e-01 3.761125194581573794e-01
3.199687857866890806e-01 6.434642022712466769e-02
3.210093346833544636e-01 1.473406714130796047e-01
3.220498835800198467e-01 2.480926380037260515e-01
3.230904324766852298e-01 3.241976094077330117e-01
3.241309813733506129e-01 5.401840252734118053e-01
3.251715302700159960e-01 3.108727216728368603e-01
3.262120791666813790e-01 3.286911094483713214e-01
3.272526280633467621e-01 5.278177467127704858e-01
3.282931769600121452e-01 3.731000680607223785e-01
3.293337258566775283e-01 1.401896196038272535e-01
3.303742747533429114e-01 7.785492627265711008e-02
3.314148236500082945e-01 3.098780847569280184e-01
3.324553725466736775e-01 2.196714478919261637e-01
3.334959214433390606e-01 3.799996316627627380e-01
3.345364703400044437e-01 6.530203210197704777e-01
3.355770192366698268e-01 4.849869352945965773e-01
3.366175681333352099e-01 3.438441787066395250e-01
3.376581170300005930e-01 3.573778904098752207e-01
3.386986659266659760e-01 2.631943823810409810e-01
3.397392148233313591e-01 4.363291146744536775e-01
3.407797637199967422e-01 7.342310879708762172e-01
3.418203126166621253e-01 6.360675071049222140e-01
3.428608615133275084e-01 4.019115285811558635e-01
3.439014104099928915e-01 5.383749277890821361e-01
3.449419593066582745e-01 6.852497958640597631e-01
3.459825082033236576e-01 4.877035082950342826e-01
3.470230570999890407e-01 6.681652404066547035e-01
3.480636059966544238e-01 5.726371772415568273e-01
3.491041548933198069e-01 5.080710063213871308e-01
3.501447037899851900e-01 5.369931180106988222e-01
3.511852526866505730e-01 6.027944225636687747e-01
3.522258015833159561e-01 5.297812204340210940e-01
3.532663504799813392e-01 5.509744834985319528e-01
3.543068993766467223e-01 5.851673646571455834e-01
3.553474482733121054e-01 4.537687241224048762e-01
3.563879971699774885e-01 5.447840215502885997e-01
3.574285460666428715e-01 8.856879140456079824e-01
3.584690949633082546e-01 9.141904983720152700e-01
3.595096438599736377e-01 9.483277462969432747e-01
3.605501927566390208e-01 5.742487262270898896e-01
3.615907416533044039e-01 4.108753019080175761e-01
3.626312905499697870e-01 5.596802930059574521e-01
3.636718394466351700e-01 4.457643298506006602e-01
3.647123883433005531e-01 4.542386910334279548e-01
3.657529372399659362e-01 4.605369427863763576e-01
3.667934861366313193e-01 6.615622976623498630e-01
3.678340350332967024e-01 6.994715591957358924e-01
3.688745839299620854e-01 5.714070380186093701e-01
3.699151328266274685e-01 6.591933447188260686e-01
3.709556817232928516e-01 7.664295921843624626e-01
3.719962306199582347e-01 6.037867032146984059e-01
3.730367795166236178e-01 5.754904458234904041e-01
3.740773284132890009e-01 6.049488233477688937e-01
3.751178773099543839e-01 5.105556537977413711e-01
3.761584262066197670e-01 4.387879313023788086e-01
3.771989751032851501e-01 4.244578551388151766e-01
3.782395239999505332e-01 5.990226884258582629e-01
3.792800728966159163e-01 5.915369631168090336e-01
3.803206217932812994e-01 6.035462595996357038e-01
3.813611706899466824e-01 5.636280518318592669e-01
3.824017195866120655e-01 4.352351792234330219e-01
3.834422684832774486e-01 4.958261017398442050e-01
3.844828173799428317e-01 4.493094566661106626e-01
3.855233662766082148e-01 4.742080753654782654e-01
3.865639151732735979e-01 5.140891076700775386e-01
3.876044640699389809e-01 5.267203555576678298e-01
3.886450129666043640e-01 4.162651945217525906e-01
3.896855618632697471e-01 3.329807220603306916e-01
3.907261107599351302e-01 1.920701181381012645e-01
3.917666596566005133e-01 4.173686273271144387e-01
3.928072085532658964e-01 5.450179994685733220e-01
3.938477574499312794e-01 4.166971946112347780e-01
3.948883063465966625e-01 2.021787139078234929e-01
3.959288552432620456e-01 3.889305738877517626e-01
3.969694041399274287e-01 5.173585482118383538e-01
3.980099530365928118e-01 2.573582618771261821e-01
3.990505019332581949e-01 2.001491591831978667e-01
4.000910508299235779e-01 3.248197488530415455e-01
4.011315997265889610e-01 4.122448877371667209e-01
4.021721486232543441e-01 3.375640511423227963e-01
4.032126975199197272e-01 3.193130837394981825e-01
4.042532464165851103e-01 2.663949224219059886e-01
4.052937953132504934e-01 2.856329380838218412e-01
4.063343442099158764e-01 2.165050667929264705e-01
4.073748931065812595e-01 2.512328577994367151e-01
4.084154420032466426e-01 4.443388703742670032e-01
4.094559908999120257e-01 4.082165559522863418e-01
4.104965397965774088e-01 2.518956788612278785e-01
4.115370886932427918e-01 2.737178240832278675e-01
4.125776375899081749e-01 1.860368993161287676e-01
4.136181864865735580e-01 1.666316659461841709e-01
4.146587353832389411e-01 1.217954789367183821e-01
4.156992842799043242e-01 2.840868669074829711e-01
4.167398331765697073e-01 3.443915998917823629e-01
4.177803820732350903e-01 2.305437756864847643e-01
4.188209309699004734e-01 1.871434770416051663e-01
4.198614798665658565e-01 0.000000000000000000e+00
4.209020287632312396e-01 1.908572691737191462e-01
4.219425776598966227e-01 2.804730270728050812e-01
4.229831265565620058e-01 4.785134473459358162e-01
4.240236754532273888e-01 3.583585543406258012e-01
4.250642243498927719e-01 3.913519554008253465e-01
4.261047732465581550e-01 4.414636080104692439e-01
4.271453221432235381e-01 2.976919456381281748e-01
4.281858710398889212e-01 3.165548996598666065e-01
4.292264199365543043e-01 3.174834773436501223e-01
4.302669688332196873e-01 4.035541912854441193e-01
4.313075177298850704e-01 4.635573504003538403e-01
4.323480666265504535e-01 5.358395208618453864e-01
4.333886155232158366e-01 4.524626100734145950e-01
4.344291644198812197e-01 4.971544321306637926e-01
