# q (1/Angstrom), Intensity (arb)
2.029070354705860696e-02 1.527672514829074316e+03
2.133125244372399004e-02 1.524261731331187320e+03
2.237180134038937659e-02 1.515310170990392635e+03
2.341235023705475968e-02 1.510062759716549408e+03
2.445289913372014276e-02 1.503277089467129827e+03
2.549344803038552584e-02 1.490969245494919733e+03
2.653399692705091240e-02 1.468907859672940049e+03
2.757454582371629548e-02 1.451001829306026139e+03
2.861509472038167856e-02 1.436633099541209049e+03
2.965564361704706164e-02 1.423410605982948255e+03
3.069619251371244473e-02 1.409607191274305251e+03
3.173674141037782781e-02 1.393169203533318978e+03
3.277729030704321089e-02 1.374713086768255607e+03
3.381783920370859398e-02 1.353526971744529192e+03
3.485838810037397706e-02 1.329609069578247500e+03
3.589893699703936014e-02 1.305077763588893276e+03
3.693948589370474322e-02 1.280682326779553023e+03
3.798003479037012631e-02 1.261954886946117085e+03
3.902058368703550939e-02 1.237407747727358810e+03
4.006113258370089247e-02 1.212590140664978662e+03
4.110168148036627556e-02 1.188668591131734502e+03
4.214223037703165864e-02 1.162368737796454752e+03
4.318277927369704866e-02 1.139793628179260395e+03
4.422332817036243174e-02 1.116865735991660358e+03
4.526387706702781483e-02 1.089989662638656455e+03
4.630442596369319791e-02 1.063382754442601254e+03
4.734497486035858099e-02 1.039708925798314795e+03
4.838552375702396408e-02 1.015142003133339244e+03
4.942607265368934716e-02 9.910849911031853026e+02
5.046662155035473024e-02 9.649650063750499385e+02
5.150717044702011332e-02 9.391045219141652751e+02
5.254771934368549641e-02 9.122312530385313494e+02
5.358826824035087949e-02 8.877084252308866326e+02
5.462881713701626257e-02 8.622519519711673865e+02
5.566936603368164566e-02 8.370599723192829060e+02
5.670991493034702874e-02 8.113952305128068474e+02
5.775046382701241182e-02 7.883700702150838424e+02
5.879101272367779490e-02 7.649042110191018082e+02
5.983156162034317799e-02 7.409552662034968762e+02
6.087211051700856107e-02 7.152371708966239794e+02
6.191265941367394415e-02 6.925383411125294515e+02
6.295320831033933417e-02 6.714747427977292773e+02
6.399375720700471726e-02 6.470273788188352455e+02
6.503430610367010034e-02 6.245133840112846428e+02
6.607485500033548342e-02 6.008899915272880889e+02
6.711540389700086651e-02 5.786383377969245885e+02
6.815595279366624959e-02 5.589279673159313688e+02
6.919650169033163267e-02 5.366611135500068031e+02
7.023705058699701576e-02 5.132354592716795878e+02
7.127759948366239884e-02 4.940469149275260179e+02
7.231814838032778192e-02 4.738143292860038400e+02
7.335869727699316500e-02 4.539131578476756204e+02
7.439924617365854809e-02 4.336039145408199715e+02
7.543979507032393117e-02 4.154944865671894831e+02
7.648034396698931425e-02 3.952773517485632055e+02
7.752089286365469734e-02 3.772017704411111367e+02
7.856144176032008042e-02 3.607154456687135280e+02
7.960199065698546350e-02 3.430600911938984154e+02
8.064253955365084658e-02 3.262448313864115335e+02
8.168308845031622967e-02 3.115454454024305164e+02
8.272363734698161275e-02 2.951587309919958670e+02
8.376418624364699583e-02 2.788019924453232647e+02
8.480473514031239279e-02 2.635727900474325338e+02
8.584528403697777588e-02 2.498819407688803267e+02
8.688583293364315896e-02 2.352984093015928408e+02
8.792638183030854204e-02 2.219468965698521004e+02
8.896693072697392513e-02 2.074232231535577000e+02
9.000747962363930821e-02 1.942784521531149267e+02
9.104802852030469129e-02 1.828026813838706914e+02
9.208857741697007437e-02 1.733493248529440223e+02
9.312912631363545746e-02 1.611894206768685081e+02
9.416967521030084054e-02 1.493794061593191600e+02
9.521022410696622362e-02 1.397870899649710736e+02
9.625077300363160671e-02 1.309749967435819258e+02
9.729132190029698979e-02 1.220485507836984169e+02
9.833187079696237287e-02 1.132434395276720664e+02
9.937241969362775595e-02 1.049891689978185667e+02
1.004129685902931390e-01 9.690090872661942001e+01
1.014535174869585221e-01 8.946848288439180408e+01
1.024940663836239052e-01 8.254308217275035986e+01
1.035346152802892883e-01 7.523094403844453382e+01
1.045751641769546714e-01 6.860792059399639697e+01
1.056157130736200545e-01 6.271130434950668331e+01
1.066562619702854375e-01 5.805302940846651438e+01
1.076968108669508206e-01 5.259035334216220292e+01
1.087373597636162037e-01 4.725227266336569443e+01
1.097779086602815868e-01 4.316420011731770501e+01
1.108184575569469699e-01 3.896154228393966434e+01
1.118590064536123529e-01 3.453441711553304572e+01
1.128995553502777360e-01 3.077672333219151568e+01
1.139401042469431191e-01 2.712407624506447590e+01
1.149806531436085022e-01 2.387425931118477962e+01
1.160212020402738853e-01 2.145562340011895586e+01
1.170617509369392684e-01 1.900371766346075475e+01
1.181022998336046514e-01 1.635028653153410261e+01
1.191428487302700345e-01 1.427451580733727710e+01
1.201833976269354176e-01 1.238424166914596114e+01
1.212239465236008007e-01 1.096038202234008097e+01
1.222644954202661838e-01 9.054603866042459259e+00
1.233050443169315669e-01 7.733755946877028720e+00
1.243455932135969499e-01 6.779704295615598397e+00
1.253861421102623330e-01 6.143304877866153646e+00
1.264266910069277161e-01 4.795424956973324271e+00
1.274672399035930992e-01 4.140748570060875267e+00
1.285077888002584823e-01 3.753217838616585311e+00
1.295483376969238654e-01 2.901128149451825067e+00
1.305888865935892484e-01 2.535085844225001495e+00
1.316294354902546315e-01 2.383312985347188828e+00
1.326699843869200146e-01 2.439078290039660146e+00
1.337105332835853977e-01 2.622596887981242020e+00
1.347510821802507808e-01 2.422351127624086331e+00
1.357916310769161639e-01 2.520843056708596208e+00
1.368321799735815469e-01 2.384343389992888973e+00
1.378727288702469300e-01 2.709123935808253947e+00
1.389132777669123131e-01 2.930564618923281017e+00
1.399538266635776962e-01 3.436952465613078544e+00
1.409943755602430793e-01 3.958972269008466327e+00
1.420349244569084624e-01 4.565590219626272983e+00
1.430754733535738454e-01 4.936208167128352642e+00
1.441160222502392285e-01 5.203239759199071557e+00
1.451565711469046116e-01 5.486612211216858270e+00
1.461971200435699947e-01 5.818893340651264623e+00
1.472376689402353778e-01 6.606510140989239943e+00
1.482782178369007609e-01 7.359895109638110000e+00
1.493187667335661439e-01 7.707580657954384407e+00
1.503593156302315270e-01 7.855955978486058200e+00
1.513998645268969101e-01 8.009554361200990513e+00
1.524404134235622932e-01 8.734667388921494080e+00
1.534809623202276763e-01 9.330012086005055494e+00
1.545215112168930593e-01 9.769864020329290355e+00
1.555620601135584424e-01 1.012344211187077647e+01
1.566026090102238255e-01 1.026213461470537425e+01
1.576431579068892086e-01 1.042333520241632883e+01
1.586837068035545917e-01 1.076125444904984363e+01
1.597242557002199748e-01 1.112833013627363599e+01
1.607648045968853578e-01 1.142992560085914278e+01
1.618053534935507409e-01 1.177606871893685891e+01
1.628459023902161240e-01 1.188763545970785884e+01
1.638864512868815071e-01 1.221984160625170901e+01
1.649270001835468902e-01 1.253610527694606702e+01
1.659675490802122733e-01 1.253597394712472735e+01
1.670080979768776563e-01 1.252093669828984801e+01
1.680486468735430672e-01 1.254259502497506773e+01
1.690891957702084503e-01 1.261828038352832948e+01
1.701297446668738333e-01 1.235899759149089761e+01
1.711702935635392164e-01 1.244741614347127268e+01
1.722108424602045995e-01 1.232645378640443923e+01
1.732513913568699826e-01 1.192978904841596588e+01
1.742919402535353657e-01 1.198179540137478583e+01
1.753324891502007488e-01 1.225999762430932449e+01
1.763730380468661318e-01 1.213851326581474055e+01
1.774135869435315149e-01 1.177894655957795678e+01
1.784541358401968980e-01 1.144856774016639278e+01
1.794946847368622811e-01 1.107452467729926937e+01
1.805352336335276642e-01 1.095709747342790763e+01
1.815757825301930473e-01 1.076200885124385564e+01
1.826163314268584303e-01 1.016314146147664488e+01
1.836568803235238134e-01 9.656557774228097912e+00
1.846974292201891965e-01 9.391447861086074766e+00
1.857379781168545796e-01 9.235117958247638370e+00
1.867785270135199627e-01 8.952297452558287461e+00
1.878190759101853458e-01 8.542621402154267685e+00
1.888596248068507288e-01 8.488993122248313483e+00
1.899001737035161119e-01 8.309771357711589701e+00
1.909407226001814950e-01 7.961123249204408836e+00
1.919812714968468781e-01 7.844908881786523125e+00
1.930218203935122612e-01 7.490611433130951013e+00
1.940623692901776443e-01 6.790279508022532440e+00
1.951029181868430273e-01 6.562790103736368508e+00
1.961434670835084104e-01 6.216882007377080299e+00
1.971840159801737935e-01 5.972788931304190641e+00
1.982245648768391766e-01 5.694053535903382368e+00
1.992651137735045597e-01 5.060932490664338701e+00
2.003056626701699428e-01 4.685498757776002776e+00
2.013462115668353813e-01 4.742081136551551168e+00
2.023867604635007644e-01 4.412892523033850267e+00
2.034273093601661475e-01 4.357630712067997791e+00
2.044678582568315306e-01 3.996587018013084247e+00
2.055084071534969137e-01 3.574677370540737087e+00
2.065489560501622968e-01 3.220220627423117321e+00
2.075895049468276798e-01 2.972542010706089144e+00
2.086300538434930629e-01 2.696958035040264434e+00
2.096706027401584460e-01 2.674026803925496409e+00
2.107111516368238291e-01 2.505158760997101552e+00
2.117517005334892122e-01 2.107287883832739794e+00
2.127922494301545953e-01 1.779857481306372335e+00
2.138327983268199783e-01 1.649936392540123364e+00
2.148733472234853614e-01 1.435079434831369127e+00
2.159138961201507445e-01 1.340945904910029185e+00
2.169544450168161276e-01 1.507586750847089263e+00
2.179949939134815107e-01 1.629673507098463148e+00
2.190355428101468938e-01 1.327351455341702291e+00
2.200760917068122768e-01 1.015818771867213144e+00
2.211166406034776599e-01 1.062265512104925591e+00
2.221571895001430430e-01 7.060680463191779666e-01
2.231977383968084261e-01 7.219374632388948498e-01
2.242382872934738092e-01 9.519345226057644993e-01
2.252788361901391923e-01 7.670159490718333473e-01
2.263193850868045753e-01 8.105808208276208404e-01
2.273599339834699584e-01 9.192799912433642362e-01
2.284004828801353415e-01 8.658785019922135007e-01
2.294410317768007246e-01 7.377392017177157868e-01
2.304815806734661077e-01 7.394291924379885472e-01
2.315221295701314908e-01 8.234926684565628818e-01
2.325626784667968738e-01 8.384799171584056410e-01
2.336032273634622569e-01 7.571716094135538810e-01
2.346437762601276400e-01 7.322611169599113623e-01
2.356843251567930231e-01 7.953117685027422112e-01
2.367248740534584062e-01 7.556783189195748207e-01
2.377654229501237892e-01 8.333490678361528126e-01
2.388059718467891723e-01 1.043389567585187194e+00
2.398465207434545554e-01 1.124856531159434070e+00
2.408870696401199385e-01 9.399562246735442272e-01
2.419276185367853216e-01 1.322638124911158286e+00
2.429681674334507047e-01 1.533458767369378251e+00
2.440087163301160877e-01 1.531407481434701623e+00
2.450492652267814708e-01 1.482025462481857403e+00
2.460898141234468539e-01 1.434890687765069117e+00
2.471303630201122370e-01 1.351262336206225712e+00
2.481709119167776201e-01 1.539181103833531239e+00
2.492114608134430032e-01 1.711216162892906567e+00
2.502520097101083585e-01 1.705573122262201480e+00
2.512925586067737416e-01 1.459788275917112799e+00
2.523331075034391247e-01 1.430030050762098881e+00
2.533736564001045077e-01 1.581441979024983624e+00
2.544142052967698908e-01 1.713551820575048623e+00
2.554547541934352739e-01 1.603551293702444980e+00
2.564953030901006570e-01 1.920047337167996915e+00
2.575358519867660401e-01 2.019305533437950828e+00
2.585764008834314231e-01 1.959834297110578660e+00
2.596169497800968062e-01 2.063454055217455618e+00
2.606574986767621893e-01 2.220006759497394455e+00
2.616980475734275724e-01 2.391738550789057172e+00
2.627385964700929555e-01 2.408364525897521702e+00
2.637791453667583386e-01 2.219708692682591078e+00
2.648196942634237216e-01 2.264795830844427371e+00
2.658602431600891047e-01 2.286176831808305110e+00
2.669007920567544878e-01 2.101905650444361839e+00
2.679413409534198709e-01 1.948811182211223070e+00
2.689818898500852540e-01 1.915994044462632218e+00
2.700224387467506371e-01 1.979013462488019570e+00
2.710629876434160201e-01 1.904348119249231530e+00
2.721035365400814032e-01 1.765415245018722601e+00
2.731440854367467863e-01 1.894504760058779880e+00
2.741846343334121694e-01 2.062677104834168773e+00
2.752251832300775525e-01 1.929264170573841142e+00
2.762657321267429356e-01 1.908770157708197246e+00
2.773062810234083186e-01 1.822363766340064473e+00
2.783468299200737017e-01 1.768776079882226071e+00
2.793873788167390848e-01 1.458857500423665243e+00
2.804279277134044679e-01 1.647357315288537905e+00
2.814684766100698510e-01 1.719653597632532893e+00
2.825090255067352341e-01 1.770398580657236209e+00
2.835495744034006171e-01 1.560110307364269033e+00
2.845901233000660002e-01 1.614573738293334060e+00
2.856306721967313833e-01 1.323570314461186115e+00
2.866712210933967664e-01 1.423580453832315129e+00
2.877117699900621495e-01 1.533162173888388935e+00
2.887523188867275326e-01 1.472108600141375234e+00
2.897928677833929156e-01 1.282563401357752042e+00
2.908334166800582987e-01 1.295613416408773588e+00
2.918739655767236818e-01 1.298262740156417294e+00
2.929145144733890649e-01 1.307901303143960803e+00
2.939550633700544480e-01 1.190857005648542355e+00
2.949956122667198311e-01 9.511493676535742736e-01
2.960361611633852141e-01 8.952239620686270882e-01
2.970767100600505972e-01 8.947187802566709536e-01
2.981172589567159803e-01 8.754169133880225218e-01
2.991578078533813634e-01 9.288374295383512447e-01
3.001983567500468020e-01 8.830332274936836257e-01
3.012389056467121851e-01 8.999946273237142691e-01
3.022794545433775681e-01 7.774133300870325058e-01
3.033200034400429512e-01 4.549422086768188933e-01
3.043605523367083343e-01 5.750839689497482254e-01
3.054011012333737174e-01 8.489434364330534777e-01
3.064416501300391005e-01 7.625797045852635847e-01
3.074821990267044836e-01 4.790988318226858667e-01
3.085227479233698666e-01 5.300457648595582327e-01
3.095632968200352497e-01 3.978846988937050355e-01
3.106038457167006328e-01 2.048715786786097226e-01
3.116443946133660159e-01 2.612291570539397867e-01
3.126849435100313990e-01 4.878322438004900619e-01
3.137254924066967821e-01 7.456569337471350423e-01
3.147660413033621651e-01 6.825830906135550435e-01
3.158065902000275482e-01 4.161297340685727875e-01
3.168471390966929313e-01 1.612502658255650090e-01
3.178876879933583144e-01 1.746203897978091391e-01
3.189282368900236975e-01 4.186142939909665017e-01
3.199687857866890806e-01 3.784150922255236082e-01
3.210093346833544636e-01 3.867137406362495256e-01
3.220498835800198467e-01 3.591658880231030082e-01
3.230904324766852298e-01 3.893173983132527383e-01
3.241309813733506129e-01 2.294134307933823891e-01
3.251715302700159960e-01 2.320449246573552671e-01
3.262120791666813790e-01 3.321407769227313622e-01
3.272526280633467621e-01 4.792206816654385193e-01
3.282931769600121452e-01 7.145922626057377158e-01
3.293337258566775283e-01 5.313221824146943106e-01
3.303742747533429114e-01 3.047567761741980519e-01
3.314148236500082945e-01 1.761048300982288595e-01
3.324553725466736775e-01 3.799369002400823092e-01
3.334959214433390606e-01 4.553916263253867669e-01
3.345364703400044437e-01 5.366366859526756627e-01
3.355770192366698268e-01 4.975804895875270972e-01
3.366175681333352099e-01 4.248746624204891020e-01
3.376581170300005930e-01 5.992634200500859265e-01
3.386986659266659760e-01 6.729016605176560972e-01
3.397392148233313591e-01 6.132723192976605731e-01
3.407797637199967422e-01 4.772788964693468472e-01
3.418203126166621253e-01 4.109561795110998617e-01
3.428608615133275084e-01 5.774092954712024550e-01
3.439014104099928915e-01 7.401714392797451580e-01
3.449419593066582745e-01 6.407088636758651035e-01
3.459825082033236576e-01 5.406772361376930291e-01
3.470230570999890407e-01 5.953701367111357001e-01
3.480636059966544238e-01 7.382807499503591941e-01
3.491041548933198069e-01 5.713450189769133658e-01
3.501447037899851900e-01 5.476224912086777863e-01
3.511852526866505730e-01 5.926865131241534357e-01
3.522258015833159561e-01 5.746489760215567344e-01
3.532663504799813392e-01 5.769220335676727984e-01
3.543068993766467223e-01 8.345811617318048548e-01
3.553474482733121054e-01 9.866108519115286413e-01
3.563879971699774885e-01 7.879581089304217301e-01
3.574285460666428715e-01 6.604373209954026436e-01
3.584690949633082546e-01 9.318276208480256173e-01
3.595096438599736377e-01 6.463967370495851128e-01
3.605501927566390208e-01 6.343233903472267343e-01
3.615907416533044039e-01 7.781128391184388704e-01
3.626312905499697870e-01 6.791565309825138286e-01
3.636718394466351700e-01 7.041062686472763232e-01
3.647123883433005531e-01 6.565013629535130235e-01
3.657529372399659362e-01 6.362780181626419562e-01
3.667934861366313193e-01 5.448265491862152032e-01
3.678340350332967024e-01 6.844139376412954334e-01
3.688745839299620854e-01 6.927499966184704761e-01
3.699151328266274685e-01 5.158886932119948199e-01
3.709556817232928516e-01 5.397074963629648892e-01
3.719962306199582347e-01 6.727802533142401842e-01
3.730367795166236178e-01 7.159544469134004885e-01
3.740773284132890009e-01 6.170178380628819070e-01
3.751178773099543839e-01 6.327206080060214788e-01
3.761584262066197670e-01 7.331256875806992923e-01
3.771989751032851501e-01 6.442679022661224053e-01
3.782395239999505332e-01 6.012704134875512807e-01
3.792800728966159163e-01 7.090863338920279091e-01
3.803206217932812994e-01 5.866359435194326011e-01
3.813611706899466824e-01 4.648302181827830282e-01
3.824017195866120655e-01 5.412738782183588171e-01
3.834422684832774486e-01 5.479330466468219640e-01
3.844828173799428317e-01 4.403233193840065951e-01
3.855233662766082148e-01 3.414910625729312699e-01
3.865639151732735979e-01 3.784985962117417557e-01
3.876044640699389809e-01 5.560335378304692711e-01
3.886450129666043640e-01 6.086551664168347031e-01
3.896855618632697471e-01 4.866113319562188622e-01
3.907261107599351302e-01 4.528337551492604973e-01
3.917666596566005133e-01 6.061645576804792768e-01
3.928072085532658964e-01 6.436516539274137472e-01
3.938477574499312794e-01 5.415276753317144198e-01
3.948883063465966625e-01 3.058091182000843844e-01
3.959288552432620456e-01 3.390279875604136350e-01
3.969694041399274287e-01 3.726424034363695625e-01
3.980099530365928118e-01 4.810651173064286468e-01
3.990505019332581949e-01 3.081277082783202559e-01
4.000910508299235779e-01 3.581506032045709276e-01
4.011315997265889610e-01 4.209042104689046937e-01
4.021721486232543441e-01 2.761159543492048840e-01
4.032126975199197272e-01 3.608099266581135112e-01
4.042532464165851103e-01 4.171695095108702844e-01
4.052937953132504934e-01 4.058705624677720891e-01
4.063343442099158764e-01 4.302633896863845564e-01
4.073748931065812595e-01 3.883821731731202931e-01
4.084154420032466426e-01 4.185339867706723282e-01
4.094559908999120257e-01 2.414003570277252209e-01
4.104965397965774088e-01 2.452318776518467303e-01
4.115370886932427918e-01 3.228159847269260752e-01
4.125776375899081749e-01 2.121100257146544266e-01
4.136181864865735580e-01 2.084443842283363324e-01
4.146587353832389411e-01 4.020413622704062107e-01
4.156992842799043242e-01 4.498679221715704557e-01
4.167398331765697073e-01 4.208203898124409648e-01
4.177803820732350903e-01 3.732851240087668998e-01
4.188209309699004734e-01 4.762894178175187676e-01
4.198614798665658565e-01 4.779138875560988708e-01
4.209020287632312396e-01 3.435756391262998477e-01
4.219425776598966227e-01 2.742639515812435036e-01
4.229831265565620058e-01 3.845683091039049373e-01
4.240236754532273888e-01 2.899405767796778832e-01
4.250642243498927719e-01 2.790017795400814293e-01
4.261047732465581550e-01 3.238805296922571131e-01
4.271453221432235381e-01 3.329446556293689241e-01
4.281858710398889212e-01 3.789089544572128432e-01
4.292264199365543043e-01 3.254383705826739970e-01
4.302669688332196873e-01 3.854163013605251820e-01
4.313075177298850704e-01 4.104426682083790467e-01
4.323480666265504535e-01 1.637893418327927009e-01
4.333886155232158366e-01 9.098138298996261142e-02
4.344291644198812197e-01 2.295972628093565504e-01
