# q (1/Angstrom), Intensity (arb)
2.029070354705860696e-02 1.547935244850650633e+03
2.133125244372399004e-02 1.540190032362293096e+03
2.237180134038937659e-02 1.531636154724152675e+03
2.341235023705475968e-02 1.522375469013569273e+03
2.445289913372014276e-02 1.514923447713063752e+03
2.549344803038552584e-02 1.502395754084021746e+03
2.653399692705091240e-02 1.488861251456499303e+03
2.757454582371629548e-02 1.472986948288575604e+03
2.861509472038167856e-02 1.456597990010423018e+03
2.965564361704706164e-02 1.439278038980154861e+03
3.069619251371244473e-02 1.422718518558744563e+03
3.173674141037782781e-02 1.402746393702622754e+03
3.277729030704321089e-02 1.382413798609983814e+03
3.381783920370859398e-02 1.359550941177033337e+03
3.485838810037397706e-02 1.339891605833056246e+03
3.589893699703936014e-02 1.317930046219973974e+03
3.693948589370474322e-02 1.297749550325295559e+03
3.798003479037012631e-02 1.273286766680702613e+03
3.902058368703550939e-02 1.244908597919592239e+03
4.006113258370089247e-02 1.225011742681702117e+03
4.110168148036627556e-02 1.199992301125524364e+03
4.214223037703165864e-02 1.178444060251234760e+03
4.318277927369704866e-02 1.149561655670703658e+03
4.422332817036243174e-02 1.126475816518821830e+03
4.526387706702781483e-02 1.101175180894319055e+03
4.630442596369319791e-02 1.074459385539563300e+03
4.734497486035858099e-02 1.051413884727346385e+03
4.838552375702396408e-02 1.029363210470284230e+03
4.942607265368934716e-02 1.001052922757613828e+03
5.046662155035473024e-02 9.705797223855194034e+02
5.150717044702011332e-02 9.475549768765989711e+02
5.254771934368549641e-02 9.249703100762051236e+02
5.358826824035087949e-02 8.968807263980340849e+02
5.462881713701626257e-02 8.703745057277976684e+02
5.566936603368164566e-02 8.466977060450019508e+02
5.670991493034702874e-02 8.243774881558721290e+02
5.775046382701241182e-02 7.994425900004112009e+02
5.879101272367779490e-02 7.735819456350533301e+02
5.983156162034317799e-02 7.503944700319335652e+02
6.087211051700856107e-02 7.248735086711477607e+02
6.191265941367394415e-02 7.013658157122537204e+02
6.295320831033933417e-02 6.789152367727839419e+02
6.399375720700471726e-02 6.567832026218724195e+02
6.503430610367010034e-02 6.309846550507576239e+02
6.607485500033548342e-02 6.053765089703507556e+02
6.711540389700086651e-02 5.835947144809656493e+02
6.815595279366624959e-02 5.619335578276763954e+02
6.919650169033163267e-02 5.423906695616950628e+02
7.023705058699701576e-02 5.213959947990599630e+02
7.127759948366239884e-02 4.976097602656104186e+02
7.231814838032778192e-02 4.791978342540497806e+02
7.335869727699316500e-02 4.593059632984667928e+02
7.439924617365854809e-02 4.385945680162499798e+02
7.543979507032393117e-02 4.205160019589148419e+02
7.648034396698931425e-02 4.012568411203779419e+02
7.752089286365469734e-02 3.810533917606636578e+02
7.856144176032008042e-02 3.645240272492648046e+02
7.960199065698546350e-02 3.467474252055402530e+02
8.064253955365084658e-02 3.285933533385309033e+02
8.168308845031622967e-02 3.115339523076873434e+02
8.272363734698161275e-02 2.963862451079970697e+02
8.376418624364699583e-02 2.812176330461995235e+02
8.480473514031239279e-02 2.656337145392604953e+02
8.584528403697777588e-02 2.515277325513414439e+02
8.688583293364315896e-02 2.371343009954189540e+02
8.792638183030854204e-02 2.244398212820637468e+02
8.896693072697392513e-02 2.128040153726069548e+02
9.000747962363930821e-02 2.003709740313145744e+02
9.104802852030469129e-02 1.877457739586343735e+02
9.208857741697007437e-02 1.748885337531868913e+02
9.312912631363545746e-02 1.637593012100695660e+02
9.416967521030084054e-02 1.530644606333014508e+02
9.521022410696622362e-02 1.426483558372885909e+02
9.625077300363160671e-02 1.336434843677789956e+02
9.729132190029698979e-02 1.242785268959858058e+02
9.833187079696237287e-02 1.141003212325061327e+02
9.937241969362775595e-02 1.061613067421411358e+02
1.004129685902931390e-01 9.840353909406162813e+01
1.014535174869585221e-01 9.051318667038941612e+01
1.024940663836239052e-01 8.204573950867272458e+01
1.035346152802892883e-01 7.570613125164418022e+01
1.045751641769546714e-01 7.001228380372413085e+01
1.056157130736200545e-01 6.348055109350228520e+01
1.066562619702854375e-01 5.840045195065853534e+01
1.076968108669508206e-01 5.291909503147114435e+01
1.087373597636162037e-01 4.779266092133910604e+01
1.097779086602815868e-01 4.341894391501899975e+01
1.108184575569469699e-01 3.875979635780297627e+01
1.118590064536123529e-01 3.486288815528359208e+01
1.128995553502777360e-01 3.082778522162053392e+01
1.139401042469431191e-01 2.774160224942260911e+01
1.149806531436085022e-01 2.491237343792275993e+01
1.160212020402738853e-01 2.183115899722623254e+01
1.170617509369392684e-01 1.895903991129815225e+01
1.181022998336046514e-01 1.631522455200439481e+01
1.191428487302700345e-01 1.439071798814336134e+01
1.201833976269354176e-01 1.256422068495916378e+01
1.212239465236008007e-01 1.032128019405123709e+01
1.222644954202661838e-01 8.723711091210034851e+00
1.233050443169315669e-01 7.699990606176228880e+00
1.243455932135969499e-01 6.501215094027447350e+00
1.253861421102623330e-01 5.253933580782565116e+00
1.264266910069277161e-01 4.747867312559115760e+00
1.274672399035930992e-01 4.002848202376302567e+00
1.285077888002584823e-01 3.505668302337959119e+00
1.295483376969238654e-01 2.964288096090520241e+00
1.305888865935892484e-01 2.547769007704946631e+00
1.316294354902546315e-01 2.667836545384385971e+00
1.326699843869200146e-01 2.521249446796613114e+00
1.337105332835853977e-01 2.519056004216849942e+00
1.347510821802507808e-01 2.531759411676546279e+00
1.357916310769161639e-01 2.368518477405892497e+00
1.368321799735815469e-01 2.560466115610871896e+00
1.378727288702469300e-01 3.171559262411847158e+00
1.389132777669123131e-01 3.400898485631500989e+00
1.399538266635776962e-01 3.396885348662308957e+00
1.409943755602430793e-01 3.485685384381646656e+00
1.420349244569084624e-01 3.730437375974975822e+00
1.430754733535738454e-01 4.214199999373278160e+00
1.441160222502392285e-01 4.841724740076337241e+00
1.451565711469046116e-01 5.269603845545084653e+00
1.461971200435699947e-01 5.550923076652509280e+00
1.472376689402353778e-01 6.472906065312017176e+00
1.482782178369007609e-01 6.891788734713021114e+00
1.493187667335661439e-01 7.191687014590527838e+00
1.503593156302315270e-01 7.378499719331497175e+00
1.513998645268969101e-01 7.852216396897581774e+00
1.524404134235622932e-01 8.562045215150700272e+00
1.534809623202276763e-01 9.158349865776621357e+00
1.545215112168930593e-01 9.659928707119107116e+00
1.555620601135584424e-01 9.872692851580993079e+00
1.566026090102238255e-01 1.001950461898890765e+01
1.576431579068892086e-01 1.078271382865018069e+01
1.586837068035545917e-01 1.093149175855339550e+01
1.597242557002199748e-01 1.099043806926633948e+01
1.607648045968853578e-01 1.139723723142981981e+01
1.618053534935507409e-01 1.228439261666552440e+01
1.628459023902161240e-01 1.248639486149997424e+01
1.638864512868815071e-01 1.220565053440535408e+01
1.649270001835468902e-01 1.247776019871049158e+01
1.659675490802122733e-01 1.237366421094888480e+01
1.670080979768776563e-01 1.255908991160374200e+01
1.680486468735430672e-01 1.284980459200761516e+01
1.690891957702084503e-01 1.252957803025441308e+01
1.701297446668738333e-01 1.285417910892007143e+01
1.711702935635392164e-01 1.290606188099210527e+01
1.722108424602045995e-01 1.246172088002459688e+01
1.732513913568699826e-01 1.211444948601514326e+01
1.742919402535353657e-01 1.169712528384743777e+01
1.753324891502007488e-01 1.179866805273797681e+01
1.763730380468661318e-01 1.173087362072255857e+01
1.774135869435315149e-01 1.135282186575636132e+01
1.784541358401968980e-01 1.135822073234684026e+01
1.794946847368622811e-01 1.117643543890817881e+01
1.805352336335276642e-01 1.094846238204657851e+01
1.815757825301930473e-01 1.064910724272504083e+01
1.826163314268584303e-01 1.007020765069816193e+01
1.836568803235238134e-01 1.000632357665931949e+01
1.846974292201891965e-01 1.006809478929805124e+01
1.857379781168545796e-01 9.340443556264322211e+00
1.867785270135199627e-01 8.776719673806034905e+00
1.878190759101853458e-01 8.713447775234421044e+00
1.888596248068507288e-01 8.274240583797762838e+00
1.899001737035161119e-01 7.954861768843148440e+00
1.909407226001814950e-01 7.712384901044675445e+00
1.919812714968468781e-01 7.427304361112497588e+00
1.930218203935122612e-01 7.096819486287049727e+00
1.940623692901776443e-01 6.842721050210837319e+00
1.951029181868430273e-01 6.469603653506013075e+00
1.961434670835084104e-01 6.079031602818002256e+00
1.971840159801737935e-01 5.453048345858512391e+00
1.982245648768391766e-01 5.410175534603610004e+00
1.992651137735045597e-01 5.284392916764737436e+00
2.003056626701699428e-01 4.887328055056602949e+00
2.013462115668353813e-01 4.456225224827004894e+00
2.023867604635007644e-01 4.137993948841444336e+00
2.034273093601661475e-01 3.878421688261465050e+00
2.044678582568315306e-01 3.733090235342633179e+00
2.055084071534969137e-01 3.740190380117532243e+00
2.065489560501622968e-01 3.146146810416524886e+00
2.075895049468276798e-01 2.789535858056051865e+00
2.086300538434930629e-01 2.576978775253536469e+00
2.096706027401584460e-01 2.374981181028825716e+00
2.107111516368238291e-01 2.274226814257250595e+00
2.117517005334892122e-01 2.081259152796697265e+00
2.127922494301545953e-01 1.851015568333025385e+00
2.138327983268199783e-01 1.612115870003943741e+00
2.148733472234853614e-01 1.521946165746260959e+00
2.159138961201507445e-01 1.378323871800134270e+00
2.169544450168161276e-01 1.356400543032371786e+00
2.179949939134815107e-01 1.187974497189138390e+00
2.190355428101468938e-01 1.218677321307570338e+00
2.200760917068122768e-01 1.109990969362410596e+00
2.211166406034776599e-01 8.162727797962539000e-01
2.221571895001430430e-01 8.666354877487734143e-01
2.231977383968084261e-01 8.739202761367934613e-01
2.242382872934738092e-01 5.427589958211562760e-01
2.252788361901391923e-01 7.297975288671452176e-01
2.263193850868045753e-01 6.614450909579190352e-01
2.273599339834699584e-01 6.743713391559005288e-01
2.284004828801353415e-01 8.530887874085451017e-01
2.294410317768007246e-01 5.604523747643916920e-01
2.304815806734661077e-01 6.800871090968421129e-01
2.315221295701314908e-01 9.622644973926739453e-01
2.325626784667968738e-01 9.703709712115902164e-01
2.336032273634622569e-01 9.771960207753984662e-01
2.346437762601276400e-01 9.878025186205618979e-01
2.356843251567930231e-01 1.030993549404833232e+00
2.367248740534584062e-01 1.050970423523967412e+00
2.377654229501237892e-01 8.764430059480012858e-01
2.388059718467891723e-01 8.720967282765030859e-01
2.398465207434545554e-01 1.016993736271267323e+00
2.408870696401199385e-01 9.891963959931082684e-01
2.419276185367853216e-01 1.097921163787553667e+00
2.429681674334507047e-01 1.370457379742298087e+00
2.440087163301160877e-01 1.547867631199224547e+00
2.450492652267814708e-01 1.234381740839353370e+00
2.460898141234468539e-01 1.345134298659665717e+00
2.471303630201122370e-01 1.414975309981326035e+00
2.481709119167776201e-01 1.352668646659996199e+00
2.492114608134430032e-01 1.334475055169260571e+00
2.502520097101083585e-01 1.685034570124951614e+00
2.512925586067737416e-01 1.683845521557614688e+00
2.523331075034391247e-01 1.799328236284079452e+00
2.533736564001045077e-01 1.792675608379308727e+00
2.544142052967698908e-01 1.906048424943854513e+00
2.554547541934352739e-01 2.030555639348193608e+00
2.564953030901006570e-01 1.891410546571631102e+00
2.575358519867660401e-01 2.171028324135754417e+00
2.585764008834314231e-01 1.973939918951064243e+00
2.596169497800968062e-01 1.743640825559598539e+00
2.606574986767621893e-01 1.843158827940914790e+00
2.616980475734275724e-01 1.873656374698938976e+00
2.627385964700929555e-01 1.847473436916850176e+00
2.637791453667583386e-01 1.809220274954277841e+00
2.648196942634237216e-01 1.956959692559596675e+00
2.658602431600891047e-01 2.213455316823843333e+00
2.669007920567544878e-01 2.016500400688659767e+00
2.679413409534198709e-01 1.951678827512612457e+00
2.689818898500852540e-01 1.946207135894635343e+00
2.700224387467506371e-01 1.981098700591012118e+00
2.710629876434160201e-01 1.986476889553973280e+00
2.721035365400814032e-01 2.126546035686846636e+00
2.731440854367467863e-01 2.358094470779601437e+00
2.741846343334121694e-01 2.300418056034910563e+00
2.752251832300775525e-01 2.020036726459878196e+00
2.762657321267429356e-01 1.982036932531450191e+00
2.773062810234083186e-01 2.081387434239253764e+00
2.783468299200737017e-01 1.935067312750017976e+00
2.793873788167390848e-01 1.730305508097231382e+00
2.804279277134044679e-01 1.642859952971278403e+00
2.814684766100698510e-01 1.557189684844320965e+00
2.825090255067352341e-01 1.639856470206346728e+00
2.835495744034006171e-01 1.668717212722945931e+00
2.845901233000660002e-01 1.323513846670170580e+00
2.856306721967313833e-01 1.213481854189797815e+00
2.866712210933967664e-01 1.202346346596833371e+00
2.877117699900621495e-01 1.396955718926580658e+00
2.887523188867275326e-01 1.430164040012638083e+00
2.897928677833929156e-01 1.470045680344359340e+00
2.908334166800582987e-01 1.122907060857286865e+00
2.918739655767236818e-01 1.149872823321640425e+00
2.929145144733890649e-01 1.233658689043270584e+00
2.939550633700544480e-01 1.210790301020864490e+00
2.949956122667198311e-01 1.166462741466467889e+00
2.960361611633852141e-01 9.254090002477859400e-01
2.970767100600505972e-01 1.039974027521495259e+00
2.981172589567159803e-01 1.067183405813516117e+00
2.991578078533813634e-01 9.357564492346170937e-01
3.001983567500468020e-01 7.526517410323521062e-01
3.012389056467121851e-01 6.230552635888173540e-01
3.022794545433775681e-01 8.745115760092296853e-01
3.033200034400429512e-01 6.159631881500295947e-01
3.043605523367083343e-01 4.671659142000663678e-01
3.054011012333737174e-01 3.694508149252619944e-01
3.064416501300391005e-01 3.800245508719193310e-01
3.074821990267044836e-01 5.271426117024873292e-01
3.085227479233698666e-01 5.526237069716053441e-01
3.095632968200352497e-01 5.442384706935357030e-01
3.106038457167006328e-01 5.876462392114447653e-01
3.116443946133660159e-01 3.829021114499653322e-01
3.126849435100313990e-01 4.928468307719420238e-01
3.137254924066967821e-01 5.747607288923504143e-01
3.147660413033621651e-01 4.870533482356158572e-01
3.158065902000275482e-01 4.828156474465714609e-01
3.168471390966929313e-01 5.130460051139635880e-01
3.178876879933583144e-01 2.501724165234975317e-01
3.189282368900236975e-01 3.451747512153247044e-01
3.199687857866890806e-01 5.057319836381104494e-01
3.210093346833544636e-01 2.918880126377487727e-01
3.220498835800198467e-01 4.400418928033253962e-01
3.230904324766852298e-01 4.247945183427823679e-01
3.241309813733506129e-01 3.218767086273466305e-01
3.251715302700159960e-01 4.147442030890040598e-01
3.262120791666813790e-01 3.973027192259621643e-01
3.272526280633467621e-01 3.772902140123086667e-01
3.282931769600121452e-01 1.087296508096180503e-01
3.293337258566775283e-01 1.695881192044836894e-01
3.303742747533429114e-01 4.008439597104178631e-01
3.314148236500082945e-01 5.001686520402870428e-01
3.324553725466736775e-01 6.420884237075519252e-01
3.334959214433390606e-01 4.443648641811286382e-01
3.345364703400044437e-01 3.654672069138911183e-01
3.355770192366698268e-01 4.690532222631524917e-01
3.366175681333352099e-01 2.032279518223667480e-01
3.376581170300005930e-01 2.043629515020128906e-01
3.386986659266659760e-01 3.762751672796404989e-01
3.397392148233313591e-01 4.988568751617421526e-01
3.407797637199967422e-01 5.070209024672749365e-01
3.418203126166621253e-01 5.159381261348947589e-01
3.428608615133275084e-01 3.579768274112709037e-01
3.439014104099928915e-01 3.345763023287204874e-01
3.449419593066582745e-01 3.354515308577674659e-01
3.459825082033236576e-01 4.665072775550846984e-01
3.470230570999890407e-01 5.071412916516031544e-01
3.480636059966544238e-01 5.507617253778214206e-01
3.491041548933198069e-01 5.458266052799594092e-01
3.501447037899851900e-01 5.040699642162707050e-01
3.511852526866505730e-01 4.503258830689311765e-01
3.522258015833159561e-01 4.000901150705011844e-01
3.532663504799813392e-01 4.781626199416209033e-01
3.543068993766467223e-01 7.051958610702335761e-01
3.553474482733121054e-01 7.125887464693150264e-01
3.563879971699774885e-01 8.228249210314757534e-01
3.574285460666428715e-01 7.270619960840960516e-01
3.584690949633082546e-01 8.572945529152029565e-01
3.595096438599736377e-01 6.315615809404704351e-01
3.605501927566390208e-01 4.908440556467965621e-01
3.615907416533044039e-01 6.504824125069070817e-01
3.626312905499697870e-01 6.423999821693051615e-01
3.636718394466351700e-01 7.051393916290393804e-01
3.647123883433005531e-01 8.106556860979203805e-01
3.657529372399659362e-01 7.131087134279994189e-01
3.667934861366313193e-01 7.341393273147538423e-01
3.678340350332967024e-01 7.034043929369317993e-01
3.688745839299620854e-01 5.719681055030036987e-01
3.699151328266274685e-01 6.234556482003164035e-01
3.709556817232928516e-01 5.075638470343299957e-01
3.719962306199582347e-01 4.394691206821192964e-01
3.730367795166236178e-01 5.584764697482853535e-01
3.740773284132890009e-01 5.083341497674993548e-01
3.751178773099543839e-01 5.474734671372303296e-01
3.761584262066197670e-01 5.895669735313404658e-01
3.771989751032851501e-01 6.276250734959631927e-01
3.782395239999505332e-01 7.313123860177874747e-01
3.792800728966159163e-01 6.332234558825007298e-01
3.803206217932812994e-01 6.616945882135141233e-01
3.813611706899466824e-01 6.781330039249837682e-01
3.824017195866120655e-01 5.098863294539874857e-01
3.834422684832774486e-01 5.418185461265849767e-01
3.844828173799428317e-01 6.328342156881134883e-01
3.855233662766082148e-01 5.845881184453176616e-01
3.865639151732735979e-01 5.283500739700244253e-01
3.876044640699389809e-01 4.550635027926759335e-01
3.886450129666043640e-01 4.775110724445745802e-01
3.896855618632697471e-01 5.126605160455213195e-01
3.907261107599351302e-01 4.371196858368087135e-01
3.917666596566005133e-01 2.457863402573252642e-01
3.928072085532658964e-01 3.111259444246776695e-01
3.938477574499312794e-01 3.962651416527016579e-01
3.948883063465966625e-01 3.061577837918711964e-01
3.959288552432620456e-01 2.412837353205965485e-01
3.969694041399274287e-01 1.290820908551637558e-01
3.980099530365928118e-01 3.066354269355855422e-01
3.990505019332581949e-01 2.450244180369587355e-01
4.000910508299235779e-01 2.240100435582661476e-01
4.011315997265889610e-01 2.081459409197456978e-01
4.021721486232543441e-01 1.795047667243743206e-01
4.032126975199197272e-01 3.253141594664477054e-01
4.042532464165851103e-01 4.321777768033037148e-01
4.052937953132504934e-01 3.452925673261013628e-01
4.063343442099158764e-01 3.706600526482723978e-01
4.073748931065812595e-01 3.498698658458998523e-01
4.084154420032466426e-01 2.421400383695839764e-01
4.094559908999120257e-01 1.727573179036951956e-01
4.104965397965774088e-01 2.630386622083236148e-01
4.115370886932427918e-01 1.700459321998550877e-01
4.125776375899081749e-01 2.583951370962580540e-01
4.136181864865735580e-01 3.030319130776781833e-01
4.146587353832389411e-01 1.751683611260723694e-01
4.156992842799043242e-01 1.755244415763321797e-01
4.167398331765697073e-01 1.677307976272892631e-01
4.177803820732350903e-01 2.688779013171149757e-01
4.188209309699004734e-01 3.018289875471964478e-01
4.198614798665658565e-01 3.727433144700462719e-01
4.209020287632312396e-01 3.191387535385885599e-01
4.219425776598966227e-01 3.608215004667876258e-01
4.229831265565620058e-01 3.477531312543398201e-01
4.240236754532273888e-01 2.664670238621233977e-01
4.250642243498927719e-01 3.382181365071694756e-01
4.261047732465581550e-01 2.741265100736427485e-01
4.271453221432235381e-01 3.848891719191520622e-01
4.281858710398889212e-01 3.792180949669621270e-01
4.292264199365543043e-01 3.514902544461371292e-01
4.302669688332196873e-01 3.647029027452965977e-01
4.313075177298850704e-01 1.584837092266475622e-01
4.323480666265504535e-01 1.658409946401491197e-01
4.333886155232158366e-01 3.985491958468259099e-01
4.344291644198812197e-01 4.644628041092140336e-01
