# q (1/Angstrom), Intensity (arb)
2.029070354705860696e-02 1.466103767206851444e+03
2.133125244372399004e-02 1.463897498850221382e+03
2.237180134038937659e-02 1.460881653243976416e+03
2.341235023705475968e-02 1.443324465588306794e+03
2.445289913372014276e-02 1.429736759183994991e+03
2.549344803038552584e-02 1.423338383130666443e+03
2.653399692705091240e-02 1.416270457915530415e+03
2.757454582371629548e-02 1.399590490340334327e+03
2.861509472038167856e-02 1.379037520431065559e+03
2.965564361704706164e-02 1.366302185075266379e+03
3.069619251371244473e-02 1.352169287808053014e+03
3.173674141037782781e-02 1.331699915215264582e+03
3.277729030704321089e-02 1.310504121368023107e+03
3.381783920370859398e-02 1.290180556468832265e+03
3.485838810037397706e-02 1.267841603015576766e+03
3.589893699703936014e-02 1.250506870968320527e+03
3.693948589370474322e-02 1.229180721143624396e+03
3.798003479037012631e-02 1.207601357059514839e+03
3.902058368703550939e-02 1.185097752396256055e+03
4.006113258370089247e-02 1.159812346034912252e+03
4.110168148036627556e-02 1.134778121457005227e+03
4.214223037703165864e-02 1.113477854479598136e+03
4.318277927369704866e-02 1.087669497276323455e+03
4.422332817036243174e-02 1.063954258333256803e+03
4.526387706702781483e-02 1.042728222248468455e+03
4.630442596369319791e-02 1.018925434268629942e+03
4.734497486035858099e-02 9.957275587858993049e+02
4.838552375702396408e-02 9.706705374889388622e+02
4.942607265368934716e-02 9.456944709400012243e+02
5.046662155035473024e-02 9.220484366779228367e+02
5.150717044702011332e-02 8.996902298490438170e+02
5.254771934368549641e-02 8.741473958573041045e+02
5.358826824035087949e-02 8.505911182522606850e+02
5.462881713701626257e-02 8.269946812496075381e+02
5.566936603368164566e-02 7.994336907146898739e+02
5.670991493034702874e-02 7.762818733573126337e+02
5.775046382701241182e-02 7.534632944850125114e+02
5.879101272367779490e-02 7.296326230180924313e+02
5.983156162034317799e-02 7.069206859672327710e+02
6.087211051700856107e-02 6.841410848147454544e+02
6.191265941367394415e-02 6.612802775090998466e+02
6.295320831033933417e-02 6.425400362426451011e+02
6.399375720700471726e-02 6.169428669858974672e+02
6.503430610367010034e-02 5.942875731842552796e+02
6.607485500033548342e-02 5.743471618885514545e+02
6.711540389700086651e-02 5.512516650596110139e+02
6.815595279366624959e-02 5.307338045267779307e+02
6.919650169033163267e-02 5.091809700116650674e+02
7.023705058699701576e-02 4.882160935094681804e+02
7.127759948366239884e-02 4.689569265411417973e+02
7.231814838032778192e-02 4.505261404593227326e+02
7.335869727699316500e-02 4.317426143232428331e+02
7.439924617365854809e-02 4.119867019504334849e+02
7.543979507032393117e-02 3.948811466577729448e+02
7.648034396698931425e-02 3.762678225164368087e+02
7.752089286365469734e-02 3.583643795343837724e+02
7.856144176032008042e-02 3.418013876324774856e+02
7.960199065698546350e-02 3.272131831904692945e+02
8.064253955365084658e-02 3.099657659244139722e+02
8.168308845031622967e-02 2.939735594337971065e+02
8.272363734698161275e-02 2.800814717164439571e+02
8.376418624364699583e-02 2.658050065734851728e+02
8.480473514031239279e-02 2.515917121147582520e+02
8.584528403697777588e-02 2.378692391093723870e+02
8.688583293364315896e-02 2.245338473275224658e+02
8.792638183030854204e-02 2.108277191688727896e+02
8.896693072697392513e-02 1.988812313730374797e+02
9.000747962363930821e-02 1.869048890941959371e+02
9.104802852030469129e-02 1.751328974717971221e+02
9.208857741697007437e-02 1.637894721303894698e+02
9.312912631363545746e-02 1.529271022344211417e+02
9.416967521030084054e-02 1.443084871046842181e+02
9.521022410696622362e-02 1.347405861634604207e+02
9.625077300363160671e-02 1.245112504456043894e+02
9.729132190029698979e-02 1.162412419531521692e+02
9.833187079696237287e-02 1.073607054964299152e+02
9.937241969362775595e-02 9.983330506595970633e+01
1.004129685902931390e-01 9.240628878540969993e+01
1.014535174869585221e-01 8.489303806513996165e+01
1.024940663836239052e-01 7.786396027177784163e+01
1.035346152802892883e-01 7.157975789506606645e+01
1.045751641769546714e-01 6.506682464707398594e+01
1.056157130736200545e-01 5.915305373016325063e+01
1.066562619702854375e-01 5.341009355476288079e+01
1.076968108669508206e-01 4.825802846214165243e+01
1.087373597636162037e-01 4.399744479239222983e+01
1.097779086602815868e-01 3.971755008320999991e+01
1.108184575569469699e-01 3.624444757196316402e+01
1.118590064536123529e-01 3.274227332198684337e+01
1.128995553502777360e-01 2.861287712229114177e+01
1.139401042469431191e-01 2.512421571231939410e+01
1.149806531436085022e-01 2.202968909888976867e+01
1.160212020402738853e-01 1.957572757503973904e+01
1.170617509369392684e-01 1.741594477965688270e+01
1.181022998336046514e-01 1.535161190014779109e+01
1.191428487302700345e-01 1.315732108931381816e+01
1.201833976269354176e-01 1.066543657333996009e+01
1.212239465236008007e-01 9.242035713729414681e+00
1.222644954202661838e-01 8.078687195627964002e+00
1.233050443169315669e-01 6.622853018538471304e+00
1.243455932135969499e-01 5.735789075149750005e+00
1.253861421102623330e-01 5.210652385852988289e+00
1.264266910069277161e-01 4.576544821618806935e+00
1.274672399035930992e-01 3.535058020831140624e+00
1.285077888002584823e-01 2.661362037369752187e+00
1.295483376969238654e-01 2.487857513033059575e+00
1.305888865935892484e-01 2.391533687167278543e+00
1.316294354902546315e-01 2.340017890498792497e+00
1.326699843869200146e-01 2.073406192478294940e+00
1.337105332835853977e-01 1.882213186370766067e+00
1.347510821802507808e-01 2.226000485895923475e+00
1.357916310769161639e-01 2.423360648349333957e+00
1.368321799735815469e-01 2.318620603199672559e+00
1.378727288702469300e-01 2.576559973233052858e+00
1.389132777669123131e-01 2.974755089129665464e+00
1.399538266635776962e-01 3.340526720154198159e+00
1.409943755602430793e-01 3.543901488489179741e+00
1.420349244569084624e-01 4.136040647859047681e+00
1.430754733535738454e-01 4.331174587978765089e+00
1.441160222502392285e-01 5.113728596395475279e+00
1.451565711469046116e-01 5.704034863812310618e+00
1.461971200435699947e-01 6.052359940016000195e+00
1.472376689402353778e-01 6.188180976822458490e+00
1.482782178369007609e-01 6.311657647136730276e+00
1.493187667335661439e-01 6.919036955085676510e+00
1.503593156302315270e-01 7.618490244389970911e+00
1.513998645268969101e-01 8.103388257197341460e+00
1.524404134235622932e-01 8.502834330933957574e+00
1.534809623202276763e-01 8.497435443828774027e+00
1.545215112168930593e-01 8.888345019644368961e+00
1.555620601135584424e-01 9.194763107275672809e+00
1.566026090102238255e-01 9.914137599897994590e+00
1.576431579068892086e-01 1.048223294069640943e+01
1.586837068035545917e-01 1.055019186747155757e+01
1.597242557002199748e-01 1.074623513604506542e+01
1.607648045968853578e-01 1.078925186747728659e+01
1.618053534935507409e-01 1.059349736527767405e+01
1.628459023902161240e-01 1.131834381857073168e+01
1.638864512868815071e-01 1.195577732085725842e+01
1.649270001835468902e-01 1.184034766183399157e+01
1.659675490802122733e-01 1.162414430945099042e+01
1.670080979768776563e-01 1.140080955832313947e+01
1.680486468735430672e-01 1.138216813880847766e+01
1.690891957702084503e-01 1.156498430868264293e+01
1.701297446668738333e-01 1.179386183568696467e+01
1.711702935635392164e-01 1.197517706614395649e+01
1.722108424602045995e-01 1.161097184860770071e+01
1.732513913568699826e-01 1.145685374635755238e+01
1.742919402535353657e-01 1.131359076533389896e+01
1.753324891502007488e-01 1.096103308333618287e+01
1.763730380468661318e-01 1.091089775523321137e+01
1.774135869435315149e-01 1.093051731771741331e+01
1.784541358401968980e-01 1.076687352739986281e+01
1.794946847368622811e-01 1.033456500361081609e+01
1.805352336335276642e-01 1.015981598260465191e+01
1.815757825301930473e-01 9.792188852127530652e+00
1.826163314268584303e-01 9.729100009570686325e+00
1.836568803235238134e-01 9.707549564465821845e+00
1.846974292201891965e-01 9.250900037052087299e+00
1.857379781168545796e-01 8.661896537604818036e+00
1.867785270135199627e-01 8.114985157317313735e+00
1.878190759101853458e-01 8.027313058229115228e+00
1.888596248068507288e-01 7.909003982796690480e+00
1.899001737035161119e-01 7.430333926066918337e+00
1.909407226001814950e-01 6.921596404083921072e+00
1.919812714968468781e-01 6.953732693901073958e+00
1.930218203935122612e-01 6.734602656964764122e+00
1.940623692901776443e-01 6.479239744582766747e+00
1.951029181868430273e-01 6.018555287484524285e+00
1.961434670835084104e-01 5.158670914919596839e+00
1.971840159801737935e-01 4.839982294625482240e+00
1.982245648768391766e-01 4.731886334390420501e+00
1.992651137735045597e-01 4.616085322623753484e+00
2.003056626701699428e-01 4.356538930782750896e+00
2.013462115668353813e-01 4.244664827354366565e+00
2.023867604635007644e-01 3.756330585192241500e+00
2.034273093601661475e-01 3.625584340236176928e+00
2.044678582568315306e-01 3.513018474797902968e+00
2.055084071534969137e-01 3.007310023007224942e+00
2.065489560501622968e-01 2.604159344510051710e+00
2.075895049468276798e-01 2.555322485267140564e+00
2.086300538434930629e-01 2.738902358879819587e+00
2.096706027401584460e-01 2.233936715105897974e+00
2.107111516368238291e-01 1.912430798279675770e+00
2.117517005334892122e-01 1.583498194365507317e+00
2.127922494301545953e-01 1.469747654795135361e+00
2.138327983268199783e-01 1.190866370719845690e+00
2.148733472234853614e-01 1.122663514396936790e+00
2.159138961201507445e-01 1.135279798759370351e+00
2.169544450168161276e-01 1.071043571390077886e+00
2.179949939134815107e-01 1.068095503212596498e+00
2.190355428101468938e-01 1.055800037681557058e+00
2.200760917068122768e-01 9.124635570829262576e-01
2.211166406034776599e-01 8.273135377508431532e-01
2.221571895001430430e-01 5.652145515724207314e-01
2.231977383968084261e-01 4.387778524171217498e-01
2.242382872934738092e-01 3.686367053447092701e-01
2.252788361901391923e-01 6.838300539662078847e-01
2.263193850868045753e-01 5.840437033159346925e-01
2.273599339834699584e-01 2.045043915782827071e-01
2.284004828801353415e-01 4.487876762218689919e-01
2.294410317768007246e-01 5.296785881365622117e-01
2.304815806734661077e-01 3.605135253271853912e-01
2.315221295701314908e-01 3.854019285374583603e-01
2.325626784667968738e-01 3.821948210486496578e-01
2.336032273634622569e-01 4.043476615237366900e-01
2.346437762601276400e-01 6.725219997490086143e-01
2.356843251567930231e-01 7.351858813767861989e-01
2.367248740534584062e-01 9.545795580730072061e-01
2.377654229501237892e-01 7.881956655685051771e-01
2.388059718467891723e-01 7.042156690232097560e-01
2.398465207434545554e-01 1.176919206676927843e+00
2.408870696401199385e-01 9.649479838015437849e-01
2.419276185367853216e-01 9.064772311127491378e-01
2.429681674334507047e-01 1.125775561414201320e+00
2.440087163301160877e-01 1.208294476065951528e+00
2.450492652267814708e-01 1.181508853997691233e+00
2.460898141234468539e-01 1.342748897924042950e+00
2.471303630201122370e-01 1.351719801633670670e+00
2.481709119167776201e-01 1.307373312620836003e+00
2.492114608134430032e-01 1.257846652141385135e+00
2.502520097101083585e-01 1.405143558876588372e+00
2.512925586067737416e-01 1.161422028245254978e+00
2.523331075034391247e-01 1.272272635249777295e+00
2.533736564001045077e-01 1.611391826465812471e+00
2.544142052967698908e-01 1.616059106203277196e+00
2.554547541934352739e-01 1.851478013486620000e+00
2.564953030901006570e-01 2.097682072939257125e+00
2.575358519867660401e-01 2.252014438962692822e+00
2.585764008834314231e-01 2.189131179160209939e+00
2.596169497800968062e-01 2.120603628534883711e+00
2.606574986767621893e-01 1.883286584116358853e+00
2.616980475734275724e-01 1.592748968230200290e+00
2.627385964700929555e-01 1.595458050422202234e+00
2.637791453667583386e-01 1.530244324257996169e+00
2.648196942634237216e-01 1.894512233265867707e+00
2.658602431600891047e-01 1.916450957272981981e+00
2.669007920567544878e-01 1.798164780932935969e+00
2.679413409534198709e-01 1.851555492975645478e+00
2.689818898500852540e-01 1.981271448198054230e+00
2.700224387467506371e-01 1.925899993882417505e+00
2.710629876434160201e-01 1.807196179072644071e+00
2.721035365400814032e-01 1.609382044064904704e+00
2.731440854367467863e-01 1.821067994674756108e+00
2.741846343334121694e-01 1.649337733135912032e+00
2.752251832300775525e-01 1.928739137011259430e+00
2.762657321267429356e-01 1.810971052548698168e+00
2.773062810234083186e-01 1.679017358518883896e+00
2.783468299200737017e-01 1.555204654574875889e+00
2.793873788167390848e-01 1.485735474967700753e+00
2.804279277134044679e-01 1.353926889196870320e+00
2.814684766100698510e-01 1.581610672594276679e+00
2.825090255067352341e-01 1.401313746396926518e+00
2.835495744034006171e-01 1.231554747191204058e+00
2.845901233000660002e-01 1.389780043128109099e+00
2.856306721967313833e-01 1.405011478531328351e+00
2.866712210933967664e-01 1.337947059904465164e+00
2.877117699900621495e-01 1.160891215718546476e+00
2.887523188867275326e-01 1.105874523385974584e+00
2.897928677833929156e-01 9.906032624564886646e-01
2.908334166800582987e-01 9.996557060467381461e-01
2.918739655767236818e-01 1.120034963677678519e+00
2.929145144733890649e-01 9.962737855512351359e-01
2.939550633700544480e-01 1.056219819321984943e+00
2.949956122667198311e-01 8.627264697845262731e-01
2.960361611633852141e-01 6.619310868932970493e-01
2.970767100600505972e-01 7.279093658560960023e-01
2.981172589567159803e-01 8.930420611427152267e-01
2.991578078533813634e-01 5.014118535048588399e-01
3.001983567500468020e-01 4.719131285085467198e-01
3.012389056467121851e-01 5.328619244324386273e-01
3.022794545433775681e-01 4.919029500366711716e-01
3.033200034400429512e-01 4.931188902530081464e-01
3.043605523367083343e-01 2.428958534433185434e-01
3.054011012333737174e-01 2.820417030865947083e-01
3.064416501300391005e-01 3.775193642940593008e-01
3.074821990267044836e-01 5.303011747682369048e-01
3.085227479233698666e-01 7.306714931664863855e-01
3.095632968200352497e-01 4.765255338330760537e-01
3.106038457167006328e-01 5.885934893342010810e-01
3.116443946133660159e-01 6.556619906071503578e-01
3.126849435100313990e-01 4.986982352567892463e-01
3.137254924066967821e-01 7.008994383274149698e-01
3.147660413033621651e-01 4.684355942178974885e-01
3.158065902000275482e-01 1.128974350592599762e-01
3.168471390966929313e-01 2.258186734827418718e-01
3.178876879933583144e-01 1.582497593587035567e-01
3.189282368900236975e-01 0.000000000000000000e+00
3.199687857866890806e-01 8.888418562482414131e-02
3.210093346833544636e-01 1.558274467016289577e-01
3.220498835800198467e-01 2.599884707918036497e-01
3.230904324766852298e-01 1.607542809759614499e-01
3.241309813733506129e-01 4.595944821841939643e-01
3.251715302700159960e-01 3.658308019135780853e-01
3.262120791666813790e-01 3.895939784658537519e-01
3.272526280633467621e-01 3.282436707539098109e-01
3.282931769600121452e-01 2.912706042411912222e-01
3.293337258566775283e-01 1.623909927636404404e-01
3.303742747533429114e-01 4.261473080137498926e-01
3.314148236500082945e-01 2.213471652248379939e-01
3.324553725466736775e-01 2.513012958019160692e-01
3.334959214433390606e-01 3.423184875755111989e-01
3.345364703400044437e-01 4.008089824654277322e-01
3.355770192366698268e-01 5.961833846522353042e-01
3.366175681333352099e-01 5.179315234689489955e-01
3.376581170300005930e-01 6.683688717354350217e-01
3.386986659266659760e-01 6.433325721007605580e-01
3.397392148233313591e-01 5.727812710397763851e-01
3.407797637199967422e-01 4.273856707920167253e-01
3.418203126166621253e-01 3.660916423040845302e-01
3.428608615133275084e-01 6.993157319986558207e-01
3.439014104099928915e-01 6.842211267270315034e-01
3.449419593066582745e-01 7.429556768335423556e-01
3.459825082033236576e-01 5.515072077889975333e-01
3.470230570999890407e-01 5.772815862999287617e-01
3.480636059966544238e-01 5.898251167974031262e-01
3.491041548933198069e-01 6.385735377796706302e-01
3.501447037899851900e-01 7.091988420120536318e-01
3.511852526866505730e-01 7.039246961802874125e-01
3.522258015833159561e-01 6.227854124833527294e-01
3.532663504799813392e-01 6.045809687273440147e-01
3.543068993766467223e-01 6.417856290308208145e-01
3.553474482733121054e-01 6.654859435898714537e-01
3.563879971699774885e-01 5.399083580222523437e-01
3.574285460666428715e-01 6.247329955294986803e-01
3.584690949633082546e-01 9.445745222471302327e-01
3.595096438599736377e-01 8.475407959322467377e-01
3.605501927566390208e-01 4.988926455512263658e-01
3.615907416533044039e-01 5.784628794750652503e-01
3.626312905499697870e-01 5.662111022748561595e-01
3.636718394466351700e-01 6.525490365507877755e-01
3.647123883433005531e-01 4.473815068038646814e-01
3.657529372399659362e-01 4.564336612496582291e-01
3.667934861366313193e-01 5.062341487704919984e-01
3.678340350332967024e-01 6.671657989120589605e-01
3.688745839299620854e-01 6.356903897146253257e-01
3.699151328266274685e-01 7.025676898636348255e-01
3.709556817232928516e-01 6.347174844732208498e-01
3.719962306199582347e-01 7.680265320968224785e-01
3.730367795166236178e-01 6.229434997948537500e-01
3.740773284132890009e-01 4.713787170013929995e-01
3.751178773099543839e-01 5.293115964493892989e-01
3.761584262066197670e-01 5.314061441228794536e-01
3.771989751032851501e-01 3.859460728925832029e-01
3.782395239999505332e-01 4.402515820701466964e-01
3.792800728966159163e-01 4.329501285837586977e-01
3.803206217932812994e-01 6.688007070002868204e-01
3.813611706899466824e-01 7.112480792614803704e-01
3.824017195866120655e-01 7.096781843567470105e-01
3.834422684832774486e-01 6.485481581781371574e-01
3.844828173799428317e-01 5.480028710882720588e-01
3.855233662766082148e-01 5.422426440632612810e-01
3.865639151732735979e-01 4.939827779100305349e-01
3.876044640699389809e-01 4.916023891068945773e-01
3.886450129666043640e-01 4.211080945292309252e-01
3.896855618632697471e-01 3.589136249115867372e-01
3.907261107599351302e-01 4.421204612506777210e-01
3.917666596566005133e-01 4.731605159206360156e-01
3.928072085532658964e-01 1.809763294701305369e-01
3.938477574499312794e-01 3.107716554032045053e-01
3.948883063465966625e-01 5.376981010333032884e-01
3.959288552432620456e-01 3.739429635141462427e-01
3.969694041399274287e-01 3.618530569688047649e-01
3.980099530365928118e-01 5.570351754810971556e-01
3.990505019332581949e-01 5.466100833598481756e-01
4.000910508299235779e-01 7.140211974085275415e-01
4.011315997265889610e-01 6.638300151003342364e-01
4.021721486232543441e-01 5.261971179120337183e-01
4.032126975199197272e-01 4.146062411080180254e-01
4.042532464165851103e-01 2.983617386030559260e-01
4.052937953132504934e-01 1.221591943967617055e-01
4.063343442099158764e-01 1.161462135501558635e-01
4.073748931065812595e-01 3.473744062142856137e-01
4.084154420032466426e-01 5.084285036827154158e-01
4.094559908999120257e-01 4.901818568635150086e-01
4.104965397965774088e-01 2.195153220109098413e-01
4.115370886932427918e-01 1.008697807343992281e-01
4.125776375899081749e-01 1.841175610577252542e-01
4.136181864865735580e-01 1.724797453905964062e-01
4.146587353832389411e-01 1.336088510711626043e-01
4.156992842799043242e-01 4.139300742383156262e-01
4.167398331765697073e-01 4.815474843981810693e-01
4.177803820732350903e-01 5.027078876590600487e-01
4.188209309699004734e-01 4.962532574859110923e-01
4.198614798665658565e-01 4.188579701719987725e-01
4.209020287632312396e-01 3.789646842127858406e-01
4.219425776598966227e-01 2.838164016728867978e-01
4.229831265565620058e-01 2.869380099275957718e-01
4.240236754532273888e-01 4.307032510371833212e-01
4.250642243498927719e-01 4.967162748331688249e-01
4.261047732465581550e-01 3.388210521912569106e-01
4.271453221432235381e-01 4.484206484979118557e-01
4.281858710398889212e-01 4.451506348965779125e-01
4.292264199365543043e-01 4.716917237429996135e-01
4.302669688332196873e-01 3.886388579797035447e-01
4.313075177298850704e-01 2.231906757630532923e-01
4.323480666265504535e-01 2.580615160499917238e-01
4.333886155232158366e-01 2.360363901704971568e-01
4.344291644198812197e-01 2.746245999943717209e-01
