# q (1/Angstrom), Intensity (arb)
2.029070354705860696e-02 1.461986395178143539e+03
2.133125244372399004e-02 1.460361939768906268e+03
2.237180134038937659e-02 1.449292497600249362e+03
2.341235023705475968e-02 1.434618824071184690e+03
2.445289913372014276e-02 1.426349965970209269e+03
2.549344803038552584e-02 1.413356323134803233e+03
2.653399692705091240e-02 1.395839874002106626e+03
2.757454582371629548e-02 1.384509161678883856e+03
2.861509472038167856e-02 1.373594044625625884e+03
2.965564361704706164e-02 1.356265033009739909e+03
3.069619251371244473e-02 1.336518710217088028e+03
3.173674141037782781e-02 1.316616197424289567e+03
3.277729030704321089e-02 1.295764540468095674e+03
3.381783920370859398e-02 1.275098612362547101e+03
3.485838810037397706e-02 1.255999219408096906e+03
3.589893699703936014e-02 1.234644487160084509e+03
3.693948589370474322e-02 1.213949316522525805e+03
3.798003479037012631e-02 1.196323368175029600e+03
3.902058368703550939e-02 1.175892447173901928e+03
4.006113258370089247e-02 1.152389328113699776e+03
4.110168148036627556e-02 1.126545782645338022e+03
4.214223037703165864e-02 1.099638204937696855e+03
4.318277927369704866e-02 1.077859205011673794e+03
4.422332817036243174e-02 1.054885022719930248e+03
4.526387706702781483e-02 1.033049760660336460e+03
4.630442596369319791e-02 1.007636709292683463e+03
4.734497486035858099e-02 9.826606105767674535e+02
4.838552375702396408e-02 9.602647385345454722e+02
4.942607265368934716e-02 9.388673854051650096e+02
5.046662155035473024e-02 9.176573820184527221e+02
5.150717044702011332e-02 8.919349933865435105e+02
5.254771934368549641e-02 8.662442864154121480e+02
5.358826824035087949e-02 8.407970679820284658e+02
5.462881713701626257e-02 8.135539241345877599e+02
5.566936603368164566e-02 7.923302957500058028e+02
5.670991493034702874e-02 7.714668161859459588e+02
5.775046382701241182e-02 7.481140290243015443e+02
5.879101272367779490e-02 7.240645067430664312e+02
5.983156162034317799e-02 7.007155892414077698e+02
6.087211051700856107e-02 6.782091237577358243e+02
6.191265941367394415e-02 6.554590028309067975e+02
6.295320831033933417e-02 6.326761427284109232e+02
6.399375720700471726e-02 6.107578557350918800e+02
6.503430610367010034e-02 5.896350782653719307e+02
6.607485500033548342e-02 5.658378159908209000e+02
6.711540389700086651e-02 5.443362337011139971e+02
6.815595279366624959e-02 5.235949239979597678e+02
6.919650169033163267e-02 5.036608729415474386e+02
7.023705058699701576e-02 4.840007014162415544e+02
7.127759948366239884e-02 4.628527596915401432e+02
7.231814838032778192e-02 4.436687047491604403e+02
7.335869727699316500e-02 4.263032718132625405e+02
7.439924617365854809e-02 4.086463073009372238e+02
7.543979507032393117e-02 3.912491973379183605e+02
7.648034396698931425e-02 3.728034271982940027e+02
7.752089286365469734e-02 3.531593253754452348e+02
7.856144176032008042e-02 3.364231073250631425e+02
7.960199065698546350e-02 3.210551943491250881e+02
8.064253955365084658e-02 3.060312164250949536e+02
8.168308845031622967e-02 2.910760239619559115e+02
8.272363734698161275e-02 2.759423188952359851e+02
8.376418624364699583e-02 2.613702554773146858e+02
8.480473514031239279e-02 2.470957445396857395e+02
8.584528403697777588e-02 2.329228440769100246e+02
8.688583293364315896e-02 2.210818667536674695e+02
8.792638183030854204e-02 2.086506971705414344e+02
8.896693072697392513e-02 1.959904105682417139e+02
9.000747962363930821e-02 1.832628812138813430e+02
9.104802852030469129e-02 1.726553311114418818e+02
9.208857741697007437e-02 1.611193592966167216e+02
9.312912631363545746e-02 1.509978569381456168e+02
9.416967521030084054e-02 1.415340978979551494e+02
9.521022410696622362e-02 1.321735694519236404e+02
9.625077300363160671e-02 1.225583289174255697e+02
9.729132190029698979e-02 1.139017903247900279e+02
9.833187079696237287e-02 1.055290128030271717e+02
9.937241969362775595e-02 9.800086840054508741e+01
1.004129685902931390e-01 9.111114280576177293e+01
1.014535174869585221e-01 8.328416006656291870e+01
1.024940663836239052e-01 7.663323865371788202e+01
1.035346152802892883e-01 7.003164241786303990e+01
1.045751641769546714e-01 6.432214357232584234e+01
1.056157130736200545e-01 5.793259997797257199e+01
1.066562619702854375e-01 5.293053692374213171e+01
1.076968108669508206e-01 4.925667567932536883e+01
1.087373597636162037e-01 4.483033094292571263e+01
1.097779086602815868e-01 3.943838271838761500e+01
1.108184575569469699e-01 3.542579941825065504e+01
1.118590064536123529e-01 3.157382687157879175e+01
1.128995553502777360e-01 2.776981230687623992e+01
1.139401042469431191e-01 2.522815786143121386e+01
1.149806531436085022e-01 2.265447241786190347e+01
1.160212020402738853e-01 1.918828453213003371e+01
1.170617509369392684e-01 1.677086448437290045e+01
1.181022998336046514e-01 1.467082932811916862e+01
1.191428487302700345e-01 1.289235201418369670e+01
1.201833976269354176e-01 1.115097453859373999e+01
1.212239465236008007e-01 9.738322230335068497e+00
1.222644954202661838e-01 8.646405244390972911e+00
1.233050443169315669e-01 7.322687365248100377e+00
1.243455932135969499e-01 5.929029674421617102e+00
1.253861421102623330e-01 5.239110325518758771e+00
1.264266910069277161e-01 4.736407019892762804e+00
1.274672399035930992e-01 4.234538212794721090e+00
1.285077888002584823e-01 3.208452742787304857e+00
1.295483376969238654e-01 2.590429106860497654e+00
1.305888865935892484e-01 2.308168154033431563e+00
1.316294354902546315e-01 2.049660900080400694e+00
1.326699843869200146e-01 1.901389763918928111e+00
1.337105332835853977e-01 1.669338177068190987e+00
1.347510821802507808e-01 2.054363938056486205e+00
1.357916310769161639e-01 2.417110947969938195e+00
1.368321799735815469e-01 2.239104446085221412e+00
1.378727288702469300e-01 2.284757157588870768e+00
1.389132777669123131e-01 2.901354216737601632e+00
1.399538266635776962e-01 3.365320734875005826e+00
1.409943755602430793e-01 3.811005474585382302e+00
1.420349244569084624e-01 4.038850275382245059e+00
1.430754733535738454e-01 4.175326874707206315e+00
1.441160222502392285e-01 4.641713324594849865e+00
1.451565711469046116e-01 5.435354501025400964e+00
1.461971200435699947e-01 5.877590497522149349e+00
1.472376689402353778e-01 6.253490813990588038e+00
1.482782178369007609e-01 6.474254195449745453e+00
1.493187667335661439e-01 6.973674334141698239e+00
1.503593156302315270e-01 7.587813763487776697e+00
1.513998645268969101e-01 7.681265744348305446e+00
1.524404134235622932e-01 8.033645953276359108e+00
1.534809623202276763e-01 8.911742608310657232e+00
1.545215112168930593e-01 9.479862501994908541e+00
1.555620601135584424e-01 9.784739753464990031e+00
1.566026090102238255e-01 9.434502108375451002e+00
1.576431579068892086e-01 9.752672651126310654e+00
1.586837068035545917e-01 1.006775324718698528e+01
1.597242557002199748e-01 1.071168511681119284e+01
1.607648045968853578e-01 1.047487238641175011e+01
1.618053534935507409e-01 1.076604130716500407e+01
1.628459023902161240e-01 1.152494757377839107e+01
1.638864512868815071e-01 1.125032931810518733e+01
1.649270001835468902e-01 1.104611615084536069e+01
1.659675490802122733e-01 1.154806054151809747e+01
1.670080979768776563e-01 1.128404207818672944e+01
1.680486468735430672e-01 1.150931597330425049e+01
1.690891957702084503e-01 1.183753322068280411e+01
1.701297446668738333e-01 1.150482132049405237e+01
1.711702935635392164e-01 1.144519713588348253e+01
1.722108424602045995e-01 1.154678413781077495e+01
1.732513913568699826e-01 1.172053175130720248e+01
1.742919402535353657e-01 1.148438609038530345e+01
1.753324891502007488e-01 1.112703859400506801e+01
1.763730380468661318e-01 1.099531625741638408e+01
1.774135869435315149e-01 1.100469782331974145e+01
1.784541358401968980e-01 1.081761366786476231e+01
1.794946847368622811e-01 1.037181347272002796e+01
1.805352336335276642e-01 1.003329894188321703e+01
1.815757825301930473e-01 9.670492963824489863e+00
1.826163314268584303e-01 9.762754055155976829e+00
1.836568803235238134e-01 9.383021030720431810e+00
1.846974292201891965e-01 8.941002863885071150e+00
1.857379781168545796e-01 8.662353060973838836e+00
1.867785270135199627e-01 8.562488411254413734e+00
1.878190759101853458e-01 8.114071746211838132e+00
1.888596248068507288e-01 8.337046098571335051e+00
1.899001737035161119e-01 7.878824960593753701e+00
1.909407226001814950e-01 7.176969522419124559e+00
1.919812714968468781e-01 6.621276854677645929e+00
1.930218203935122612e-01 6.479142363107865066e+00
1.940623692901776443e-01 5.937576466833096589e+00
1.951029181868430273e-01 5.613899095529369276e+00
1.961434670835084104e-01 5.473244726257888715e+00
1.971840159801737935e-01 4.998864722596671584e+00
1.982245648768391766e-01 4.723123661251101169e+00
1.992651137735045597e-01 4.962194786744056785e+00
2.003056626701699428e-01 4.560369019139731250e+00
2.013462115668353813e-01 3.981626934675741580e+00
2.023867604635007644e-01 3.882920341298955691e+00
2.034273093601661475e-01 3.742626119040895816e+00
2.044678582568315306e-01 3.667463480994040737e+00
2.055084071534969137e-01 3.097991605026450657e+00
2.065489560501622968e-01 2.842117612757188994e+00
2.075895049468276798e-01 2.791772498772054689e+00
2.086300538434930629e-01 2.451871824821179047e+00
2.096706027401584460e-01 2.047143528775894339e+00
2.107111516368238291e-01 1.857400486654555039e+00
2.117517005334892122e-01 1.624012561883596106e+00
2.127922494301545953e-01 1.694348931727315488e+00
2.138327983268199783e-01 1.469825451564865659e+00
2.148733472234853614e-01 1.228238337815966474e+00
2.159138961201507445e-01 1.266140254448966829e+00
2.169544450168161276e-01 1.243139843202254013e+00
2.179949939134815107e-01 9.820797459827872444e-01
2.190355428101468938e-01 7.032343649250876183e-01
2.200760917068122768e-01 6.591896609340288649e-01
2.211166406034776599e-01 8.595897554740119517e-01
2.221571895001430430e-01 8.606059132014358681e-01
2.231977383968084261e-01 8.293277444443951651e-01
2.242382872934738092e-01 4.645926520877132759e-01
2.252788361901391923e-01 6.663258037558463798e-01
2.263193850868045753e-01 8.183466943723445297e-01
2.273599339834699584e-01 8.269093359762464956e-01
2.284004828801353415e-01 7.940799717315485395e-01
2.294410317768007246e-01 4.287253598199392002e-01
2.304815806734661077e-01 3.871809183107153274e-01
2.315221295701314908e-01 6.436708114290077276e-01
2.325626784667968738e-01 7.300401952337303157e-01
2.336032273634622569e-01 7.265118047258489753e-01
2.346437762601276400e-01 7.137539065149773876e-01
2.356843251567930231e-01 5.403839520604059032e-01
2.367248740534584062e-01 6.867222444651233104e-01
2.377654229501237892e-01 9.829656922408389619e-01
2.388059718467891723e-01 1.018708970401810632e+00
2.398465207434545554e-01 1.074808071887641603e+00
2.408870696401199385e-01 1.257316917101565679e+00
2.419276185367853216e-01 1.314349773143796085e+00
2.429681674334507047e-01 1.060292502727513408e+00
2.440087163301160877e-01 1.253599620497993783e+00
2.450492652267814708e-01 1.524435542973890279e+00
2.460898141234468539e-01 1.666620097236037878e+00
2.471303630201122370e-01 1.410122168422201838e+00
2.481709119167776201e-01 1.089691757801364957e+00
2.492114608134430032e-01 1.118783535074307167e+00
2.502520097101083585e-01 1.316180535726150680e+00
2.512925586067737416e-01 1.517886690759098656e+00
2.523331075034391247e-01 1.703397817005612325e+00
2.533736564001045077e-01 1.686591720079750445e+00
2.544142052967698908e-01 1.426477381741662498e+00
2.554547541934352739e-01 1.390421702129497561e+00
2.564953030901006570e-01 1.644378742692463646e+00
2.575358519867660401e-01 1.990675847867546366e+00
2.585764008834314231e-01 1.948600223776765006e+00
2.596169497800968062e-01 2.134276050248672618e+00
2.606574986767621893e-01 2.038840411808457986e+00
2.616980475734275724e-01 1.928646615057257208e+00
2.627385964700929555e-01 1.758620919761479939e+00
2.637791453667583386e-01 1.863252518439239225e+00
2.648196942634237216e-01 2.131582630372797382e+00
2.658602431600891047e-01 1.823523124927799444e+00
2.669007920567544878e-01 1.850451190767053333e+00
2.679413409534198709e-01 1.647001060986394094e+00
2.689818898500852540e-01 1.975334346525261964e+00
2.700224387467506371e-01 1.821277307760283293e+00
2.710629876434160201e-01 2.178644548664077973e+00
2.721035365400814032e-01 2.023859564560432034e+00
2.731440854367467863e-01 1.733265139670532307e+00
2.741846343334121694e-01 1.770705030252681667e+00
2.752251832300775525e-01 1.823170759313356371e+00
2.762657321267429356e-01 1.937352008764559486e+00
2.773062810234083186e-01 1.695094871308427287e+00
2.783468299200737017e-01 1.488874198793066483e+00
2.793873788167390848e-01 1.328099523052713948e+00
2.804279277134044679e-01 1.368085730914689435e+00
2.814684766100698510e-01 1.559633621907011047e+00
2.825090255067352341e-01 1.368229033149042095e+00
2.835495744034006171e-01 1.486281268716304282e+00
2.845901233000660002e-01 1.184319077746732063e+00
2.856306721967313833e-01 1.308664543712829698e+00
2.866712210933967664e-01 1.286133837273894187e+00
2.877117699900621495e-01 1.372854757110605561e+00
2.887523188867275326e-01 1.376060374699484612e+00
2.897928677833929156e-01 9.786222816544558611e-01
2.908334166800582987e-01 1.200308020928996910e+00
2.918739655767236818e-01 1.181042583968064719e+00
2.929145144733890649e-01 8.201268676264739099e-01
2.939550633700544480e-01 6.386607844020169011e-01
2.949956122667198311e-01 6.592996485679059049e-01
2.960361611633852141e-01 8.759720406774889057e-01
2.970767100600505972e-01 7.594319493248988806e-01
2.981172589567159803e-01 6.219784770466674217e-01
2.991578078533813634e-01 4.973807667043637082e-01
3.001983567500468020e-01 4.331010413641216417e-01
3.012389056467121851e-01 5.291752523364614547e-01
3.022794545433775681e-01 5.663572848764601986e-01
3.033200034400429512e-01 5.921704095757185371e-01
3.043605523367083343e-01 7.101736395225799470e-01
3.054011012333737174e-01 6.891840837188603075e-01
3.064416501300391005e-01 6.517512801545954915e-01
3.074821990267044836e-01 4.356553786612558099e-01
3.085227479233698666e-01 1.871475619685121217e-01
3.095632968200352497e-01 2.338244460592591167e-01
3.106038457167006328e-01 2.275554044491023831e-01
3.116443946133660159e-01 1.737045081561099380e-01
3.126849435100313990e-01 4.801677041221736886e-01
3.137254924066967821e-01 2.692049072874880267e-01
3.147660413033621651e-01 5.557127249429711924e-01
3.158065902000275482e-01 6.219157344368007045e-01
3.168471390966929313e-01 2.775939003432803531e-01
3.178876879933583144e-01 4.468189193976961349e-01
3.189282368900236975e-01 6.118885277315264659e-01
3.199687857866890806e-01 4.463613721048957927e-01
3.210093346833544636e-01 1.528116878692955538e-01
3.220498835800198467e-01 9.809641742862496017e-02
3.230904324766852298e-01 3.422440154762007580e-01
3.241309813733506129e-01 4.004784424239744567e-01
3.251715302700159960e-01 4.788046899198938888e-01
3.262120791666813790e-01 3.945588626607907656e-01
3.272526280633467621e-01 5.128421517054526646e-01
3.282931769600121452e-01 5.758678477664034290e-01
3.293337258566775283e-01 4.617106236997905455e-01
3.303742747533429114e-01 5.962400372121301473e-01
3.314148236500082945e-01 6.099201969174536941e-01
3.324553725466736775e-01 2.618778134334185381e-01
3.334959214433390606e-01 3.687430183096545022e-01
3.345364703400044437e-01 3.377524051260074600e-01
3.355770192366698268e-01 4.471877677327320555e-01
3.366175681333352099e-01 5.469173232745880853e-01
3.376581170300005930e-01 6.665859520449082254e-01
3.386986659266659760e-01 4.653761032952452581e-01
3.397392148233313591e-01 4.387239034285457251e-01
3.407797637199967422e-01 5.250290704715254719e-01
3.418203126166621253e-01 6.996312601804035580e-01
3.428608615133275084e-01 7.388888078616915323e-01
3.439014104099928915e-01 5.399744620389341776e-01
3.449419593066582745e-01 6.902023306887947740e-01
3.459825082033236576e-01 6.065164965463942792e-01
3.470230570999890407e-01 4.272461214890945769e-01
3.480636059966544238e-01 4.909160542055452936e-01
3.491041548933198069e-01 5.289122825659156035e-01
3.501447037899851900e-01 7.307209453655758580e-01
3.511852526866505730e-01 7.906582382817681776e-01
3.522258015833159561e-01 6.498241359432341824e-01
3.532663504799813392e-01 5.917189846663681863e-01
3.543068993766467223e-01 7.151798588662785505e-01
3.553474482733121054e-01 5.258982713451025859e-01
3.563879971699774885e-01 6.705949069075956004e-01
3.574285460666428715e-01 7.671265985156736633e-01
3.584690949633082546e-01 7.360580721711436070e-01
3.595096438599736377e-01 6.464041929822208488e-01
3.605501927566390208e-01 8.287018838356878803e-01
3.615907416533044039e-01 6.656177578038295906e-01
3.626312905499697870e-01 6.623160009335080645e-01
3.636718394466351700e-01 8.058857494856148662e-01
3.647123883433005531e-01 7.364761958555909871e-01
3.657529372399659362e-01 6.301032477542811705e-01
3.667934861366313193e-01 7.172095185350002566e-01
3.678340350332967024e-01 6.309636945895640281e-01
3.688745839299620854e-01 7.047044795701893349e-01
3.699151328266274685e-01 5.498448908820847691e-01
3.709556817232928516e-01 8.389401172895070147e-01
3.719962306199582347e-01 9.172206321141125329e-01
3.730367795166236178e-01 8.068039467534688924e-01
3.740773284132890009e-01 6.376475649945980706e-01
3.751178773099543839e-01 6.247397919077926076e-01
3.761584262066197670e-01 5.171960329403297862e-01
3.771989751032851501e-01 5.278534344796312894e-01
3.782395239999505332e-01 5.526333060643366935e-01
3.792800728966159163e-01 6.031598120356456150e-01
3.803206217932812994e-01 6.226920266498439105e-01
3.813611706899466824e-01 4.470468552740669566e-01
3.824017195866120655e-01 5.422674366315582972e-01
3.834422684832774486e-01 5.902664240316362054e-01
3.844828173799428317e-01 4.127262847114039346e-01
3.855233662766082148e-01 3.883830133651002825e-01
3.865639151732735979e-01 4.392957978966478549e-01
3.876044640699389809e-01 4.560798688318392635e-01
3.886450129666043640e-01 4.647028837731639328e-01
3.896855618632697471e-01 5.401745899445984378e-01
3.907261107599351302e-01 4.367014692012674004e-01
3.917666596566005133e-01 4.924930054087042208e-01
3.928072085532658964e-01 5.950090740739177875e-01
3.938477574499312794e-01 3.976338037104625300e-01
3.948883063465966625e-01 4.204098084767977639e-01
3.959288552432620456e-01 3.991753312304560097e-01
3.969694041399274287e-01 4.277942259128195701e-01
3.980099530365928118e-01 5.074291541366697800e-01
3.990505019332581949e-01 5.372158556949742092e-01
4.000910508299235779e-01 4.808292352587741902e-01
4.011315997265889610e-01 4.680598628536287720e-01
4.021721486232543441e-01 4.899043888998448892e-01
4.032126975199197272e-01 3.483329840706836933e-01
4.042532464165851103e-01 4.005712823724145721e-01
4.052937953132504934e-01 4.435493630315399116e-01
4.063343442099158764e-01 4.482079502867648557e-01
4.073748931065812595e-01 3.549025250230144479e-01
4.084154420032466426e-01 3.929775680830900342e-01
4.094559908999120257e-01 5.010863061960044718e-01
4.104965397965774088e-01 5.635337769068442526e-01
4.115370886932427918e-01 4.746250434134537954e-01
4.125776375899081749e-01 2.911350024165386685e-01
4.136181864865735580e-01 2.510005851587706616e-01
4.146587353832389411e-01 2.291692153365261220e-01
4.156992842799043242e-01 3.238800950238527321e-01
4.167398331765697073e-01 5.184180023828091066e-01
4.177803820732350903e-01 4.552019854454520953e-01
4.188209309699004734e-01 3.419049006842627136e-01
4.198614798665658565e-01 5.290003278996024960e-01
4.209020287632312396e-01 4.204848340370865856e-01
4.219425776598966227e-01 1.670941846899260952e-01
4.229831265565620058e-01 0.000000000000000000e+00
4.240236754532273888e-01 1.590679676093316175e-01
4.250642243498927719e-01 4.379846308204164984e-01
4.261047732465581550e-01 3.619362713910518892e-01
4.271453221432235381e-01 2.748633180348676319e-01
4.281858710398889212e-01 2.947060680329727234e-01
4.292264199365543043e-01 2.787133201544875760e-01
4.302669688332196873e-01 4.893623557920676603e-01
4.313075177298850704e-01 3.753856968222386570e-01
4.323480666265504535e-01 4.409337833972450937e-01
4.333886155232158366e-01 3.794593624054662939e-01
4.344291644198812197e-01 5.324827509607672482e-01
