# q (1/Angstrom), Intensity (arb)
2.029070354705860696e-02 1.486363379914707366e+03
2.133125244372399004e-02 1.481756153256754715e+03
2.237180134038937659e-02 1.471589296565002542e+03
2.341235023705475968e-02 1.460146967888867721e+03
2.445289913372014276e-02 1.446946320397518093e+03
2.549344803038552584e-02 1.439362235568215510e+03
2.653399692705091240e-02 1.423986023212227565e+03
2.757454582371629548e-02 1.409140019790593215e+03
2.861509472038167856e-02 1.392303122736243722e+03
2.965564361704706164e-02 1.376947052664817193e+03
3.069619251371244473e-02 1.358738750948473580e+03
3.173674141037782781e-02 1.339765708037281911e+03
3.277729030704321089e-02 1.317842817360112349e+03
3.381783920370859398e-02 1.301057587402896615e+03
3.485838810037397706e-02 1.276874156725621106e+03
3.589893699703936014e-02 1.256426051179358637e+03
3.693948589370474322e-02 1.233737468318260653e+03
3.798003479037012631e-02 1.207973733889998812e+03
3.902058368703550939e-02 1.187125691751792147e+03
4.006113258370089247e-02 1.165953688689571209e+03
4.110168148036627556e-02 1.139136910582199789e+03
4.214223037703165864e-02 1.116447426834834914e+03
4.318277927369704866e-02 1.097522127108954692e+03
4.422332817036243174e-02 1.074303908641613134e+03
4.526387706702781483e-02 1.049586327124854051e+03
4.630442596369319791e-02 1.023975289264332901e+03
4.734497486035858099e-02 9.999843765890738041e+02
4.838552375702396408e-02 9.729351423611600467e+02
4.942607265368934716e-02 9.502234138183066534e+02
5.046662155035473024e-02 9.244897538515441511e+02
5.150717044702011332e-02 9.007200675976885123e+02
5.254771934368549641e-02 8.771876766038282085e+02
5.358826824035087949e-02 8.546915280418784278e+02
5.462881713701626257e-02 8.307017913231378543e+02
5.566936603368164566e-02 8.060143384177054031e+02
5.670991493034702874e-02 7.816662442108272444e+02
5.775046382701241182e-02 7.567168029734300490e+02
5.879101272367779490e-02 7.331593791491198999e+02
5.983156162034317799e-02 7.123430694755974173e+02
6.087211051700856107e-02 6.886378596506090162e+02
6.191265941367394415e-02 6.642727937815800487e+02
6.295320831033933417e-02 6.389089716638546861e+02
6.399375720700471726e-02 6.180846670443336279e+02
6.503430610367010034e-02 5.959102341877771778e+02
6.607485500033548342e-02 5.765087957255105948e+02
6.711540389700086651e-02 5.557144909301232474e+02
6.815595279366624959e-02 5.350693026324703396e+02
6.919650169033163267e-02 5.144695865777443942e+02
7.023705058699701576e-02 4.942192626994893203e+02
7.127759948366239884e-02 4.731715752333335558e+02
7.231814838032778192e-02 4.530978173251427847e+02
7.335869727699316500e-02 4.352194332460559849e+02
7.439924617365854809e-02 4.155013205035963324e+02
7.543979507032393117e-02 3.960047736243226950e+02
7.648034396698931425e-02 3.774837975593319470e+02
7.752089286365469734e-02 3.602613568627832592e+02
7.856144176032008042e-02 3.423367833839348577e+02
7.960199065698546350e-02 3.272361050369057693e+02
8.064253955365084658e-02 3.098405601942128555e+02
8.168308845031622967e-02 2.943026324000760496e+02
8.272363734698161275e-02 2.789677902064611885e+02
8.376418624364699583e-02 2.645173618740247434e+02
8.480473514031239279e-02 2.517508813590392833e+02
8.584528403697777588e-02 2.385531152687455574e+02
8.688583293364315896e-02 2.256894842926636784e+02
8.792638183030854204e-02 2.127723982443356476e+02
8.896693072697392513e-02 1.996652425657725018e+02
9.000747962363930821e-02 1.875403248822827322e+02
9.104802852030469129e-02 1.756916341871693419e+02
9.208857741697007437e-02 1.654073234186439265e+02
9.312912631363545746e-02 1.539216297282996493e+02
9.416967521030084054e-02 1.445306097516109389e+02
9.521022410696622362e-02 1.356476018970539599e+02
9.625077300363160671e-02 1.259122172661787431e+02
9.729132190029698979e-02 1.167268203698865818e+02
9.833187079696237287e-02 1.081231861982759739e+02
9.937241969362775595e-02 1.001992530027637258e+02
1.004129685902931390e-01 9.239445689366631598e+01
1.014535174869585221e-01 8.498079481045741090e+01
1.024940663836239052e-01 7.846137322041076345e+01
1.035346152802892883e-01 7.212988168297951574e+01
1.045751641769546714e-01 6.593826204693513660e+01
1.056157130736200545e-01 5.947280290989517226e+01
1.066562619702854375e-01 5.333352720977270423e+01
1.076968108669508206e-01 4.896690515830444923e+01
1.087373597636162037e-01 4.496707227371055637e+01
1.097779086602815868e-01 4.093292214440181453e+01
1.108184575569469699e-01 3.673155632348137090e+01
1.118590064536123529e-01 3.310280902872142406e+01
1.128995553502777360e-01 2.963236016099833137e+01
1.139401042469431191e-01 2.599433114396835265e+01
1.149806531436085022e-01 2.248501868909228918e+01
1.160212020402738853e-01 2.003468934310436111e+01
1.170617509369392684e-01 1.732049216703251204e+01
1.181022998336046514e-01 1.515422023977804145e+01
1.191428487302700345e-01 1.311985635507087622e+01
1.201833976269354176e-01 1.116682760558953547e+01
1.212239465236008007e-01 9.673603081385127922e+00
1.222644954202661838e-01 8.593118999322896912e+00
1.233050443169315669e-01 7.270921755294889266e+00
1.243455932135969499e-01 6.248217569739434651e+00
1.253861421102623330e-01 5.451889900097050656e+00
1.264266910069277161e-01 5.017313478216784972e+00
1.274672399035930992e-01 4.136553062193488728e+00
1.285077888002584823e-01 3.308602147059314547e+00
1.295483376969238654e-01 3.187751259390612546e+00
1.305888865935892484e-01 3.187748079904960008e+00
1.316294354902546315e-01 2.591471904670314075e+00
1.326699843869200146e-01 2.238026858734336599e+00
1.337105332835853977e-01 1.976189249016158556e+00
1.347510821802507808e-01 1.842328831382221921e+00
1.357916310769161639e-01 2.178559684024239829e+00
1.368321799735815469e-01 2.793497639916690645e+00
1.378727288702469300e-01 2.882635955021378038e+00
1.389132777669123131e-01 2.908363777226810498e+00
1.399538266635776962e-01 3.083745012767746374e+00
1.409943755602430793e-01 3.959131633813768758e+00
1.420349244569084624e-01 4.329336429358363603e+00
1.430754733535738454e-01 4.768553191638691402e+00
1.441160222502392285e-01 5.187522543039705170e+00
1.451565711469046116e-01 5.502463805682801024e+00
1.461971200435699947e-01 6.202431045768239670e+00
1.472376689402353778e-01 6.317008576072904447e+00
1.482782178369007609e-01 7.087771202205914278e+00
1.493187667335661439e-01 7.630219165970931527e+00
1.503593156302315270e-01 7.736890642748754487e+00
1.513998645268969101e-01 8.190013743565540238e+00
1.524404134235622932e-01 8.742704752512484134e+00
1.534809623202276763e-01 9.056649124801687378e+00
1.545215112168930593e-01 9.270419190301666390e+00
1.555620601135584424e-01 9.926653052053488580e+00
1.566026090102238255e-01 1.033760357101881766e+01
1.576431579068892086e-01 1.050210203272326481e+01
1.586837068035545917e-01 1.074237260196659705e+01
1.597242557002199748e-01 1.104419261912660843e+01
1.607648045968853578e-01 1.121597363067223085e+01
1.618053534935507409e-01 1.137856490326699799e+01
1.628459023902161240e-01 1.135714269383703368e+01
1.638864512868815071e-01 1.144961634674785600e+01
1.649270001835468902e-01 1.185571133238384789e+01
1.659675490802122733e-01 1.217363931343361472e+01
1.670080979768776563e-01 1.242578085962380996e+01
1.680486468735430672e-01 1.201397929087437078e+01
1.690891957702084503e-01 1.233003311819562242e+01
1.701297446668738333e-01 1.243021156643267133e+01
1.711702935635392164e-01 1.204886277739021594e+01
1.722108424602045995e-01 1.189899475110205884e+01
1.732513913568699826e-01 1.174070884988389096e+01
1.742919402535353657e-01 1.147301267693716298e+01
1.753324891502007488e-01 1.123398964912509612e+01
1.763730380468661318e-01 1.127262386400442296e+01
1.774135869435315149e-01 1.144488481521849721e+01
1.784541358401968980e-01 1.098902559798342438e+01
1.794946847368622811e-01 1.081719436245645838e+01
1.805352336335276642e-01 1.088585993248999628e+01
1.815757825301930473e-01 1.042997965301603713e+01
1.826163314268584303e-01 9.922656080427390890e+00
1.836568803235238134e-01 9.562690925763018157e+00
1.846974292201891965e-01 9.239742741734378484e+00
1.857379781168545796e-01 9.043197702046981590e+00
1.867785270135199627e-01 8.865167914040174679e+00
1.878190759101853458e-01 8.761867254633582291e+00
1.888596248068507288e-01 8.194671844945382588e+00
1.899001737035161119e-01 7.769806271182382318e+00
1.909407226001814950e-01 7.435344586422079516e+00
1.919812714968468781e-01 7.162697807657512072e+00
1.930218203935122612e-01 6.666593737985444079e+00
1.940623692901776443e-01 6.517566486855805863e+00
1.951029181868430273e-01 6.018042271621116157e+00
1.961434670835084104e-01 5.641125429234641331e+00
1.971840159801737935e-01 5.395348570239079322e+00
1.982245648768391766e-01 5.181546197296707845e+00
1.992651137735045597e-01 4.755209503068744681e+00
2.003056626701699428e-01 4.474043263393426173e+00
2.013462115668353813e-01 4.186802132103178309e+00
2.023867604635007644e-01 4.006042647052776573e+00
2.034273093601661475e-01 3.849304563093383535e+00
2.044678582568315306e-01 3.762234477980459957e+00
2.055084071534969137e-01 3.216413589265144424e+00
2.065489560501622968e-01 3.138143680508552080e+00
2.075895049468276798e-01 2.815336701790084106e+00
2.086300538434930629e-01 2.646269402980006902e+00
2.096706027401584460e-01 2.398018037466012942e+00
2.107111516368238291e-01 2.140082216714066732e+00
2.117517005334892122e-01 2.021770010311541910e+00
2.127922494301545953e-01 2.111506705686117868e+00
2.138327983268199783e-01 1.727861491738252653e+00
2.148733472234853614e-01 1.484260431051737328e+00
2.159138961201507445e-01 1.376878280966781887e+00
2.169544450168161276e-01 1.428483242077621895e+00
2.179949939134815107e-01 1.012316535367048687e+00
2.190355428101468938e-01 9.003289622149175386e-01
2.200760917068122768e-01 1.052196642716342723e+00
2.211166406034776599e-01 9.251506385464516313e-01
2.221571895001430430e-01 1.070952177723022203e+00
2.231977383968084261e-01 9.103084325776578112e-01
2.242382872934738092e-01 9.476002501396081357e-01
2.252788361901391923e-01 5.389856510263690836e-01
2.263193850868045753e-01 4.843387432712731311e-01
2.273599339834699584e-01 9.495751370001670466e-01
2.284004828801353415e-01 1.019518277167357212e+00
2.294410317768007246e-01 1.017879124443190619e+00
2.304815806734661077e-01 9.769201457229819141e-01
2.315221295701314908e-01 8.068841672622859562e-01
2.325626784667968738e-01 7.404694654914578678e-01
2.336032273634622569e-01 6.451671205156230826e-01
2.346437762601276400e-01 8.951811555239039819e-01
2.356843251567930231e-01 1.079486827746073629e+00
2.367248740534584062e-01 9.439108314056916527e-01
2.377654229501237892e-01 8.872764211089041453e-01
2.388059718467891723e-01 9.722855233156266763e-01
2.398465207434545554e-01 1.097246170755212802e+00
2.408870696401199385e-01 1.065473164954010343e+00
2.419276185367853216e-01 1.289259539688039524e+00
2.429681674334507047e-01 1.324241737401656849e+00
2.440087163301160877e-01 1.407786147350122974e+00
2.450492652267814708e-01 1.561210671226529456e+00
2.460898141234468539e-01 1.616352893988853623e+00
2.471303630201122370e-01 1.452847299044773166e+00
2.481709119167776201e-01 1.439895923984209958e+00
2.492114608134430032e-01 1.716269982417497175e+00
2.502520097101083585e-01 1.951052234467088198e+00
2.512925586067737416e-01 1.796462973263999174e+00
2.523331075034391247e-01 1.906339824747821154e+00
2.533736564001045077e-01 1.753470279661886622e+00
2.544142052967698908e-01 1.674539000590986149e+00
2.554547541934352739e-01 1.882200304283692560e+00
2.564953030901006570e-01 2.005484243426465696e+00
2.575358519867660401e-01 1.979758376361186123e+00
2.585764008834314231e-01 2.276057956652024927e+00
2.596169497800968062e-01 2.311147338227627301e+00
2.606574986767621893e-01 2.269956032226389198e+00
2.616980475734275724e-01 2.180456431906627301e+00
2.627385964700929555e-01 2.210304632092054078e+00
2.637791453667583386e-01 2.344313822158003546e+00
2.648196942634237216e-01 2.183552694826751406e+00
2.658602431600891047e-01 2.188803623368244189e+00
2.669007920567544878e-01 2.369097651178080355e+00
2.679413409534198709e-01 2.097033997720586740e+00
2.689818898500852540e-01 2.340217940041913636e+00
2.700224387467506371e-01 2.463149258788210005e+00
2.710629876434160201e-01 2.260208322476831455e+00
2.721035365400814032e-01 2.010504856816986319e+00
2.731440854367467863e-01 1.827587902257803876e+00
2.741846343334121694e-01 1.876796350398812763e+00
2.752251832300775525e-01 2.023249350161023585e+00
2.762657321267429356e-01 1.850321701493207627e+00
2.773062810234083186e-01 1.779554697804861974e+00
2.783468299200737017e-01 1.567952433248617439e+00
2.793873788167390848e-01 1.428248874361944587e+00
2.804279277134044679e-01 1.649603266813883806e+00
2.814684766100698510e-01 1.822597101810856657e+00
2.825090255067352341e-01 1.748701866502212710e+00
2.835495744034006171e-01 1.672723766063370476e+00
2.845901233000660002e-01 1.430559014124973771e+00
2.856306721967313833e-01 1.365294284614201104e+00
2.866712210933967664e-01 1.853067719691008364e+00
2.877117699900621495e-01 1.799796974583809828e+00
2.887523188867275326e-01 1.463201246727550142e+00
2.897928677833929156e-01 1.355951704476943576e+00
2.908334166800582987e-01 1.215071126819324832e+00
2.918739655767236818e-01 1.185080936137662633e+00
2.929145144733890649e-01 1.181434943829746231e+00
2.939550633700544480e-01 1.030996490014768341e+00
2.949956122667198311e-01 9.528310353058841997e-01
2.960361611633852141e-01 1.036472904581174248e+00
2.970767100600505972e-01 1.156750691984470336e+00
2.981172589567159803e-01 1.195118971814874698e+00
2.991578078533813634e-01 9.662162341856230796e-01
3.001983567500468020e-01 1.060930109953424960e+00
3.012389056467121851e-01 8.398913446147204809e-01
3.022794545433775681e-01 6.992178471919849869e-01
3.033200034400429512e-01 8.297223602672048060e-01
3.043605523367083343e-01 9.490454854534959850e-01
3.054011012333737174e-01 8.090671090282341993e-01
3.064416501300391005e-01 7.331645032839269049e-01
3.074821990267044836e-01 7.513333010490370611e-01
3.085227479233698666e-01 9.621161751095570480e-01
3.095632968200352497e-01 6.631029374021224498e-01
3.106038457167006328e-01 7.189384611379914247e-01
3.116443946133660159e-01 6.747260037479385630e-01
3.126849435100313990e-01 7.270124024968716014e-01
3.137254924066967821e-01 7.477774629720279620e-01
3.147660413033621651e-01 6.124252225629582824e-01
3.158065902000275482e-01 4.617910463292282941e-01
3.168471390966929313e-01 4.510604853694850647e-01
3.178876879933583144e-01 3.377012474646399198e-01
3.189282368900236975e-01 3.289300774684633666e-01
3.199687857866890806e-01 0.000000000000000000e+00
3.210093346833544636e-01 8.929376517722076301e-02
3.220498835800198467e-01 6.982441532218004454e-01
3.230904324766852298e-01 6.314266986994674369e-01
3.241309813733506129e-01 6.744081837075093233e-01
3.251715302700159960e-01 2.858169841484041740e-01
3.262120791666813790e-01 1.113540563824635399e-01
3.272526280633467621e-01 6.431079343756458400e-01
3.282931769600121452e-01 7.943838287974784862e-01
3.293337258566775283e-01 7.669007161649403770e-01
3.303742747533429114e-01 7.955443801463459863e-01
3.314148236500082945e-01 6.570939840783189823e-01
3.324553725466736775e-01 7.592401450608043945e-01
3.334959214433390606e-01 9.895978334657939968e-01
3.345364703400044437e-01 9.354471212957946591e-01
3.355770192366698268e-01 5.423066153573046222e-01
3.366175681333352099e-01 5.370795144007800559e-01
3.376581170300005930e-01 7.758968898529836622e-01
3.386986659266659760e-01 8.066453465692724478e-01
3.397392148233313591e-01 6.458802848313887068e-01
3.407797637199967422e-01 8.444348723657917333e-01
3.418203126166621253e-01 8.163006639015470967e-01
3.428608615133275084e-01 8.179762148042186709e-01
3.439014104099928915e-01 9.937569778317794089e-01
3.449419593066582745e-01 8.658606172534106804e-01
3.459825082033236576e-01 7.265855825147298219e-01
3.470230570999890407e-01 1.032658378639123242e+00
3.480636059966544238e-01 8.362908692626476181e-01
3.491041548933198069e-01 7.897493563931696769e-01
3.501447037899851900e-01 9.164887809312425304e-01
3.511852526866505730e-01 9.078739336273606853e-01
3.522258015833159561e-01 8.037436014755527935e-01
3.532663504799813392e-01 1.012309871478631607e+00
3.543068993766467223e-01 1.058504136414555319e+00
3.553474482733121054e-01 1.019739439033326533e+00
3.563879971699774885e-01 9.845407709169968768e-01
3.574285460666428715e-01 9.842361300176563077e-01
3.584690949633082546e-01 1.036676400884218197e+00
3.595096438599736377e-01 9.098893139704884447e-01
3.605501927566390208e-01 9.190860858689795521e-01
3.615907416533044039e-01 9.151582965387099478e-01
3.626312905499697870e-01 9.438925524718406734e-01
3.636718394466351700e-01 6.326186981386250352e-01
3.647123883433005531e-01 7.272573992857260805e-01
3.657529372399659362e-01 9.684655839889195761e-01
3.667934861366313193e-01 9.302846869597800605e-01
3.678340350332967024e-01 8.018544330035801693e-01
3.688745839299620854e-01 8.091840509770413803e-01
3.699151328266274685e-01 7.576342473172275049e-01
3.709556817232928516e-01 7.154828677373004098e-01
3.719962306199582347e-01 6.933565354486042054e-01
3.730367795166236178e-01 8.441086374606321385e-01
3.740773284132890009e-01 7.490700919252439860e-01
3.751178773099543839e-01 8.058039054014933811e-01
3.761584262066197670e-01 7.584260997349083766e-01
3.771989751032851501e-01 9.349426331859795880e-01
3.782395239999505332e-01 8.664637270417259174e-01
3.792800728966159163e-01 7.926580433532919301e-01
3.803206217932812994e-01 6.660825640340952702e-01
3.813611706899466824e-01 7.613205676602383676e-01
3.824017195866120655e-01 8.854228382898767791e-01
3.834422684832774486e-01 9.032694973635067015e-01
3.844828173799428317e-01 7.350067983889907453e-01
3.855233662766082148e-01 7.410498711280872897e-01
3.865639151732735979e-01 7.904892680822328543e-01
3.876044640699389809e-01 7.451726284619368812e-01
3.886450129666043640e-01 6.461673040455622186e-01
3.896855618632697471e-01 6.267813397193435776e-01
3.907261107599351302e-01 5.614660783112448428e-01
3.917666596566005133e-01 7.412528981387964677e-01
3.928072085532658964e-01 8.230712098839667590e-01
3.938477574499312794e-01 5.285506446216459153e-01
3.948883063465966625e-01 4.891029719651456276e-01
3.959288552432620456e-01 5.599439193484414545e-01
3.969694041399274287e-01 5.888371258250444384e-01
3.980099530365928118e-01 5.185949354536738554e-01
3.990505019332581949e-01 3.309650313235863450e-01
4.000910508299235779e-01 5.466781593682803475e-01
4.011315997265889610e-01 5.517405043549281629e-01
4.021721486232543441e-01 5.038499585502478340e-01
4.032126975199197272e-01 8.223713870114615077e-01
4.042532464165851103e-01 8.797214004857565328e-01
4.052937953132504934e-01 7.805570650761310958e-01
4.063343442099158764e-01 7.753638753785061510e-01
4.073748931065812595e-01 6.904762783730049591e-01
4.084154420032466426e-01 5.401643543709226947e-01
4.094559908999120257e-01 5.939609722310947859e-01
4.104965397965774088e-01 6.976286775007487506e-01
4.115370886932427918e-01 5.161645991805272615e-01
4.125776375899081749e-01 5.537135015684349071e-01
4.136181864865735580e-01 4.743941735121737224e-01
4.146587353832389411e-01 4.308139236520425186e-01
4.156992842799043242e-01 5.231875278404132246e-01
4.167398331765697073e-01 5.191785195375899775e-01
4.177803820732350903e-01 3.706346922254688536e-01
4.188209309699004734e-01 4.389325779568018504e-01
4.198614798665658565e-01 4.141615843066261959e-01
4.209020287632312396e-01 4.455556351390512759e-01
4.219425776598966227e-01 5.764539536424813093e-01
4.229831265565620058e-01 6.673223360507094526e-01
4.240236754532273888e-01 6.961707743804410597e-01
4.250642243498927719e-01 7.384068950245996632e-01
4.261047732465581550e-01 8.248655413133683112e-01
4.271453221432235381e-01 7.506751974289791463e-01
4.281858710398889212e-01 6.207511376335190789e-01
4.292264199365543043e-01 5.940958729559682183e-01
4.302669688332196873e-01 5.928809699424348878e-01
4.313075177298850704e-01 7.135613779941145651e-01
4.323480666265504535e-01 6.319615418530126760e-01
4.333886155232158366e-01 6.039686429924806532e-01
4.344291644198812197e-01 5.898663251100266791e-01
