# q (1/Angstrom), Intensity (arb)
2.029070354705860696e-02 1.437833975889227986e+03
2.133125244372399004e-02 1.428952794770894570e+03
2.237180134038937659e-02 1.426687829293096456e+03
2.341235023705475968e-02 1.419567249957897275e+03
2.445289913372014276e-02 1.410991046803154859e+03
2.549344803038552584e-02 1.403397825836880202e+03
2.653399692705091240e-02 1.384785547357846553e+03
2.757454582371629548e-02 1.369847137411100903e+03
2.861509472038167856e-02 1.355202413757950808e+03
2.965564361704706164e-02 1.338605551586633055e+03
3.069619251371244473e-02 1.319932618195143050e+03
3.173674141037782781e-02 1.298782823374066538e+03
3.277729030704321089e-02 1.281433355623274565e+03
3.381783920370859398e-02 1.259160193854710769e+03
3.485838810037397706e-02 1.239744849581725703e+03
3.589893699703936014e-02 1.221686780159532645e+03
3.693948589370474322e-02 1.201718211025025084e+03
3.798003479037012631e-02 1.179609516564453997e+03
3.902058368703550939e-02 1.161208586884654551e+03
4.006113258370089247e-02 1.136715943488457697e+03
4.110168148036627556e-02 1.112405914894508896e+03
4.214223037703165864e-02 1.092411072973975706e+03
4.318277927369704866e-02 1.070284524486598684e+03
4.422332817036243174e-02 1.047404653882960247e+03
4.526387706702781483e-02 1.019245196215231203e+03
4.630442596369319791e-02 9.957529395142337307e+02
4.734497486035858099e-02 9.738802223420885866e+02
4.838552375702396408e-02 9.484181855242800339e+02
4.942607265368934716e-02 9.252022455283891986e+02
5.046662155035473024e-02 8.997458386468548497e+02
5.150717044702011332e-02 8.770863243778973128e+02
5.254771934368549641e-02 8.533596822488361795e+02
5.358826824035087949e-02 8.306046248344331389e+02
5.462881713701626257e-02 8.066342433688505480e+02
5.566936603368164566e-02 7.795200909178983011e+02
5.670991493034702874e-02 7.600547904163770454e+02
5.775046382701241182e-02 7.367523037914595534e+02
5.879101272367779490e-02 7.118980299901755870e+02
5.983156162034317799e-02 6.912735770594474616e+02
6.087211051700856107e-02 6.696388982840928747e+02
6.191265941367394415e-02 6.468903366109741455e+02
6.295320831033933417e-02 6.250813606209466116e+02
6.399375720700471726e-02 6.024465252767753327e+02
6.503430610367010034e-02 5.801519235822045175e+02
6.607485500033548342e-02 5.591136221839933569e+02
6.711540389700086651e-02 5.370252264501746140e+02
6.815595279366624959e-02 5.156839154283712787e+02
6.919650169033163267e-02 4.963349122737548100e+02
7.023705058699701576e-02 4.773961293338687710e+02
7.127759948366239884e-02 4.583393998220567482e+02
7.231814838032778192e-02 4.413676228532479513e+02
7.335869727699316500e-02 4.209437980579222653e+02
7.439924617365854809e-02 3.997335565564298463e+02
7.543979507032393117e-02 3.808597735992305502e+02
7.648034396698931425e-02 3.640889751014198055e+02
7.752089286365469734e-02 3.485018260133371086e+02
7.856144176032008042e-02 3.325767915649964266e+02
7.960199065698546350e-02 3.169878268684711884e+02
8.064253955365084658e-02 3.011580385646929017e+02
8.168308845031622967e-02 2.863669055433682615e+02
8.272363734698161275e-02 2.713137024033663351e+02
8.376418624364699583e-02 2.565657008193805382e+02
8.480473514031239279e-02 2.420915583335601582e+02
8.584528403697777588e-02 2.291935544876943425e+02
8.688583293364315896e-02 2.164953550327900587e+02
8.792638183030854204e-02 2.042920850513986863e+02
8.896693072697392513e-02 1.930351561051211888e+02
9.000747962363930821e-02 1.804699226255953022e+02
9.104802852030469129e-02 1.694416171870129233e+02
9.208857741697007437e-02 1.586017247585918142e+02
9.312912631363545746e-02 1.488575486048388257e+02
9.416967521030084054e-02 1.386936637798752940e+02
9.521022410696622362e-02 1.292357665777060447e+02
9.625077300363160671e-02 1.197268960463259901e+02
9.729132190029698979e-02 1.108540496423049149e+02
9.833187079696237287e-02 1.024709715846456817e+02
9.937241969362775595e-02 9.445153816987073014e+01
1.004129685902931390e-01 8.876551579050018859e+01
1.014535174869585221e-01 8.181865298456639835e+01
1.024940663836239052e-01 7.506603018209284528e+01
1.035346152802892883e-01 6.874740245427568652e+01
1.045751641769546714e-01 6.322564892427569561e+01
1.056157130736200545e-01 5.741550079696418862e+01
1.066562619702854375e-01 5.165785922439162192e+01
1.076968108669508206e-01 4.702780001465581705e+01
1.087373597636162037e-01 4.242798550381631628e+01
1.097779086602815868e-01 3.851954440813589287e+01
1.108184575569469699e-01 3.465181633027916774e+01
1.118590064536123529e-01 3.063111655766844166e+01
1.128995553502777360e-01 2.736631772098323268e+01
1.139401042469431191e-01 2.468197337799022506e+01
1.149806531436085022e-01 2.197923533986356404e+01
1.160212020402738853e-01 1.939105582462472199e+01
1.170617509369392684e-01 1.628414815340765642e+01
1.181022998336046514e-01 1.408280499178483325e+01
1.191428487302700345e-01 1.287526546546956752e+01
1.201833976269354176e-01 1.090399745366018180e+01
1.212239465236008007e-01 9.121441026612878034e+00
1.222644954202661838e-01 7.521941127077390377e+00
1.233050443169315669e-01 6.409019680304474775e+00
1.243455932135969499e-01 5.478112991876088245e+00
1.253861421102623330e-01 4.764862916029557027e+00
1.264266910069277161e-01 3.716434669934805868e+00
1.274672399035930992e-01 3.506067419116682515e+00
1.285077888002584823e-01 3.082934506973238342e+00
1.295483376969238654e-01 2.639843194646040558e+00
1.305888865935892484e-01 2.183306520747322566e+00
1.316294354902546315e-01 2.332439127785256971e+00
1.326699843869200146e-01 2.253422489667205042e+00
1.337105332835853977e-01 2.030699563536984442e+00
1.347510821802507808e-01 1.516633590619839822e+00
1.357916310769161639e-01 1.958832383425665569e+00
1.368321799735815469e-01 1.820900100905163299e+00
1.378727288702469300e-01 1.813335859984476883e+00
1.389132777669123131e-01 2.347393656838832499e+00
1.399538266635776962e-01 2.998689300350363851e+00
1.409943755602430793e-01 3.597425843538712087e+00
1.420349244569084624e-01 3.761442042494628879e+00
1.430754733535738454e-01 4.243011409711822779e+00
1.441160222502392285e-01 4.561739057101583228e+00
1.451565711469046116e-01 5.061939895915475773e+00
1.461971200435699947e-01 5.732789449354225297e+00
1.472376689402353778e-01 6.180554135127529491e+00
1.482782178369007609e-01 6.680807535484785120e+00
1.493187667335661439e-01 7.059762320989655393e+00
1.503593156302315270e-01 7.421099935942546466e+00
1.513998645268969101e-01 7.637927458086281263e+00
1.524404134235622932e-01 7.937850216301903572e+00
1.534809623202276763e-01 8.131912394785953069e+00
1.545215112168930593e-01 8.806242115769443046e+00
1.555620601135584424e-01 9.476453649847307759e+00
1.566026090102238255e-01 9.931438144545047919e+00
1.576431579068892086e-01 1.015870483072751895e+01
1.586837068035545917e-01 1.030508348592341861e+01
1.597242557002199748e-01 1.031178710055877801e+01
1.607648045968853578e-01 1.083146649160537578e+01
1.618053534935507409e-01 1.106780407888277296e+01
1.628459023902161240e-01 1.095184166364314038e+01
1.638864512868815071e-01 1.079310792182079126e+01
1.649270001835468902e-01 1.116265161822035523e+01
1.659675490802122733e-01 1.119795233910318544e+01
1.670080979768776563e-01 1.086771554691004482e+01
1.680486468735430672e-01 1.128798209867746394e+01
1.690891957702084503e-01 1.165646397556263736e+01
1.701297446668738333e-01 1.138501312086790662e+01
1.711702935635392164e-01 1.136949513790895594e+01
1.722108424602045995e-01 1.099924722918133568e+01
1.732513913568699826e-01 1.094242901898739362e+01
1.742919402535353657e-01 1.128933716251070862e+01
1.753324891502007488e-01 1.091552215964966521e+01
1.763730380468661318e-01 1.034904234838343484e+01
1.774135869435315149e-01 1.024438691378649580e+01
1.784541358401968980e-01 1.026059459148314090e+01
1.794946847368622811e-01 1.055274221192426154e+01
1.805352336335276642e-01 1.005579979950487868e+01
1.815757825301930473e-01 9.784759838101226848e+00
1.826163314268584303e-01 9.387732766216146274e+00
1.836568803235238134e-01 9.024494635943604237e+00
1.846974292201891965e-01 8.910730247953992489e+00
1.857379781168545796e-01 8.281378439998931640e+00
1.867785270135199627e-01 7.916752911738274889e+00
1.878190759101853458e-01 7.880974574791878240e+00
1.888596248068507288e-01 7.464068055671500446e+00
1.899001737035161119e-01 7.003885785014862364e+00
1.909407226001814950e-01 6.980913245315491622e+00
1.919812714968468781e-01 6.851185728298794686e+00
1.930218203935122612e-01 6.276376008116862693e+00
1.940623692901776443e-01 5.758920303376129368e+00
1.951029181868430273e-01 5.928186498092763657e+00
1.961434670835084104e-01 5.459039076967961535e+00
1.971840159801737935e-01 5.158034487849569416e+00
1.982245648768391766e-01 4.489287319487068828e+00
1.992651137735045597e-01 4.310055973560555032e+00
2.003056626701699428e-01 4.049898551129381019e+00
2.013462115668353813e-01 3.961809938329110992e+00
2.023867604635007644e-01 3.653316976614409128e+00
2.034273093601661475e-01 3.166994508077969783e+00
2.044678582568315306e-01 3.110286306404166368e+00
2.055084071534969137e-01 2.480756520821515210e+00
2.065489560501622968e-01 2.302375328186357706e+00
2.075895049468276798e-01 2.430272423652340308e+00
2.086300538434930629e-01 2.381770290586580074e+00
2.096706027401584460e-01 2.265733950765127958e+00
2.107111516368238291e-01 1.490472864415373522e+00
2.117517005334892122e-01 1.172334696483581240e+00
2.127922494301545953e-01 1.186295219523362476e+00
2.138327983268199783e-01 1.355963647219326162e+00
2.148733472234853614e-01 1.014028403577960091e+00
2.159138961201507445e-01 1.099758674081641630e+00
2.169544450168161276e-01 1.120167094501905325e+00
2.179949939134815107e-01 1.083325157450623522e+00
2.190355428101468938e-01 7.318501709863696192e-01
2.200760917068122768e-01 4.045607548390393049e-01
2.211166406034776599e-01 3.115196332627405695e-01
2.221571895001430430e-01 4.664561416722250442e-01
2.231977383968084261e-01 3.947327253616847997e-01
2.242382872934738092e-01 3.467921607312405285e-01
2.252788361901391923e-01 4.470036747678278743e-01
2.263193850868045753e-01 4.043832068992188056e-01
2.273599339834699584e-01 2.760039202291046934e-01
2.284004828801353415e-01 2.705170545120587633e-01
2.294410317768007246e-01 6.281138453149957002e-01
2.304815806734661077e-01 5.322904047859040588e-01
2.315221295701314908e-01 2.302639102879844302e-01
2.325626784667968738e-01 5.138155726926640909e-02
2.336032273634622569e-01 2.513291310816434532e-01
2.346437762601276400e-01 8.889865338701277153e-01
2.356843251567930231e-01 6.119522113474609171e-01
2.367248740534584062e-01 6.083830106506233903e-01
2.377654229501237892e-01 6.071234617719802884e-01
2.388059718467891723e-01 9.463224706176447398e-01
2.398465207434545554e-01 7.344900706594224005e-01
2.408870696401199385e-01 8.722530593672104260e-01
2.419276185367853216e-01 1.127732945646421570e+00
2.429681674334507047e-01 1.131811780079456042e+00
2.440087163301160877e-01 8.443496170150197599e-01
2.450492652267814708e-01 9.526556286262248818e-01
2.460898141234468539e-01 9.740178259045251252e-01
2.471303630201122370e-01 1.248272233128641773e+00
2.481709119167776201e-01 1.271321280835266521e+00
2.492114608134430032e-01 1.299958900237140114e+00
2.502520097101083585e-01 1.171186847150888610e+00
2.512925586067737416e-01 1.179586905248378059e+00
2.523331075034391247e-01 1.324122782393789777e+00
2.533736564001045077e-01 1.549847071959099765e+00
2.544142052967698908e-01 1.512186755638971647e+00
2.554547541934352739e-01 1.550980396668229844e+00
2.564953030901006570e-01 1.516011348138857073e+00
2.575358519867660401e-01 1.278554723539642168e+00
2.585764008834314231e-01 1.572548679396557958e+00
2.596169497800968062e-01 1.719561847836420299e+00
2.606574986767621893e-01 1.692175663747391923e+00
2.616980475734275724e-01 1.592868085978487613e+00
2.627385964700929555e-01 1.576989169992771167e+00
2.637791453667583386e-01 1.627567248861431892e+00
2.648196942634237216e-01 1.485865523929753351e+00
2.658602431600891047e-01 1.634129372184975892e+00
2.669007920567544878e-01 1.779344555119109828e+00
2.679413409534198709e-01 1.815458620897342001e+00
2.689818898500852540e-01 1.982275453387476460e+00
2.700224387467506371e-01 1.993262411842394499e+00
2.710629876434160201e-01 1.611509671504190777e+00
2.721035365400814032e-01 1.424410357129811899e+00
2.731440854367467863e-01 1.238622520508982916e+00
2.741846343334121694e-01 1.648249067763440934e+00
2.752251832300775525e-01 1.575370314496574053e+00
2.762657321267429356e-01 1.361976894019960582e+00
2.773062810234083186e-01 1.538292276476600051e+00
2.783468299200737017e-01 1.468579521629262530e+00
2.793873788167390848e-01 1.187477693498525610e+00
2.804279277134044679e-01 1.290429978425308377e+00
2.814684766100698510e-01 1.308385817587296884e+00
2.825090255067352341e-01 1.361503174186015741e+00
2.835495744034006171e-01 1.250807755146116307e+00
2.845901233000660002e-01 1.115276660263621267e+00
2.856306721967313833e-01 1.081080268640786102e+00
2.866712210933967664e-01 1.239647202297447848e+00
2.877117699900621495e-01 1.375869661457350901e+00
2.887523188867275326e-01 1.307971797088207211e+00
2.897928677833929156e-01 1.052016466970634667e+00
2.908334166800582987e-01 8.849265954022200731e-01
2.918739655767236818e-01 6.930340011672910805e-01
2.929145144733890649e-01 7.558588437709126140e-01
2.939550633700544480e-01 1.098507768667559503e+00
2.949956122667198311e-01 1.000057979434242128e+00
2.960361611633852141e-01 7.529687717243760403e-01
2.970767100600505972e-01 6.384666288928642075e-01
2.981172589567159803e-01 6.042932249615198259e-01
2.991578078533813634e-01 9.405012343662875196e-01
3.001983567500468020e-01 8.027528323344590433e-01
3.012389056467121851e-01 8.122124388908460446e-01
3.022794545433775681e-01 7.839949028182644497e-01
3.033200034400429512e-01 6.547372818030616770e-01
3.043605523367083343e-01 8.113507948302505213e-01
3.054011012333737174e-01 5.633014645970249035e-01
3.064416501300391005e-01 5.416465820184868107e-01
3.074821990267044836e-01 4.383954776323761848e-01
3.085227479233698666e-01 3.282189818402017067e-01
3.095632968200352497e-01 3.267587756404566335e-01
3.106038457167006328e-01 1.834877955778217995e-01
3.116443946133660159e-01 3.348973550004217259e-01
3.126849435100313990e-01 5.004469011305765491e-01
3.137254924066967821e-01 3.309541769220025742e-01
3.147660413033621651e-01 2.510226567149338450e-01
3.158065902000275482e-01 2.871717846761292492e-01
3.168471390966929313e-01 6.064003396289656678e-01
3.178876879933583144e-01 5.701051415040438997e-01
3.189282368900236975e-01 4.518585612663947870e-01
3.199687857866890806e-01 3.161933325932189121e-01
3.210093346833544636e-01 3.241731949190445050e-01
3.220498835800198467e-01 3.636546141845933278e-01
3.230904324766852298e-01 4.367647284156177534e-01
3.241309813733506129e-01 3.270205768652303391e-01
3.251715302700159960e-01 2.253220640450344092e-01
3.262120791666813790e-01 2.829172583768411187e-01
3.272526280633467621e-01 3.018360269461908274e-01
3.282931769600121452e-01 4.605284683549406566e-01
3.293337258566775283e-01 3.662857657986577919e-01
3.303742747533429114e-01 2.407595663540753606e-01
3.314148236500082945e-01 6.521347804732613440e-02
3.324553725466736775e-01 2.313898138215257916e-01
3.334959214433390606e-01 3.363102992283373283e-01
3.345364703400044437e-01 2.782065832107392112e-01
3.355770192366698268e-01 4.331609592420342381e-01
3.366175681333352099e-01 4.179536446891276569e-01
3.376581170300005930e-01 4.068778733061719777e-01
3.386986659266659760e-01 4.095248078820823423e-01
3.397392148233313591e-01 5.104822854271269250e-01
3.407797637199967422e-01 4.358290611606818743e-01
3.418203126166621253e-01 4.693275203121771710e-01
3.428608615133275084e-01 2.973421691466207051e-01
3.439014104099928915e-01 2.849564484929061337e-01
3.449419593066582745e-01 4.688813588515898800e-01
3.459825082033236576e-01 5.635826870212952144e-01
3.470230570999890407e-01 7.612437359464507836e-01
3.480636059966544238e-01 7.567387596725083654e-01
3.491041548933198069e-01 7.471431540554220874e-01
3.501447037899851900e-01 7.143602360484564429e-01
3.511852526866505730e-01 6.836566799798688976e-01
3.522258015833159561e-01 5.019476721249738205e-01
3.532663504799813392e-01 6.562837351673422859e-01
3.543068993766467223e-01 8.272077054430724274e-01
3.553474482733121054e-01 9.981960639311466821e-01
3.563879971699774885e-01 6.031735269730376103e-01
3.574285460666428715e-01 5.819105023578501346e-01
3.584690949633082546e-01 4.496630053124519577e-01
3.595096438599736377e-01 3.605066499111764244e-01
3.605501927566390208e-01 6.803018240838270003e-01
3.615907416533044039e-01 7.007617207607701459e-01
3.626312905499697870e-01 6.244414968149456513e-01
3.636718394466351700e-01 5.872988815804056628e-01
3.647123883433005531e-01 6.241031739702407322e-01
3.657529372399659362e-01 7.449408768649021795e-01
3.667934861366313193e-01 6.085923269082833542e-01
3.678340350332967024e-01 6.094528461932746666e-01
3.688745839299620854e-01 6.938018458620085482e-01
3.699151328266274685e-01 6.634088462703005007e-01
3.709556817232928516e-01 6.155012941051296593e-01
3.719962306199582347e-01 5.944554113176749865e-01
3.730367795166236178e-01 4.812509332017782526e-01
3.740773284132890009e-01 6.655944780272307071e-01
3.751178773099543839e-01 7.255994642268319694e-01
3.761584262066197670e-01 6.296114361296076822e-01
3.771989751032851501e-01 6.484917283538607080e-01
3.782395239999505332e-01 5.665293929783281612e-01
3.792800728966159163e-01 4.568314451631465545e-01
3.803206217932812994e-01 4.897618770855345360e-01
3.813611706899466824e-01 4.574273733060891800e-01
3.824017195866120655e-01 4.158522051638762207e-01
3.834422684832774486e-01 4.676728424681471097e-01
3.844828173799428317e-01 4.486980489170768749e-01
3.855233662766082148e-01 5.101258317437817880e-01
3.865639151732735979e-01 3.863796698937385088e-01
3.876044640699389809e-01 4.998598382510266447e-01
3.886450129666043640e-01 5.856340299176210351e-01
3.896855618632697471e-01 6.469699004499744888e-01
3.907261107599351302e-01 5.826638561913526360e-01
3.917666596566005133e-01 4.441218346889961310e-01
3.928072085532658964e-01 2.435232463406968861e-01
3.938477574499312794e-01 3.554984796504108147e-01
3.948883063465966625e-01 4.022523192690314886e-01
3.959288552432620456e-01 2.409589218400043364e-01
3.969694041399274287e-01 2.266996352402692594e-01
3.980099530365928118e-01 2.543947331951912361e-01
3.990505019332581949e-01 3.125369093470169446e-01
4.000910508299235779e-01 4.315983374778902260e-01
4.011315997265889610e-01 4.593175288639841369e-01
4.021721486232543441e-01 4.769710640243616240e-01
4.032126975199197272e-01 3.654500450438469272e-01
4.042532464165851103e-01 2.538639177568100536e-01
4.052937953132504934e-01 3.637554003479301912e-01
4.063343442099158764e-01 2.634253438287359472e-01
4.073748931065812595e-01 1.063994686990525906e-01
4.084154420032466426e-01 4.033811121852686199e-01
4.094559908999120257e-01 2.780591397009537502e-01
4.104965397965774088e-01 4.168227471282683894e-01
4.115370886932427918e-01 5.681330509037394449e-01
4.125776375899081749e-01 4.692683843418095080e-01
4.136181864865735580e-01 3.649275183357403307e-01
4.146587353832389411e-01 4.196393895597658741e-01
4.156992842799043242e-01 4.259240238932910927e-01
4.167398331765697073e-01 3.393595904285362508e-01
4.177803820732350903e-01 2.174529912127063369e-01
4.188209309699004734e-01 0.000000000000000000e+00
4.198614798665658565e-01 2.414476461120145245e-01
4.209020287632312396e-01 2.502786821554288110e-01
4.219425776598966227e-01 4.296094265239815968e-01
4.229831265565620058e-01 2.948866803742049569e-01
4.240236754532273888e-01 2.937864032121346725e-01
4.250642243498927719e-01 3.255712997366693173e-01
4.261047732465581550e-01 3.229674342652728569e-01
4.271453221432235381e-01 3.177204354772484862e-01
4.281858710398889212e-01 2.785660510409897483e-01
4.292264199365543043e-01 3.229835907813587426e-01
4.302669688332196873e-01 2.411992430560800926e-01
4.313075177298850704e-01 3.813495233623456215e-01
4.323480666265504535e-01 4.553188920637438741e-01
4.333886155232158366e-01 3.073998908904336247e-01
4.344291644198812197e-01 1.949055863574997716e-01
