# q (1/Angstrom), Intensity (arb)
2.029070354705860696e-02 1.494818870714687819e+03
2.133125244372399004e-02 1.496160279753720715e+03
2.237180134038937659e-02 1.493753718736357314e+03
2.341235023705475968e-02 1.482789008334316350e+03
2.445289913372014276e-02 1.469096895544304971e+03
2.549344803038552584e-02 1.457608445191389364e+03
2.653399692705091240e-02 1.442623292244895310e+03
2.757454582371629548e-02 1.425916785497156297e+03
2.861509472038167856e-02 1.409420150922916264e+03
2.965564361704706164e-02 1.395980489930945396e+03
3.069619251371244473e-02 1.375776216545902798e+03
3.173674141037782781e-02 1.359997538305566195e+03
3.277729030704321089e-02 1.340459655578607681e+03
3.381783920370859398e-02 1.316085582799673602e+03
3.485838810037397706e-02 1.297519619273739863e+03
3.589893699703936014e-02 1.276122163156695478e+03
3.693948589370474322e-02 1.249890867120513576e+03
3.798003479037012631e-02 1.232950499419003791e+03
3.902058368703550939e-02 1.213986022262879715e+03
4.006113258370089247e-02 1.189014838010848052e+03
4.110168148036627556e-02 1.159410697332357358e+03
4.214223037703165864e-02 1.136445270991158623e+03
4.318277927369704866e-02 1.113143748676324776e+03
4.422332817036243174e-02 1.089482591530416812e+03
4.526387706702781483e-02 1.065228000004466821e+03
4.630442596369319791e-02 1.039151029117634380e+03
4.734497486035858099e-02 1.015282432227514732e+03
4.838552375702396408e-02 9.903981354573752469e+02
4.942607265368934716e-02 9.674518885255115492e+02
5.046662155035473024e-02 9.433201216372482349e+02
5.150717044702011332e-02 9.166571670457293521e+02
5.254771934368549641e-02 8.920247221901946659e+02
5.358826824035087949e-02 8.692474406790923922e+02
5.462881713701626257e-02 8.415957197701085306e+02
5.566936603368164566e-02 8.165489993922267331e+02
5.670991493034702874e-02 7.941531707610647572e+02
5.775046382701241182e-02 7.726095222418924777e+02
5.879101272367779490e-02 7.490653257588097631e+02
5.983156162034317799e-02 7.230863163668532252e+02
6.087211051700856107e-02 6.985822233769163176e+02
6.191265941367394415e-02 6.751207927055494338e+02
6.295320831033933417e-02 6.520341211515991517e+02
6.399375720700471726e-02 6.292629927101021394e+02
6.503430610367010034e-02 6.076876774051723942e+02
6.607485500033548342e-02 5.859154755672504962e+02
6.711540389700086651e-02 5.636869670829314600e+02
6.815595279366624959e-02 5.442977094735259698e+02
6.919650169033163267e-02 5.216185847141712202e+02
7.023705058699701576e-02 4.999390104836889464e+02
7.127759948366239884e-02 4.776427337034657512e+02
7.231814838032778192e-02 4.595648570595015485e+02
7.335869727699316500e-02 4.429532231849727850e+02
7.439924617365854809e-02 4.226755868020941875e+02
7.543979507032393117e-02 4.040415245572599474e+02
7.648034396698931425e-02 3.847901908150868167e+02
7.752089286365469734e-02 3.653926645985256982e+02
7.856144176032008042e-02 3.492287618882845095e+02
7.960199065698546350e-02 3.323240210849393748e+02
8.064253955365084658e-02 3.161217170168449115e+02
8.168308845031622967e-02 3.013958043242573126e+02
8.272363734698161275e-02 2.844068843872985326e+02
8.376418624364699583e-02 2.689620354591697264e+02
8.480473514031239279e-02 2.558156585285575488e+02
8.584528403697777588e-02 2.415520332582821652e+02
8.688583293364315896e-02 2.283283458267493131e+02
8.792638183030854204e-02 2.150382251665150193e+02
8.896693072697392513e-02 2.019252476305459538e+02
9.000747962363930821e-02 1.899015394793393057e+02
9.104802852030469129e-02 1.790166932568729408e+02
9.208857741697007437e-02 1.664368973092539079e+02
9.312912631363545746e-02 1.564614801606562935e+02
9.416967521030084054e-02 1.455608483311232817e+02
9.521022410696622362e-02 1.362742729723834714e+02
9.625077300363160671e-02 1.260449619547851228e+02
9.729132190029698979e-02 1.167192025606638168e+02
9.833187079696237287e-02 1.089471526210077883e+02
9.937241969362775595e-02 1.018138099941118355e+02
1.004129685902931390e-01 9.405934538026690461e+01
1.014535174869585221e-01 8.626050680385156966e+01
1.024940663836239052e-01 7.872835900014173660e+01
1.035346152802892883e-01 7.175751814880665336e+01
1.045751641769546714e-01 6.614294483552291126e+01
1.056157130736200545e-01 6.076862249784824854e+01
1.066562619702854375e-01 5.526302035498451914e+01
1.076968108669508206e-01 4.918081320750003727e+01
1.087373597636162037e-01 4.519396796766164925e+01
1.097779086602815868e-01 4.089970376689819176e+01
1.108184575569469699e-01 3.676817378809029435e+01
1.118590064536123529e-01 3.307406859447906555e+01
1.128995553502777360e-01 2.938735664812864101e+01
1.139401042469431191e-01 2.608068378174559143e+01
1.149806531436085022e-01 2.322571111094546481e+01
1.160212020402738853e-01 2.074391983691696240e+01
1.170617509369392684e-01 1.764592631181127302e+01
1.181022998336046514e-01 1.492885309831887852e+01
1.191428487302700345e-01 1.303009181206090972e+01
1.201833976269354176e-01 1.169631879286277254e+01
1.212239465236008007e-01 9.850724233659899909e+00
1.222644954202661838e-01 8.724848645747545817e+00
1.233050443169315669e-01 7.307317192646067383e+00
1.243455932135969499e-01 5.838838701372178974e+00
1.253861421102623330e-01 5.104420465654925465e+00
1.264266910069277161e-01 4.441053080757022542e+00
1.274672399035930992e-01 4.052903613474242661e+00
1.285077888002584823e-01 3.369144277762138984e+00
1.295483376969238654e-01 2.466511413973847766e+00
1.305888865935892484e-01 1.995230613489891169e+00
1.316294354902546315e-01 1.622618150127944858e+00
1.326699843869200146e-01 1.807927613457355420e+00
1.337105332835853977e-01 2.173007349547972922e+00
1.347510821802507808e-01 2.028087336135197205e+00
1.357916310769161639e-01 2.204804669911670345e+00
1.368321799735815469e-01 2.450105636136342468e+00
1.378727288702469300e-01 2.428586813038833725e+00
1.389132777669123131e-01 2.684292091387643353e+00
1.399538266635776962e-01 3.551886913266990575e+00
1.409943755602430793e-01 3.911704222356021887e+00
1.420349244569084624e-01 4.269653709570246036e+00
1.430754733535738454e-01 4.173825616321614973e+00
1.441160222502392285e-01 4.437365454092915940e+00
1.451565711469046116e-01 5.399863110052333326e+00
1.461971200435699947e-01 5.836816170880002375e+00
1.472376689402353778e-01 5.852709340377675318e+00
1.482782178369007609e-01 6.847233684262317155e+00
1.493187667335661439e-01 7.468023348562372377e+00
1.503593156302315270e-01 7.496539069445436354e+00
1.513998645268969101e-01 7.843316599254567478e+00
1.524404134235622932e-01 8.477558703986080246e+00
1.534809623202276763e-01 8.727631967422510684e+00
1.545215112168930593e-01 9.057735558637347140e+00
1.555620601135584424e-01 9.785093136719819285e+00
1.566026090102238255e-01 9.993008236399052890e+00
1.576431579068892086e-01 1.034133979470943032e+01
1.586837068035545917e-01 1.068911987841792310e+01
1.597242557002199748e-01 1.108739271873599108e+01
1.607648045968853578e-01 1.125404972610490617e+01
1.618053534935507409e-01 1.133425649979317384e+01
1.628459023902161240e-01 1.131678096655199894e+01
1.638864512868815071e-01 1.172597643623777230e+01
1.649270001835468902e-01 1.212200454774363578e+01
1.659675490802122733e-01 1.177228996568249286e+01
1.670080979768776563e-01 1.197793843217338861e+01
1.680486468735430672e-01 1.218698630629700830e+01
1.690891957702084503e-01 1.232836437506419003e+01
1.701297446668738333e-01 1.215374737879870537e+01
1.711702935635392164e-01 1.208226596963134369e+01
1.722108424602045995e-01 1.194288966138015340e+01
1.732513913568699826e-01 1.183499968166728777e+01
1.742919402535353657e-01 1.187079308942207589e+01
1.753324891502007488e-01 1.151346148668131164e+01
1.763730380468661318e-01 1.139317504958930982e+01
1.774135869435315149e-01 1.116613870323868341e+01
1.784541358401968980e-01 1.082439646502046315e+01
1.794946847368622811e-01 1.063996888835520949e+01
1.805352336335276642e-01 1.015812782447686757e+01
1.815757825301930473e-01 1.004442451464280239e+01
1.826163314268584303e-01 9.809153151993847075e+00
1.836568803235238134e-01 9.256900160627505869e+00
1.846974292201891965e-01 9.087411040059095058e+00
1.857379781168545796e-01 8.937665354820893526e+00
1.867785270135199627e-01 8.792691221066711194e+00
1.878190759101853458e-01 8.595678351985927890e+00
1.888596248068507288e-01 8.223166270353338803e+00
1.899001737035161119e-01 8.049962315932507551e+00
1.909407226001814950e-01 7.590605635325594847e+00
1.919812714968468781e-01 7.181816247248317353e+00
1.930218203935122612e-01 6.652894254487758730e+00
1.940623692901776443e-01 6.486091955741059678e+00
1.951029181868430273e-01 6.198254489375877085e+00
1.961434670835084104e-01 6.070636447093747279e+00
1.971840159801737935e-01 5.792525746132660913e+00
1.982245648768391766e-01 5.288944706488074132e+00
1.992651137735045597e-01 5.085649403825218684e+00
2.003056626701699428e-01 4.773111454312974899e+00
2.013462115668353813e-01 3.879630733159398659e+00
2.023867604635007644e-01 3.554122941999914076e+00
2.034273093601661475e-01 3.395711424653310218e+00
2.044678582568315306e-01 3.095144360082418444e+00
2.055084071534969137e-01 2.938566243131031541e+00
2.065489560501622968e-01 2.676030904146713851e+00
2.075895049468276798e-01 2.216896499240306184e+00
2.086300538434930629e-01 2.132466122318483315e+00
2.096706027401584460e-01 2.210150822520365210e+00
2.107111516368238291e-01 2.392138442711079449e+00
2.117517005334892122e-01 2.053154667598548144e+00
2.127922494301545953e-01 1.758766711395125526e+00
2.138327983268199783e-01 1.684266422278476227e+00
2.148733472234853614e-01 1.409267346013692190e+00
2.159138961201507445e-01 1.353421835519323935e+00
2.169544450168161276e-01 1.102537211229179803e+00
2.179949939134815107e-01 1.006610250114217564e+00
2.190355428101468938e-01 1.018607991015024083e+00
2.200760917068122768e-01 1.101045679590331616e+00
2.211166406034776599e-01 8.020372478613957412e-01
2.221571895001430430e-01 7.178151757781812137e-01
2.231977383968084261e-01 4.167917786957850979e-01
2.242382872934738092e-01 6.047654123625640921e-01
2.252788361901391923e-01 7.390496954308218847e-01
2.263193850868045753e-01 3.546726029812070635e-01
2.273599339834699584e-01 5.113053206178967969e-01
2.284004828801353415e-01 6.819506311866767589e-01
2.294410317768007246e-01 7.346435829496478220e-01
2.304815806734661077e-01 5.929198203103602793e-01
2.315221295701314908e-01 6.211773928427994917e-01
2.325626784667968738e-01 3.355406119341779458e-01
2.336032273634622569e-01 5.515946350673033294e-01
2.346437762601276400e-01 6.304877493378100439e-01
2.356843251567930231e-01 5.560622822623351169e-01
2.367248740534584062e-01 6.561957067275194788e-01
2.377654229501237892e-01 6.822804895265619507e-01
2.388059718467891723e-01 8.662159856807782887e-01
2.398465207434545554e-01 7.985394714315567910e-01
2.408870696401199385e-01 8.441573912752424746e-01
2.419276185367853216e-01 1.263996282584784581e+00
2.429681674334507047e-01 1.224002775354307460e+00
2.440087163301160877e-01 1.073420603612689206e+00
2.450492652267814708e-01 1.275935074306474348e+00
2.460898141234468539e-01 1.590480654687080886e+00
2.471303630201122370e-01 1.427614853920260884e+00
2.481709119167776201e-01 1.381729880650681253e+00
2.492114608134430032e-01 1.480796589045901612e+00
2.502520097101083585e-01 1.425332150270026688e+00
2.512925586067737416e-01 1.434486829083311932e+00
2.523331075034391247e-01 1.738067481763472699e+00
2.533736564001045077e-01 1.672772248566825937e+00
2.544142052967698908e-01 1.881671072167954151e+00
2.554547541934352739e-01 1.784104625690954293e+00
2.564953030901006570e-01 1.753777215616157292e+00
2.575358519867660401e-01 1.859394258080172335e+00
2.585764008834314231e-01 1.912744398875698693e+00
2.596169497800968062e-01 1.897467338304700490e+00
2.606574986767621893e-01 1.917677055456771029e+00
2.616980475734275724e-01 2.067584996128292829e+00
2.627385964700929555e-01 1.882103973055777146e+00
2.637791453667583386e-01 1.690761208791599302e+00
2.648196942634237216e-01 1.706793933869807489e+00
2.658602431600891047e-01 2.051024920794830564e+00
2.669007920567544878e-01 2.147034489650767597e+00
2.679413409534198709e-01 1.950672831122453488e+00
2.689818898500852540e-01 1.598717948009745982e+00
2.700224387467506371e-01 2.021394002461459394e+00
2.710629876434160201e-01 1.842731853783817542e+00
2.721035365400814032e-01 1.799054483839665153e+00
2.731440854367467863e-01 1.913341409926140102e+00
2.741846343334121694e-01 1.709010087620043805e+00
2.752251832300775525e-01 1.603631982891890573e+00
2.762657321267429356e-01 1.624341657400844241e+00
2.773062810234083186e-01 1.572269452975202597e+00
2.783468299200737017e-01 1.309332411124866979e+00
2.793873788167390848e-01 1.379256455583732333e+00
2.804279277134044679e-01 1.663649013681219202e+00
2.814684766100698510e-01 1.613210377405756901e+00
2.825090255067352341e-01 1.475006985399048176e+00
2.835495744034006171e-01 1.532443499199857229e+00
2.845901233000660002e-01 1.520487567932839568e+00
2.856306721967313833e-01 1.298161402612659998e+00
2.866712210933967664e-01 1.160008593337231275e+00
2.877117699900621495e-01 1.246196159639385570e+00
2.887523188867275326e-01 1.143381443994929469e+00
2.897928677833929156e-01 1.214472078905856733e+00
2.908334166800582987e-01 1.201655432496941955e+00
2.918739655767236818e-01 9.876135637679084311e-01
2.929145144733890649e-01 9.660036724683962461e-01
2.939550633700544480e-01 1.003799672807996757e+00
2.949956122667198311e-01 8.925156413308492631e-01
2.960361611633852141e-01 1.052364264136709693e+00
2.970767100600505972e-01 9.672647024753437961e-01
2.981172589567159803e-01 7.346810838752411144e-01
2.991578078533813634e-01 7.106673464455788292e-01
3.001983567500468020e-01 1.037104549436786982e+00
3.012389056467121851e-01 9.269024998045800601e-01
3.022794545433775681e-01 5.551378247299467716e-01
3.033200034400429512e-01 5.471506458833275133e-01
3.043605523367083343e-01 6.171435978291341939e-01
3.054011012333737174e-01 5.220655903005670950e-01
3.064416501300391005e-01 3.916688566447099618e-01
3.074821990267044836e-01 5.395377879914988739e-01
3.085227479233698666e-01 4.251049243922189191e-01
3.095632968200352497e-01 3.312181193261309886e-01
3.106038457167006328e-01 3.980186374240979319e-01
3.116443946133660159e-01 4.045043221760877827e-01
3.126849435100313990e-01 2.776826062537587347e-01
3.137254924066967821e-01 3.013842275633464851e-01
3.147660413033621651e-01 2.470756744403708183e-01
3.158065902000275482e-01 8.888814295770686158e-02
3.168471390966929313e-01 7.487942460734586803e-03
3.178876879933583144e-01 2.077443285407589713e-01
3.189282368900236975e-01 2.973898019672454041e-01
3.199687857866890806e-01 4.119368231389231028e-02
3.210093346833544636e-01 0.000000000000000000e+00
3.220498835800198467e-01 4.141377954834659647e-01
3.230904324766852298e-01 5.081889207015173326e-01
3.241309813733506129e-01 4.968649143967951431e-01
3.251715302700159960e-01 5.190704351516934878e-01
3.262120791666813790e-01 4.814015449243953526e-01
3.272526280633467621e-01 5.464441865281699506e-01
3.282931769600121452e-01 5.135733282427246138e-01
3.293337258566775283e-01 4.030497598067093179e-01
3.303742747533429114e-01 2.946330315220819784e-01
3.314148236500082945e-01 3.374302845265937378e-01
3.324553725466736775e-01 3.473095669683132769e-01
3.334959214433390606e-01 5.358327378196285906e-01
3.345364703400044437e-01 3.989103267478206760e-01
3.355770192366698268e-01 3.211737712430533520e-01
3.366175681333352099e-01 2.501857981069939285e-01
3.376581170300005930e-01 4.181142933114152527e-01
3.386986659266659760e-01 5.084338332980493647e-01
3.397392148233313591e-01 5.590205066936171363e-01
3.407797637199967422e-01 7.008817308823829251e-01
3.418203126166621253e-01 6.626280213404776021e-01
3.428608615133275084e-01 5.838640388663414171e-01
3.439014104099928915e-01 6.248301521347841003e-01
3.449419593066582745e-01 4.745154047649968732e-01
3.459825082033236576e-01 6.015031308199176863e-01
3.470230570999890407e-01 4.322497690840556572e-01
3.480636059966544238e-01 3.661873144655665158e-01
3.491041548933198069e-01 6.170510587800492885e-01
3.501447037899851900e-01 5.975160292247601035e-01
3.511852526866505730e-01 6.406029989234696131e-01
3.522258015833159561e-01 7.238129788187102065e-01
3.532663504799813392e-01 8.344531204771392652e-01
3.543068993766467223e-01 6.809130304464545702e-01
3.553474482733121054e-01 6.124846884790962065e-01
3.563879971699774885e-01 4.014702584022025178e-01
3.574285460666428715e-01 3.074842230920786790e-01
3.584690949633082546e-01 3.408749206446266555e-01
3.595096438599736377e-01 4.046664049572008537e-01
3.605501927566390208e-01 5.406362232297006187e-01
3.615907416533044039e-01 6.908369631436457325e-01
3.626312905499697870e-01 6.977941603662927150e-01
3.636718394466351700e-01 7.634113197540841611e-01
3.647123883433005531e-01 6.309527496011675396e-01
3.657529372399659362e-01 7.532821596125849339e-01
3.667934861366313193e-01 8.254175839419346516e-01
3.678340350332967024e-01 7.672582590780230305e-01
3.688745839299620854e-01 7.070766108594810362e-01
3.699151328266274685e-01 6.911335880741198423e-01
3.709556817232928516e-01 6.208872435745291796e-01
3.719962306199582347e-01 4.134845291842879078e-01
3.730367795166236178e-01 5.154101789824387936e-01
3.740773284132890009e-01 4.562063112264915787e-01
3.751178773099543839e-01 4.301201116462465279e-01
3.761584262066197670e-01 7.074569707146807218e-01
3.771989751032851501e-01 8.499361808749732461e-01
3.782395239999505332e-01 5.044889118566473485e-01
3.792800728966159163e-01 4.990051469427676523e-01
3.803206217932812994e-01 4.833248802038987435e-01
3.813611706899466824e-01 4.749488841027513786e-01
3.824017195866120655e-01 5.584209140987148601e-01
3.834422684832774486e-01 4.624457488190394372e-01
3.844828173799428317e-01 3.426373173339847256e-01
3.855233662766082148e-01 5.666205244201343305e-01
3.865639151732735979e-01 5.935843257407071860e-01
3.876044640699389809e-01 4.443756051562353093e-01
3.886450129666043640e-01 4.360703541352393131e-01
3.896855618632697471e-01 6.427472533440194979e-01
3.907261107599351302e-01 3.519070794118341894e-01
3.917666596566005133e-01 3.608296527919669927e-01
3.928072085532658964e-01 2.944211242258383265e-01
3.938477574499312794e-01 3.884360773286523738e-01
3.948883063465966625e-01 3.940770346684168146e-01
3.959288552432620456e-01 3.941791923117534679e-01
3.969694041399274287e-01 5.034512860698789893e-01
3.980099530365928118e-01 5.118974713555211054e-01
3.990505019332581949e-01 3.048695993712797758e-01
4.000910508299235779e-01 2.864433697141919311e-01
4.011315997265889610e-01 4.769419964401322432e-01
4.021721486232543441e-01 4.651437466870511628e-01
4.032126975199197272e-01 2.930082406797680505e-01
4.042532464165851103e-01 1.964011347482532699e-01
4.052937953132504934e-01 2.496624808346439295e-01
4.063343442099158764e-01 2.751543000774496761e-01
4.073748931065812595e-01 1.601638113203378566e-01
4.084154420032466426e-01 2.284087166294348492e-01
4.094559908999120257e-01 1.832513587422717194e-01
4.104965397965774088e-01 3.572763104078156005e-01
4.115370886932427918e-01 3.388494716703327470e-01
4.125776375899081749e-01 1.424982394739480185e-01
4.136181864865735580e-01 3.460930827231365470e-01
4.146587353832389411e-01 4.213471467472942322e-01
4.156992842799043242e-01 3.375259034034812089e-01
4.167398331765697073e-01 3.839514749470751553e-01
4.177803820732350903e-01 3.636854511456917294e-01
4.188209309699004734e-01 1.749861209425453978e-01
4.198614798665658565e-01 3.707116600478457258e-01
4.209020287632312396e-01 2.946697357194132394e-01
4.219425776598966227e-01 3.634645299010976771e-01
4.229831265565620058e-01 3.902333669465889443e-01
4.240236754532273888e-01 2.668891798803585402e-01
4.250642243498927719e-01 3.636927399604914513e-01
4.261047732465581550e-01 3.248070984484847656e-01
4.271453221432235381e-01 2.600275756802830074e-01
4.281858710398889212e-01 2.409165069532441805e-01
4.292264199365543043e-01 1.802850599638325946e-01
4.302669688332196873e-01 3.649642532174190990e-01
4.313075177298850704e-01 4.242852344643068818e-01
4.323480666265504535e-01 3.854859259589424880e-01
4.333886155232158366e-01 3.522363919401705346e-01
4.344291644198812197e-01 3.622518020805891581e-01
