# q (1/Angstrom), Intensity (arb)
2.029070354705860696e-02 1.458957075681782953e+03
2.133125244372399004e-02 1.460624530157627760e+03
2.237180134038937659e-02 1.454923254898676532e+03
2.341235023705475968e-02 1.443137984001636596e+03
2.445289913372014276e-02 1.430644262820307631e+03
2.549344803038552584e-02 1.417616197333687523e+03
2.653399692705091240e-02 1.405989320126825760e+03
2.757454582371629548e-02 1.395877468617318527e+03
2.861509472038167856e-02 1.376501646776572898e+03
2.965564361704706164e-02 1.357995125473710232e+03
3.069619251371244473e-02 1.344797216774341450e+03
3.173674141037782781e-02 1.325350765724957000e+03
3.277729030704321089e-02 1.305635319769411353e+03
3.381783920370859398e-02 1.283282958848621774e+03
3.485838810037397706e-02 1.262578681798096341e+03
3.589893699703936014e-02 1.241632178972963402e+03
3.693948589370474322e-02 1.218301269936347353e+03
3.798003479037012631e-02 1.198929002998920623e+03
3.902058368703550939e-02 1.176643432984320725e+03
4.006113258370089247e-02 1.154869164910726113e+03
4.110168148036627556e-02 1.133519680973638742e+03
4.214223037703165864e-02 1.107686959315412423e+03
4.318277927369704866e-02 1.083761042150653793e+03
4.422332817036243174e-02 1.060835958221469127e+03
4.526387706702781483e-02 1.035265938289732503e+03
4.630442596369319791e-02 1.012296447464034145e+03
4.734497486035858099e-02 9.870401943281297008e+02
4.838552375702396408e-02 9.621851098311854003e+02
4.942607265368934716e-02 9.368057427798391927e+02
5.046662155035473024e-02 9.170781326316833884e+02
5.150717044702011332e-02 8.924227785494592808e+02
5.254771934368549641e-02 8.668235083159797796e+02
5.358826824035087949e-02 8.440366831471067144e+02
5.462881713701626257e-02 8.211477743612166478e+02
5.566936603368164566e-02 7.943337411659409781e+02
5.670991493034702874e-02 7.716958119640096356e+02
5.775046382701241182e-02 7.501468550299039180e+02
5.879101272367779490e-02 7.267563330556808978e+02
5.983156162034317799e-02 7.039911530869079570e+02
6.087211051700856107e-02 6.809266487964815724e+02
6.191265941367394415e-02 6.568321447953418328e+02
6.295320831033933417e-02 6.313972470692102661e+02
6.399375720700471726e-02 6.097252315296015013e+02
6.503430610367010034e-02 5.889407045972120613e+02
6.607485500033548342e-02 5.671769893752551752e+02
6.711540389700086651e-02 5.486648383637491406e+02
6.815595279366624959e-02 5.272153702335925800e+02
6.919650169033163267e-02 5.072464846914114673e+02
7.023705058699701576e-02 4.875995430607283652e+02
7.127759948366239884e-02 4.651529927959691122e+02
7.231814838032778192e-02 4.455928511463070549e+02
7.335869727699316500e-02 4.272729155209986516e+02
7.439924617365854809e-02 4.089180307297143031e+02
7.543979507032393117e-02 3.904921627371026602e+02
7.648034396698931425e-02 3.741240419919685110e+02
7.752089286365469734e-02 3.561959520949792477e+02
7.856144176032008042e-02 3.391287182232834994e+02
7.960199065698546350e-02 3.235218853596877011e+02
8.064253955365084658e-02 3.083662460141341057e+02
8.168308845031622967e-02 2.927832519020189466e+02
8.272363734698161275e-02 2.769872058071887295e+02
8.376418624364699583e-02 2.625920816850629649e+02
8.480473514031239279e-02 2.477616112134620607e+02
8.584528403697777588e-02 2.343571335298307474e+02
8.688583293364315896e-02 2.215447161561884286e+02
8.792638183030854204e-02 2.080240071643443684e+02
8.896693072697392513e-02 1.963842044052735218e+02
9.000747962363930821e-02 1.847274898070499489e+02
9.104802852030469129e-02 1.730398555351385426e+02
9.208857741697007437e-02 1.631518193843837707e+02
9.312912631363545746e-02 1.523791724039628832e+02
9.416967521030084054e-02 1.416259674454140054e+02
9.521022410696622362e-02 1.316749514841529844e+02
9.625077300363160671e-02 1.224266204826751334e+02
9.729132190029698979e-02 1.127406062041497137e+02
9.833187079696237287e-02 1.053043430436720342e+02
9.937241969362775595e-02 9.760470253590841594e+01
1.004129685902931390e-01 9.027049115934866563e+01
1.014535174869585221e-01 8.358353129828201133e+01
1.024940663836239052e-01 7.734256374135796364e+01
1.035346152802892883e-01 7.080972503819619135e+01
1.045751641769546714e-01 6.432178371554073237e+01
1.056157130736200545e-01 5.868839027102124817e+01
1.066562619702854375e-01 5.285054398934750708e+01
1.076968108669508206e-01 4.769988046056879227e+01
1.087373597636162037e-01 4.354621498664597823e+01
1.097779086602815868e-01 3.963028270000144460e+01
1.108184575569469699e-01 3.554703098949532603e+01
1.118590064536123529e-01 3.149007866385980847e+01
1.128995553502777360e-01 2.810582119755655128e+01
1.139401042469431191e-01 2.429159048637686524e+01
1.149806531436085022e-01 2.144136147462611319e+01
1.160212020402738853e-01 1.892211144260258493e+01
1.170617509369392684e-01 1.693809633884793442e+01
1.181022998336046514e-01 1.473634926499384079e+01
1.191428487302700345e-01 1.272133591695851962e+01
1.201833976269354176e-01 1.103714114522190570e+01
1.212239465236008007e-01 9.654339639054477118e+00
1.222644954202661838e-01 8.372738588037524465e+00
1.233050443169315669e-01 6.739375902440880139e+00
1.243455932135969499e-01 6.259088812971363325e+00
1.253861421102623330e-01 5.064594719304238879e+00
1.264266910069277161e-01 4.181161506356627200e+00
1.274672399035930992e-01 3.644733797064571235e+00
1.285077888002584823e-01 3.217226101725866982e+00
1.295483376969238654e-01 2.888984839251861558e+00
1.305888865935892484e-01 2.348864927107676692e+00
1.316294354902546315e-01 2.236142629518468539e+00
1.326699843869200146e-01 2.065242200243773141e+00
1.337105332835853977e-01 1.957202965675648443e+00
1.347510821802507808e-01 2.383883628554421819e+00
1.357916310769161639e-01 2.165431918154457236e+00
1.368321799735815469e-01 2.110835521230562506e+00
1.378727288702469300e-01 2.076475508488417887e+00
1.389132777669123131e-01 2.471786923159324800e+00
1.399538266635776962e-01 3.332761848901327539e+00
1.409943755602430793e-01 3.339071505256676176e+00
1.420349244569084624e-01 3.686063257808950056e+00
1.430754733535738454e-01 4.510179696056759724e+00
1.441160222502392285e-01 4.567649268474127666e+00
1.451565711469046116e-01 4.901354249483084402e+00
1.461971200435699947e-01 5.595551632302569800e+00
1.472376689402353778e-01 5.808247659955124931e+00
1.482782178369007609e-01 5.869449885240850762e+00
1.493187667335661439e-01 6.318052211360861037e+00
1.503593156302315270e-01 7.211637599617844785e+00
1.513998645268969101e-01 8.020723473188642316e+00
1.524404134235622932e-01 8.446842010808921941e+00
1.534809623202276763e-01 8.750309474918768871e+00
1.545215112168930593e-01 8.834505506715295553e+00
1.555620601135584424e-01 9.078591995489166067e+00
1.566026090102238255e-01 9.576217597877310084e+00
1.576431579068892086e-01 9.748504509810878460e+00
1.586837068035545917e-01 1.030626172339794877e+01
1.597242557002199748e-01 1.085086992570198205e+01
1.607648045968853578e-01 1.101187655524666908e+01
1.618053534935507409e-01 1.097181698906500813e+01
1.628459023902161240e-01 1.112908754113701093e+01
1.638864512868815071e-01 1.139777148916351379e+01
1.649270001835468902e-01 1.127552062969850510e+01
1.659675490802122733e-01 1.149272033890579081e+01
1.670080979768776563e-01 1.123227151268362789e+01
1.680486468735430672e-01 1.132252481639879349e+01
1.690891957702084503e-01 1.187635250552540356e+01
1.701297446668738333e-01 1.167000067157548315e+01
1.711702935635392164e-01 1.162720692058558569e+01
1.722108424602045995e-01 1.135295006229688042e+01
1.732513913568699826e-01 1.099763146717240758e+01
1.742919402535353657e-01 1.131947539043517281e+01
1.753324891502007488e-01 1.107050082581534411e+01
1.763730380468661318e-01 1.049854612584712044e+01
1.774135869435315149e-01 1.036360130207119212e+01
1.784541358401968980e-01 1.036703258144325446e+01
1.794946847368622811e-01 1.037203425667323842e+01
1.805352336335276642e-01 1.028395784800893864e+01
1.815757825301930473e-01 9.963768759214968185e+00
1.826163314268584303e-01 9.939564020612536410e+00
1.836568803235238134e-01 9.372337156948947978e+00
1.846974292201891965e-01 8.721277124163606231e+00
1.857379781168545796e-01 8.361212760991946880e+00
1.867785270135199627e-01 7.955337332395735928e+00
1.878190759101853458e-01 7.649756281275788439e+00
1.888596248068507288e-01 7.246386101038204686e+00
1.899001737035161119e-01 7.113764880935526946e+00
1.909407226001814950e-01 6.792022114093480667e+00
1.919812714968468781e-01 6.432513721031547504e+00
1.930218203935122612e-01 6.101837457179591695e+00
1.940623692901776443e-01 5.805201556696466980e+00
1.951029181868430273e-01 5.695685281083925133e+00
1.961434670835084104e-01 5.315599615851247961e+00
1.971840159801737935e-01 4.989076204741980547e+00
1.982245648768391766e-01 4.561679765127074404e+00
1.992651137735045597e-01 4.527590488333654406e+00
2.003056626701699428e-01 4.036302286498809622e+00
2.013462115668353813e-01 3.594253425411928049e+00
2.023867604635007644e-01 3.669587392494086941e+00
2.034273093601661475e-01 3.563810545168948352e+00
2.044678582568315306e-01 3.141134753404070779e+00
2.055084071534969137e-01 2.777885824038683893e+00
2.065489560501622968e-01 2.864366254026240455e+00
2.075895049468276798e-01 2.556888320842102047e+00
2.086300538434930629e-01 2.401199915670922280e+00
2.096706027401584460e-01 2.286524412200972023e+00
2.107111516368238291e-01 1.903639624173248279e+00
2.117517005334892122e-01 1.643731795940571061e+00
2.127922494301545953e-01 1.544744556708852912e+00
2.138327983268199783e-01 1.128749618229576868e+00
2.148733472234853614e-01 1.013072478373992169e+00
2.159138961201507445e-01 1.042623872615887848e+00
2.169544450168161276e-01 8.887471211321553710e-01
2.179949939134815107e-01 9.013006227832391914e-01
2.190355428101468938e-01 6.376286468845790978e-01
2.200760917068122768e-01 6.932871457725227060e-01
2.211166406034776599e-01 8.053943738605191527e-01
2.221571895001430430e-01 6.445509798611439578e-01
2.231977383968084261e-01 6.932855168367559884e-01
2.242382872934738092e-01 3.419342537741414390e-01
2.252788361901391923e-01 2.494421906245847254e-01
2.263193850868045753e-01 1.821396731382840528e-01
2.273599339834699584e-01 3.960454747584769564e-01
2.284004828801353415e-01 7.102439508519253764e-01
2.294410317768007246e-01 3.981138304651565818e-01
2.304815806734661077e-01 3.041027437020460411e-01
2.315221295701314908e-01 3.746376345993915891e-01
2.325626784667968738e-01 4.239100694037354344e-01
2.336032273634622569e-01 4.774102874724306389e-01
2.346437762601276400e-01 5.612414097832321147e-01
2.356843251567930231e-01 5.229709934742601263e-01
2.367248740534584062e-01 6.246290927332935894e-01
2.377654229501237892e-01 3.510018518328621440e-01
2.388059718467891723e-01 7.212270715892437067e-01
2.398465207434545554e-01 1.036496129894032947e+00
2.408870696401199385e-01 1.203328331705321830e+00
2.419276185367853216e-01 1.027465573072664284e+00
2.429681674334507047e-01 1.212738750147661193e+00
2.440087163301160877e-01 1.136645233304008684e+00
2.450492652267814708e-01 1.025896790513012746e+00
2.460898141234468539e-01 1.278663850348518594e+00
2.471303630201122370e-01 1.285000918552153593e+00
2.481709119167776201e-01 1.435453408288740462e+00
2.492114608134430032e-01 1.251774512700780662e+00
2.502520097101083585e-01 1.263907526613671450e+00
2.512925586067737416e-01 1.138767614326003041e+00
2.523331075034391247e-01 1.233364339835439694e+00
2.533736564001045077e-01 1.427187336506328563e+00
2.544142052967698908e-01 1.360295845307064155e+00
2.554547541934352739e-01 1.574893986061642437e+00
2.564953030901006570e-01 2.048544011472763771e+00
2.575358519867660401e-01 2.070371542203467641e+00
2.585764008834314231e-01 1.821071389904989957e+00
2.596169497800968062e-01 1.587530817868501032e+00
2.606574986767621893e-01 1.532890395667802608e+00
2.616980475734275724e-01 1.703489992192199765e+00
2.627385964700929555e-01 1.780183214108976841e+00
2.637791453667583386e-01 1.684583291066498845e+00
2.648196942634237216e-01 1.957513638572930148e+00
2.658602431600891047e-01 2.247634371770743655e+00
2.669007920567544878e-01 1.856687126023363277e+00
2.679413409534198709e-01 1.781660663814925272e+00
2.689818898500852540e-01 1.844022251039390881e+00
2.700224387467506371e-01 1.583761378539691123e+00
2.710629876434160201e-01 1.557679912323148841e+00
2.721035365400814032e-01 1.545078732185039883e+00
2.731440854367467863e-01 1.540886571440651664e+00
2.741846343334121694e-01 1.615335908372387053e+00
2.752251832300775525e-01 1.541755408308361552e+00
2.762657321267429356e-01 1.605263270787272489e+00
2.773062810234083186e-01 1.392439669257534263e+00
2.783468299200737017e-01 1.294623819106160312e+00
2.793873788167390848e-01 1.293384628423158489e+00
2.804279277134044679e-01 1.147495654421852862e+00
2.814684766100698510e-01 1.185827924154569502e+00
2.825090255067352341e-01 1.193364009394436209e+00
2.835495744034006171e-01 1.086880717093624327e+00
2.845901233000660002e-01 8.525451945680657673e-01
2.856306721967313833e-01 9.383166139425718200e-01
2.866712210933967664e-01 1.391200135575150654e+00
2.877117699900621495e-01 1.183126157433054715e+00
2.887523188867275326e-01 1.016968171034090318e+00
2.897928677833929156e-01 9.620953090180535128e-01
2.908334166800582987e-01 1.161417859200486902e+00
2.918739655767236818e-01 1.173474911940310506e+00
2.929145144733890649e-01 9.430018887246696124e-01
2.939550633700544480e-01 8.897396592284039230e-01
2.949956122667198311e-01 6.732771175873466518e-01
2.960361611633852141e-01 6.572532407547591049e-01
2.970767100600505972e-01 7.655648018056275816e-01
2.981172589567159803e-01 6.909722097635864202e-01
2.991578078533813634e-01 8.687488594320527113e-01
3.001983567500468020e-01 9.145977759998515921e-01
3.012389056467121851e-01 7.541061005161466824e-01
3.022794545433775681e-01 5.880119498842830694e-01
3.033200034400429512e-01 3.742372968608371764e-01
3.043605523367083343e-01 2.876303962553237170e-01
3.054011012333737174e-01 3.979816648074141483e-01
3.064416501300391005e-01 2.271155329516822974e-01
3.074821990267044836e-01 5.995902414599143526e-01
3.085227479233698666e-01 3.932905995635636032e-01
3.095632968200352497e-01 1.412225952343248991e-01
3.106038457167006328e-01 2.950919772368436611e-01
3.116443946133660159e-01 4.868047987233232732e-01
3.126849435100313990e-01 3.755536439881517197e-01
3.137254924066967821e-01 2.497073690910021071e-01
3.147660413033621651e-01 3.285486932279120253e-01
3.158065902000275482e-01 3.164781054032133056e-01
3.168471390966929313e-01 1.757819304196104326e-01
3.178876879933583144e-01 3.383097933846386240e-01
3.189282368900236975e-01 2.844212754610886407e-01
3.199687857866890806e-01 2.489061458966546070e-01
3.210093346833544636e-01 2.340332179200714791e-01
3.220498835800198467e-01 2.154427008309909297e-01
3.230904324766852298e-01 2.403018667666501074e-01
3.241309813733506129e-01 4.387401461119253554e-01
3.251715302700159960e-01 5.637773757967323718e-01
3.262120791666813790e-01 4.502410155989373663e-01
3.272526280633467621e-01 2.731403481726388804e-01
3.282931769600121452e-01 1.966882314945692656e-01
3.293337258566775283e-01 5.579326330174758652e-01
3.303742747533429114e-01 3.201416488788062509e-01
3.314148236500082945e-01 1.305847070257435405e-01
3.324553725466736775e-01 1.229281282646681461e-01
3.334959214433390606e-01 3.861084875115459170e-01
3.345364703400044437e-01 4.353556791061556908e-01
3.355770192366698268e-01 5.232047048822998647e-01
3.366175681333352099e-01 2.627982934083448185e-01
3.376581170300005930e-01 1.185647176010640180e-01
3.386986659266659760e-01 2.810136774712788110e-01
3.397392148233313591e-01 3.751925134816218588e-01
3.407797637199967422e-01 4.539397599133110361e-01
3.418203126166621253e-01 3.681624892970276619e-01
3.428608615133275084e-01 2.972710565239538028e-01
3.439014104099928915e-01 2.456651666143052637e-01
3.449419593066582745e-01 2.858099477569915337e-01
3.459825082033236576e-01 5.365506958656602876e-01
3.470230570999890407e-01 5.856099049521610311e-01
3.480636059966544238e-01 6.504338494030044160e-01
3.491041548933198069e-01 4.009406889638746918e-01
3.501447037899851900e-01 5.400071861626791758e-01
3.511852526866505730e-01 4.348984182207686899e-01
3.522258015833159561e-01 3.751813433033532874e-01
3.532663504799813392e-01 5.664771929449159416e-01
3.543068993766467223e-01 6.246585188694382396e-01
3.553474482733121054e-01 5.324513853989678580e-01
3.563879971699774885e-01 5.574285812394350614e-01
3.574285460666428715e-01 4.584201469105479987e-01
3.584690949633082546e-01 4.485961526102677510e-01
3.595096438599736377e-01 5.229989386042035449e-01
3.605501927566390208e-01 6.686434973672525928e-01
3.615907416533044039e-01 7.233358767239721487e-01
3.626312905499697870e-01 5.894090659104165297e-01
3.636718394466351700e-01 3.212059645878255765e-01
3.647123883433005531e-01 6.170256863048813045e-01
3.657529372399659362e-01 4.136648741947936969e-01
3.667934861366313193e-01 4.312336100775233660e-01
3.678340350332967024e-01 4.276582480746959902e-01
3.688745839299620854e-01 3.697740737991637161e-01
3.699151328266274685e-01 4.693175246138316936e-01
3.709556817232928516e-01 4.318510825834138700e-01
3.719962306199582347e-01 4.681745192339086259e-01
3.730367795166236178e-01 5.815599296968905207e-01
3.740773284132890009e-01 4.452815284325701839e-01
3.751178773099543839e-01 2.809203896636063291e-01
3.761584262066197670e-01 2.937567397027969207e-01
3.771989751032851501e-01 4.359540241491224322e-01
3.782395239999505332e-01 6.114609666598305182e-01
3.792800728966159163e-01 4.286869554089136614e-01
3.803206217932812994e-01 3.330974241548254611e-01
3.813611706899466824e-01 4.080978081129593704e-01
3.824017195866120655e-01 5.614489737627366139e-01
3.834422684832774486e-01 6.103841098914379870e-01
3.844828173799428317e-01 4.657625620764349605e-01
3.855233662766082148e-01 4.530805798500949777e-01
3.865639151732735979e-01 4.248574670167322154e-01
3.876044640699389809e-01 5.186071513706203007e-01
3.886450129666043640e-01 6.196845963609121100e-01
3.896855618632697471e-01 3.894268467799228972e-01
3.907261107599351302e-01 1.076794356464105817e-02
3.917666596566005133e-01 6.391887334982016000e-02
3.928072085532658964e-01 3.993893184486552173e-02
3.938477574499312794e-01 1.789518506599421244e-01
3.948883063465966625e-01 3.801278047534033533e-01
3.959288552432620456e-01 3.500096015267715188e-01
3.969694041399274287e-01 2.268115926160874096e-01
3.980099530365928118e-01 2.308782979018708659e-01
3.990505019332581949e-01 3.850258723517185899e-02
4.000910508299235779e-01 5.865072927936054725e-02
4.011315997265889610e-01 1.163224340466832984e-01
4.021721486232543441e-01 1.439337457742908555e-01
4.032126975199197272e-01 1.310743520227184433e-01
4.042532464165851103e-01 9.237970300760522946e-02
4.052937953132504934e-01 2.023435985493371447e-01
4.063343442099158764e-01 4.714562183687753816e-01
4.073748931065812595e-01 3.634976318885350111e-01
4.084154420032466426e-01 2.325938180808506672e-01
4.094559908999120257e-01 1.692596321947235083e-01
4.104965397965774088e-01 1.300285721141101192e-01
4.115370886932427918e-01 3.273744359856962660e-01
4.125776375899081749e-01 4.042968748083630715e-01
4.136181864865735580e-01 3.589635082059103866e-01
4.146587353832389411e-01 3.333711819817537503e-01
4.156992842799043242e-01 2.563752179061680181e-01
4.167398331765697073e-01 1.271460934446047020e-01
4.177803820732350903e-01 1.445398222163092328e-01
4.188209309699004734e-01 2.445320074270824762e-01
4.198614798665658565e-01 1.402550450156496709e-01
4.209020287632312396e-01 1.037816411778962333e-01
4.219425776598966227e-01 2.560473690057136764e-01
4.229831265565620058e-01 2.941477979767164186e-01
4.240236754532273888e-01 2.735687932613295459e-01
4.250642243498927719e-01 2.414324344875140582e-02
4.261047732465581550e-01 6.363166954498922223e-02
4.271453221432235381e-01 0.000000000000000000e+00
4.281858710398889212e-01 7.767914030163680650e-02
4.292264199365543043e-01 3.759423585355072817e-01
4.302669688332196873e-01 4.011280106774357535e-01
4.313075177298850704e-01 4.018893250108703796e-01
4.323480666265504535e-01 3.293771814234922601e-01
4.333886155232158366e-01 3.829242297506851855e-01
4.344291644198812197e-01 3.022118698732363384e-01
