# q (1/Angstrom), Intensity (arb)
2.029070354705860696e-02 1.185228417150127370e+03
2.133125244372399004e-02 1.180338516220270776e+03
2.237180134038937659e-02 1.174462569903098029e+03
2.341235023705475968e-02 1.167106928161576661e+03
2.445289913372014276e-02 1.160821560004705361e+03
2.549344803038552584e-02 1.149109896711393276e+03
2.653399692705091240e-02 1.131566291494050120e+03
2.757454582371629548e-02 1.120066987812305115e+03
2.861509472038167856e-02 1.107521820727893555e+03
2.965564361704706164e-02 1.092461386206151474e+03
3.069619251371244473e-02 1.074283947235884852e+03
3.173674141037782781e-02 1.063779788284674169e+03
3.277729030704321089e-02 1.051129063700142979e+03
3.381783920370859398e-02 1.034065631861946713e+03
3.485838810037397706e-02 1.016332843020955693e+03
3.589893699703936014e-02 1.000753445079872563e+03
3.693948589370474322e-02 9.830115983327484628e+02
3.798003479037012631e-02 9.639208037673190574e+02
3.902058368703550939e-02 9.490412646280906301e+02
4.006113258370089247e-02 9.329028731836281167e+02
4.110168148036627556e-02 9.128458203652186285e+02
4.214223037703165864e-02 8.911148734855894418e+02
4.318277927369704866e-02 8.694951282006379643e+02
4.422332817036243174e-02 8.510410486353982833e+02
4.526387706702781483e-02 8.345094703525764999e+02
4.630442596369319791e-02 8.161209284582891996e+02
4.734497486035858099e-02 7.978707078495854148e+02
4.838552375702396408e-02 7.784707064737103792e+02
4.942607265368934716e-02 7.589603775218646433e+02
5.046662155035473024e-02 7.403085756361396079e+02
5.150717044702011332e-02 7.223681904465375965e+02
5.254771934368549641e-02 7.012146047994791616e+02
5.358826824035087949e-02 6.800891477263272691e+02
5.462881713701626257e-02 6.586515510467952481e+02
5.566936603368164566e-02 6.414273259609184379e+02
5.670991493034702874e-02 6.257723024628450048e+02
5.775046382701241182e-02 6.062556036916103039e+02
5.879101272367779490e-02 5.855737671937649793e+02
5.983156162034317799e-02 5.669610315244534604e+02
6.087211051700856107e-02 5.482522704944207135e+02
6.191265941367394415e-02 5.292227143014471267e+02
6.295320831033933417e-02 5.107803737654416523e+02
6.399375720700471726e-02 4.920228841910325173e+02
6.503430610367010034e-02 4.776476964858839551e+02
6.607485500033548342e-02 4.613766534558371859e+02
6.711540389700086651e-02 4.419922762332112711e+02
6.815595279366624959e-02 4.247336902660385363e+02
6.919650169033163267e-02 4.080046332095993193e+02
7.023705058699701576e-02 3.908971682421323521e+02
7.127759948366239884e-02 3.762973318371803089e+02
7.231814838032778192e-02 3.604408781729762836e+02
7.335869727699316500e-02 3.447379549305624096e+02
7.439924617365854809e-02 3.323452958405367212e+02
7.543979507032393117e-02 3.175765460035744354e+02
7.648034396698931425e-02 3.013683067419266877e+02
7.752089286365469734e-02 2.865983314345797339e+02
7.856144176032008042e-02 2.737058027985204944e+02
7.960199065698546350e-02 2.612966709170205490e+02
8.064253955365084658e-02 2.483784593235810974e+02
8.168308845031622967e-02 2.354075853739265654e+02
8.272363734698161275e-02 2.237342792987404607e+02
8.376418624364699583e-02 2.133157672817196442e+02
8.480473514031239279e-02 2.024351251478535687e+02
8.584528403697777588e-02 1.906130752390413079e+02
8.688583293364315896e-02 1.789283611812156778e+02
8.792638183030854204e-02 1.695088239263167225e+02
8.896693072697392513e-02 1.614387118071655891e+02
9.000747962363930821e-02 1.517211962481777618e+02
9.104802852030469129e-02 1.412762364821144843e+02
9.208857741697007437e-02 1.316414972768267546e+02
9.312912631363545746e-02 1.244348909593195458e+02
9.416967521030084054e-02 1.165386150709833117e+02
9.521022410696622362e-02 1.090489552648049596e+02
9.625077300363160671e-02 1.019279836117222686e+02
9.729132190029698979e-02 9.476231428995887995e+01
9.833187079696237287e-02 8.737260317306422053e+01
9.937241969362775595e-02 8.026803819794577066e+01
1.004129685902931390e-01 7.421877983339422258e+01
1.014535174869585221e-01 6.791480822143194018e+01
1.024940663836239052e-01 6.206345535498345356e+01
1.035346152802892883e-01 5.721168042104556406e+01
1.045751641769546714e-01 5.123254612010098441e+01
1.056157130736200545e-01 4.696893978177528339e+01
1.066562619702854375e-01 4.308988381029105597e+01
1.076968108669508206e-01 3.950457523510508651e+01
1.087373597636162037e-01 3.606446106403426199e+01
1.097779086602815868e-01 3.229301090027362875e+01
1.108184575569469699e-01 2.871546213366043077e+01
1.118590064536123529e-01 2.552652162771311595e+01
1.128995553502777360e-01 2.270660990685344771e+01
1.139401042469431191e-01 1.990520859349692273e+01
1.149806531436085022e-01 1.745514429637443854e+01
1.160212020402738853e-01 1.569691244069085911e+01
1.170617509369392684e-01 1.399027328873269482e+01
1.181022998336046514e-01 1.226356123133646392e+01
1.191428487302700345e-01 1.069548986918367106e+01
1.201833976269354176e-01 9.082967819023799905e+00
1.212239465236008007e-01 7.299622778687627545e+00
1.222644954202661838e-01 6.145397750660812619e+00
1.233050443169315669e-01 5.562269139083650060e+00
1.243455932135969499e-01 4.457918054270312069e+00
1.253861421102623330e-01 3.862233200362780394e+00
1.264266910069277161e-01 3.225221496257301368e+00
1.274672399035930992e-01 2.822055909177027644e+00
1.285077888002584823e-01 2.691557606889585230e+00
1.295483376969238654e-01 2.436968221149424352e+00
1.305888865935892484e-01 2.002059587663985951e+00
1.316294354902546315e-01 2.077715899173952607e+00
1.326699843869200146e-01 1.669455543510412809e+00
1.337105332835853977e-01 1.277840941614115877e+00
1.347510821802507808e-01 1.244611931516303116e+00
1.357916310769161639e-01 1.572921127602892710e+00
1.368321799735815469e-01 1.801690666120002504e+00
1.378727288702469300e-01 1.925938217185198198e+00
1.389132777669123131e-01 1.949949160080617361e+00
1.399538266635776962e-01 2.164814736794511418e+00
1.409943755602430793e-01 2.594392778736889227e+00
1.420349244569084624e-01 3.094184237743011323e+00
1.430754733535738454e-01 3.473319158120560246e+00
1.441160222502392285e-01 3.808615265792703042e+00
1.451565711469046116e-01 4.288354222993660869e+00
1.461971200435699947e-01 4.564138622549052116e+00
1.472376689402353778e-01 4.978492152214048616e+00
1.482782178369007609e-01 5.430168131340913362e+00
1.493187667335661439e-01 5.691559327376602084e+00
1.503593156302315270e-01 5.723224431620458574e+00
1.513998645268969101e-01 6.284117255044993300e+00
1.524404134235622932e-01 6.543214343007175415e+00
1.534809623202276763e-01 6.808882873686357584e+00
1.545215112168930593e-01 6.921980030934712147e+00
1.555620601135584424e-01 7.217056946034155374e+00
1.566026090102238255e-01 7.518979707786222377e+00
1.576431579068892086e-01 7.760600549376302837e+00
1.586837068035545917e-01 7.920253652929744703e+00
1.597242557002199748e-01 8.349884972473383016e+00
1.607648045968853578e-01 8.483609251759052228e+00
1.618053534935507409e-01 8.684795588272159250e+00
1.628459023902161240e-01 8.877170494012815993e+00
1.638864512868815071e-01 9.099903838055720229e+00
1.649270001835468902e-01 9.407152037591846039e+00
1.659675490802122733e-01 9.224583433691517342e+00
1.670080979768776563e-01 9.247457115655439708e+00
1.680486468735430672e-01 9.403116323812255928e+00
1.690891957702084503e-01 9.216350066883201464e+00
1.701297446668738333e-01 9.067454840459514998e+00
1.711702935635392164e-01 9.283517837072416512e+00
1.722108424602045995e-01 9.486789467536418385e+00
1.732513913568699826e-01 9.534536192639954777e+00
1.742919402535353657e-01 9.177752183035874367e+00
1.753324891502007488e-01 8.882131829554108293e+00
1.763730380468661318e-01 9.058279508847206785e+00
1.774135869435315149e-01 8.974559667410641595e+00
1.784541358401968980e-01 8.432357349596376395e+00
1.794946847368622811e-01 8.156791718292360827e+00
1.805352336335276642e-01 8.305438943163707677e+00
1.815757825301930473e-01 8.190794381788233380e+00
1.826163314268584303e-01 7.774472225282302418e+00
1.836568803235238134e-01 7.533927059855752617e+00
1.846974292201891965e-01 7.093149751328532204e+00
1.857379781168545796e-01 7.259376934810440218e+00
1.867785270135199627e-01 7.173216140772129990e+00
1.878190759101853458e-01 6.667032179362305300e+00
1.888596248068507288e-01 6.348382122420410667e+00
1.899001737035161119e-01 6.156379021920162842e+00
1.909407226001814950e-01 5.661071818895667462e+00
1.919812714968468781e-01 5.333235804957237036e+00
1.930218203935122612e-01 5.396437902701840983e+00
1.940623692901776443e-01 4.962777854549887735e+00
1.951029181868430273e-01 4.441033382181764466e+00
1.961434670835084104e-01 4.293481827165173570e+00
1.971840159801737935e-01 4.246313038927478800e+00
1.982245648768391766e-01 3.774737284498140610e+00
1.992651137735045597e-01 3.642297242732098539e+00
2.003056626701699428e-01 3.375930020864547743e+00
2.013462115668353813e-01 3.321821352666749050e+00
2.023867604635007644e-01 3.178990174236261623e+00
2.034273093601661475e-01 2.963407177676689486e+00
2.044678582568315306e-01 2.749299578717277370e+00
2.055084071534969137e-01 2.397341587161029963e+00
2.065489560501622968e-01 2.065869136589558508e+00
2.075895049468276798e-01 1.716540283040863812e+00
2.086300538434930629e-01 1.958623178084160088e+00
2.096706027401584460e-01 1.696627559671835428e+00
2.107111516368238291e-01 1.541759574847834102e+00
2.117517005334892122e-01 1.493867241938300339e+00
2.127922494301545953e-01 1.397709773808841760e+00
2.138327983268199783e-01 1.432349816916378415e+00
2.148733472234853614e-01 1.050729212174974947e+00
2.159138961201507445e-01 8.984866190812645925e-01
2.169544450168161276e-01 9.932726576487809211e-01
2.179949939134815107e-01 9.719554528613159050e-01
2.190355428101468938e-01 5.699739997697399474e-01
2.200760917068122768e-01 5.024187977013596651e-01
2.211166406034776599e-01 5.714395880858873511e-01
2.221571895001430430e-01 2.427390491300016606e-01
2.231977383968084261e-01 1.643081076563639442e-01
2.242382872934738092e-01 7.136337602371796152e-01
2.252788361901391923e-01 5.738298328946278559e-01
2.263193850868045753e-01 1.819543697895582568e-01
2.273599339834699584e-01 3.953106710089251408e-01
2.284004828801353415e-01 3.638490304105808093e-01
2.294410317768007246e-01 3.424009342637717168e-01
2.304815806734661077e-01 2.792142532516095343e-01
2.315221295701314908e-01 3.947410424855668509e-01
2.325626784667968738e-01 5.499674902618458816e-01
2.336032273634622569e-01 3.566305133484775070e-01
2.346437762601276400e-01 9.824092614319468453e-02
2.356843251567930231e-01 2.701388233342179035e-01
2.367248740534584062e-01 4.538122530759025608e-01
2.377654229501237892e-01 4.175670736378869208e-01
2.388059718467891723e-01 4.722512999212042928e-01
2.398465207434545554e-01 7.520891310277519892e-01
2.408870696401199385e-01 6.515574260543992580e-01
2.419276185367853216e-01 7.830355474354213641e-01
2.429681674334507047e-01 1.048244638677562790e+00
2.440087163301160877e-01 7.990602790354230933e-01
2.450492652267814708e-01 7.823310362723461253e-01
2.460898141234468539e-01 1.116376547292652788e+00
2.471303630201122370e-01 1.204287547530004332e+00
2.481709119167776201e-01 1.293438695833867058e+00
2.492114608134430032e-01 1.278761458252223093e+00
2.502520097101083585e-01 1.189256263044960349e+00
2.512925586067737416e-01 1.356885615437782633e+00
2.523331075034391247e-01 1.204045402947787835e+00
2.533736564001045077e-01 1.290032582984707688e+00
2.544142052967698908e-01 1.327807033507102830e+00
2.554547541934352739e-01 1.402478452331209269e+00
2.564953030901006570e-01 1.429408099356429318e+00
2.575358519867660401e-01 1.346244081121596992e+00
2.585764008834314231e-01 1.402855016979806635e+00
2.596169497800968062e-01 1.544330436951995011e+00
2.606574986767621893e-01 1.527133430818530258e+00
2.616980475734275724e-01 1.676306493229830608e+00
2.627385964700929555e-01 1.516689818435430936e+00
2.637791453667583386e-01 1.615910897703646043e+00
2.648196942634237216e-01 1.305741668555096879e+00
2.658602431600891047e-01 1.544912817121954163e+00
2.669007920567544878e-01 1.614629672234652702e+00
2.679413409534198709e-01 1.363234203221921348e+00
2.689818898500852540e-01 1.433123528259965695e+00
2.700224387467506371e-01 1.559590129437115280e+00
2.710629876434160201e-01 1.586277260971648673e+00
2.721035365400814032e-01 1.498760349113123169e+00
2.731440854367467863e-01 1.382762752559290931e+00
2.741846343334121694e-01 1.451581319698469486e+00
2.752251832300775525e-01 1.373903794838621906e+00
2.762657321267429356e-01 7.954075754626650507e-01
2.773062810234083186e-01 9.081923026996143733e-01
2.783468299200737017e-01 7.419509121836966870e-01
2.793873788167390848e-01 1.280368582494176621e+00
2.804279277134044679e-01 1.507451773699219899e+00
2.814684766100698510e-01 1.288261930471378491e+00
2.825090255067352341e-01 1.131998943526404844e+00
2.835495744034006171e-01 1.241084510517822537e+00
2.845901233000660002e-01 1.340425150020827516e+00
2.856306721967313833e-01 1.056559039966714408e+00
2.866712210933967664e-01 8.876184787336747206e-01
2.877117699900621495e-01 9.481384677331661237e-01
2.887523188867275326e-01 1.080489965172997557e+00
2.897928677833929156e-01 1.270131398493635544e+00
2.908334166800582987e-01 1.172638783664272211e+00
2.918739655767236818e-01 1.086685149450495658e+00
2.929145144733890649e-01 9.404503618668016429e-01
2.939550633700544480e-01 8.807586416900612392e-01
2.949956122667198311e-01 6.426329963416712587e-01
2.960361611633852141e-01 7.038626536159604541e-01
2.970767100600505972e-01 7.729755490858636335e-01
2.981172589567159803e-01 5.244587628426664594e-01
2.991578078533813634e-01 5.467624020601071777e-01
3.001983567500468020e-01 5.872594046759296305e-01
3.012389056467121851e-01 6.871277427962674267e-01
3.022794545433775681e-01 7.498038964878723789e-01
3.033200034400429512e-01 6.630936810468810449e-01
3.043605523367083343e-01 6.146673957693629120e-01
3.054011012333737174e-01 4.723795327766211471e-01
3.064416501300391005e-01 4.956324444181774425e-01
3.074821990267044836e-01 4.269116509166117623e-01
3.085227479233698666e-01 5.268709428082409829e-01
3.095632968200352497e-01 5.479192550371578818e-01
3.106038457167006328e-01 4.936966755883602787e-01
3.116443946133660159e-01 1.700993763000226977e-01
3.126849435100313990e-01 3.218131031600286462e-01
3.137254924066967821e-01 3.488654189240349979e-01
3.147660413033621651e-01 1.838382147702155578e-01
3.158065902000275482e-01 2.462761097815331368e-01
3.168471390966929313e-01 2.985175994311397574e-01
3.178876879933583144e-01 3.513077718346728773e-01
3.189282368900236975e-01 2.939355686616629271e-01
3.199687857866890806e-01 2.847018661127442840e-01
3.210093346833544636e-01 2.213501338029644216e-01
3.220498835800198467e-01 2.118198518958962495e-01
3.230904324766852298e-01 5.256019630197066306e-01
3.241309813733506129e-01 6.099495016570912753e-01
3.251715302700159960e-01 4.497190052182595821e-01
3.262120791666813790e-01 2.674608258715629461e-01
3.272526280633467621e-01 3.807076782364688938e-01
3.282931769600121452e-01 3.422891844569733166e-01
3.293337258566775283e-01 3.649975367473885512e-01
3.303742747533429114e-01 1.850201319563673508e-01
3.314148236500082945e-01 1.921036008976670928e-01
3.324553725466736775e-01 3.798288191080558818e-01
3.334959214433390606e-01 5.830598195653244886e-01
3.345364703400044437e-01 4.796807448190634204e-01
3.355770192366698268e-01 3.230443532322624378e-01
3.366175681333352099e-01 5.486054641631810114e-01
3.376581170300005930e-01 5.478303487744469180e-01
3.386986659266659760e-01 3.768799808214424729e-01
3.397392148233313591e-01 5.607965931336238441e-01
3.407797637199967422e-01 5.708455688233939895e-01
3.418203126166621253e-01 3.355008220906974259e-01
3.428608615133275084e-01 3.236792705285331806e-01
3.439014104099928915e-01 5.363085549662542917e-01
3.449419593066582745e-01 6.529219003755493134e-01
3.459825082033236576e-01 4.588828426155622253e-01
3.470230570999890407e-01 6.489547080713720106e-01
3.480636059966544238e-01 6.112813580540006342e-01
3.491041548933198069e-01 5.880793664007981647e-01
3.501447037899851900e-01 5.957358669830021825e-01
3.511852526866505730e-01 5.606943883185273592e-01
3.522258015833159561e-01 6.512592384427797754e-01
3.532663504799813392e-01 6.323482564037590237e-01
3.543068993766467223e-01 6.575596039914906044e-01
3.553474482733121054e-01 4.804732375766569419e-01
3.563879971699774885e-01 2.558904575925531333e-01
3.574285460666428715e-01 5.288791166055197834e-01
3.584690949633082546e-01 5.131118720098406527e-01
3.595096438599736377e-01 4.699721077913956435e-01
3.605501927566390208e-01 5.118988054840549751e-01
3.615907416533044039e-01 5.695671199007819041e-01
3.626312905499697870e-01 4.878398880508107993e-01
3.636718394466351700e-01 5.111514326280506282e-01
3.647123883433005531e-01 7.112697594733781159e-01
3.657529372399659362e-01 6.573787267035235971e-01
3.667934861366313193e-01 5.200164682490289181e-01
3.678340350332967024e-01 4.240985696620036549e-01
3.688745839299620854e-01 4.171124174438887167e-01
3.699151328266274685e-01 5.068096860549964333e-01
3.709556817232928516e-01 6.086559161884856906e-01
3.719962306199582347e-01 7.420286688061352720e-01
3.730367795166236178e-01 7.230308926690902638e-01
3.740773284132890009e-01 5.533128127098763116e-01
3.751178773099543839e-01 4.512302110550301393e-01
3.761584262066197670e-01 3.977950660059370591e-01
3.771989751032851501e-01 3.949598895210684191e-01
3.782395239999505332e-01 4.264378661670988890e-01
3.792800728966159163e-01 4.783008577457437127e-01
3.803206217932812994e-01 4.352971573520854065e-01
3.813611706899466824e-01 3.892878541005515558e-01
3.824017195866120655e-01 5.533074124347692191e-01
3.834422684832774486e-01 5.748487688528314266e-01
3.844828173799428317e-01 4.873982420397666715e-01
3.855233662766082148e-01 3.110358045488297307e-01
3.865639151732735979e-01 3.352793508001710165e-01
3.876044640699389809e-01 4.090392725039357913e-01
3.886450129666043640e-01 5.704240384370606876e-01
3.896855618632697471e-01 4.882928055346056340e-01
3.907261107599351302e-01 3.382517130094768731e-01
3.917666596566005133e-01 3.583969956401240609e-01
3.928072085532658964e-01 4.739040004664012429e-01
3.938477574499312794e-01 4.677138522390578146e-01
3.948883063465966625e-01 3.604368364445171835e-01
3.959288552432620456e-01 6.451891888066541014e-02
3.969694041399274287e-01 2.173465732051482746e-01
3.980099530365928118e-01 3.319756266128024436e-01
3.990505019332581949e-01 3.516833666471725905e-01
4.000910508299235779e-01 2.974725207915227543e-01
4.011315997265889610e-01 4.370943203138217825e-01
4.021721486232543441e-01 5.148963949012284047e-01
4.032126975199197272e-01 5.785747687317339683e-01
4.042532464165851103e-01 5.857808852444037484e-01
4.052937953132504934e-01 5.230098623025405402e-01
4.063343442099158764e-01 4.154373396725823397e-01
4.073748931065812595e-01 2.187930490997409549e-01
4.084154420032466426e-01 9.263290836301862896e-02
4.094559908999120257e-01 3.212476665402945741e-01
4.104965397965774088e-01 1.350758948962571537e-01
4.115370886932427918e-01 6.327891363884674547e-03
4.125776375899081749e-01 0.000000000000000000e+00
4.136181864865735580e-01 3.077206499874449719e-01
4.146587353832389411e-01 2.002747927963142160e-01
4.156992842799043242e-01 3.691867108721957891e-01
4.167398331765697073e-01 2.750560235301264811e-01
4.177803820732350903e-01 1.691092612647437932e-01
4.188209309699004734e-01 3.450430138920914658e-01
4.198614798665658565e-01 3.375966357513284777e-01
4.209020287632312396e-01 2.581416572552512889e-01
4.219425776598966227e-01 2.453538788757931854e-01
4.229831265565620058e-01 3.674685414192566668e-01
4.240236754532273888e-01 4.330307120599634629e-01
4.250642243498927719e-01 3.500275425544074892e-01
4.261047732465581550e-01 2.733315010280890078e-01
4.271453221432235381e-01 3.422460317268267715e-01
4.281858710398889212e-01 2.239157658568124987e-01
4.292264199365543043e-01 3.094326680604915225e-01
4.302669688332196873e-01 3.505654360930847702e-01
4.313075177298850704e-01 3.054629074902166508e-01
4.323480666265504535e-01 2.337573134271941910e-01
4.333886155232158366e-01 3.130688152901619503e-01
4.344291644198812197e-01 3.796193609055400486e-01
