# q (1/Angstrom), Intensity (arb)
2.029070354705860696e-02 1.216117059094045771e+03
2.133125244372399004e-02 1.206770759708492960e+03
2.237180134038937659e-02 1.202009367636896741e+03
2.341235023705475968e-02 1.197251844358217568e+03
2.445289913372014276e-02 1.186305346578211584e+03
2.549344803038552584e-02 1.175705890063147535e+03
2.653399692705091240e-02 1.167401323893990593e+03
2.757454582371629548e-02 1.158265835859407389e+03
2.861509472038167856e-02 1.143655415521200439e+03
2.965564361704706164e-02 1.126381316646327150e+03
3.069619251371244473e-02 1.111743174916752196e+03
3.173674141037782781e-02 1.095084481411083289e+03
3.277729030704321089e-02 1.079472831626910875e+03
3.381783920370859398e-02 1.064971235508215159e+03
3.485838810037397706e-02 1.048727856933367775e+03
3.589893699703936014e-02 1.029054694290573934e+03
3.693948589370474322e-02 1.010871025569077347e+03
3.798003479037012631e-02 9.925345532884948625e+02
3.902058368703550939e-02 9.768347937285747093e+02
4.006113258370089247e-02 9.556632053185910536e+02
4.110168148036627556e-02 9.360778752375638305e+02
4.214223037703165864e-02 9.178116770546663474e+02
4.318277927369704866e-02 8.988556066600571057e+02
4.422332817036243174e-02 8.815752098127721865e+02
4.526387706702781483e-02 8.613122952280049276e+02
4.630442596369319791e-02 8.412548509236638665e+02
4.734497486035858099e-02 8.239417138559471141e+02
4.838552375702396408e-02 8.030169347382008027e+02
4.942607265368934716e-02 7.852139844417558834e+02
5.046662155035473024e-02 7.636070321930619684e+02
5.150717044702011332e-02 7.434817935808695211e+02
5.254771934368549641e-02 7.244767852945662980e+02
5.358826824035087949e-02 7.044491213985286322e+02
5.462881713701626257e-02 6.834486312752852655e+02
5.566936603368164566e-02 6.635945635975930372e+02
5.670991493034702874e-02 6.446845465794802976e+02
5.775046382701241182e-02 6.240277356371362885e+02
5.879101272367779490e-02 6.066381469978144878e+02
5.983156162034317799e-02 5.863915047978381381e+02
6.087211051700856107e-02 5.681441325954438071e+02
6.191265941367394415e-02 5.498713874869946494e+02
6.295320831033933417e-02 5.289137311406077515e+02
6.399375720700471726e-02 5.110874128434379600e+02
6.503430610367010034e-02 4.932033807280670317e+02
6.607485500033548342e-02 4.753844593125324423e+02
6.711540389700086651e-02 4.590092267682790066e+02
6.815595279366624959e-02 4.420714811172965710e+02
6.919650169033163267e-02 4.240785362471065127e+02
7.023705058699701576e-02 4.066100613399654549e+02
7.127759948366239884e-02 3.920558311198080901e+02
7.231814838032778192e-02 3.752720583464504216e+02
7.335869727699316500e-02 3.577363905529759904e+02
7.439924617365854809e-02 3.432652743944921099e+02
7.543979507032393117e-02 3.286639648517052592e+02
7.648034396698931425e-02 3.153090809377108599e+02
7.752089286365469734e-02 2.985185938532515593e+02
7.856144176032008042e-02 2.857329582312606249e+02
7.960199065698546350e-02 2.714543600455928072e+02
8.064253955365084658e-02 2.578026695954372371e+02
8.168308845031622967e-02 2.453774470397348182e+02
8.272363734698161275e-02 2.322318289612123010e+02
8.376418624364699583e-02 2.207175220739519830e+02
8.480473514031239279e-02 2.096046747577634619e+02
8.584528403697777588e-02 1.981754528129361859e+02
8.688583293364315896e-02 1.870653845932545210e+02
8.792638183030854204e-02 1.768917754284972261e+02
8.896693072697392513e-02 1.670001512875716116e+02
9.000747962363930821e-02 1.571957292355802167e+02
9.104802852030469129e-02 1.459937427452579186e+02
9.208857741697007437e-02 1.373901752891823662e+02
9.312912631363545746e-02 1.297897727600091571e+02
9.416967521030084054e-02 1.218248016365648141e+02
9.521022410696622362e-02 1.137811731821616661e+02
9.625077300363160671e-02 1.051133622635742171e+02
9.729132190029698979e-02 9.788714175794699202e+01
9.833187079696237287e-02 9.100118961457815203e+01
9.937241969362775595e-02 8.398411508879131304e+01
1.004129685902931390e-01 7.748941050038210676e+01
1.014535174869585221e-01 7.074606121389390978e+01
1.024940663836239052e-01 6.486470893499125623e+01
1.035346152802892883e-01 5.993697824756263515e+01
1.045751641769546714e-01 5.466885625030265317e+01
1.056157130736200545e-01 5.029178061714604553e+01
1.066562619702854375e-01 4.599033518499150830e+01
1.076968108669508206e-01 4.178463160650614583e+01
1.087373597636162037e-01 3.789312288931233752e+01
1.097779086602815868e-01 3.447348251900006488e+01
1.108184575569469699e-01 3.168951038333101877e+01
1.118590064536123529e-01 2.801001129835197290e+01
1.128995553502777360e-01 2.473197728708846199e+01
1.139401042469431191e-01 2.221172639764431622e+01
1.149806531436085022e-01 1.954944198157624413e+01
1.160212020402738853e-01 1.690631072158589632e+01
1.170617509369392684e-01 1.475800911373984903e+01
1.181022998336046514e-01 1.289015124055737260e+01
1.191428487302700345e-01 1.125247461125697868e+01
1.201833976269354176e-01 1.003815318066033768e+01
1.212239465236008007e-01 8.307715924741398084e+00
1.222644954202661838e-01 6.627122197379261337e+00
1.233050443169315669e-01 5.902598583762124207e+00
1.243455932135969499e-01 5.191303314169804395e+00
1.253861421102623330e-01 4.425779692268598353e+00
1.264266910069277161e-01 3.901356407499648071e+00
1.274672399035930992e-01 3.228413233265811755e+00
1.285077888002584823e-01 2.643940782662905775e+00
1.295483376969238654e-01 2.470836956510506610e+00
1.305888865935892484e-01 2.423350328338475634e+00
1.316294354902546315e-01 2.491653552315042930e+00
1.326699843869200146e-01 2.034247825762406592e+00
1.337105332835853977e-01 1.903932169256890461e+00
1.347510821802507808e-01 2.086191887643902731e+00
1.357916310769161639e-01 2.398662268594886626e+00
1.368321799735815469e-01 1.963716361130849464e+00
1.378727288702469300e-01 2.150418143163619789e+00
1.389132777669123131e-01 2.480028734589751593e+00
1.399538266635776962e-01 3.012638399409297563e+00
1.409943755602430793e-01 3.112290685986863537e+00
1.420349244569084624e-01 3.451617494483180337e+00
1.430754733535738454e-01 4.254758620560004090e+00
1.441160222502392285e-01 4.110587743897589519e+00
1.451565711469046116e-01 4.197282572490834696e+00
1.461971200435699947e-01 4.582413091314116116e+00
1.472376689402353778e-01 4.875570377805342304e+00
1.482782178369007609e-01 5.452877793625795277e+00
1.493187667335661439e-01 5.991786025737013688e+00
1.503593156302315270e-01 5.993271075883733090e+00
1.513998645268969101e-01 6.226358039667893252e+00
1.524404134235622932e-01 6.807465604141139437e+00
1.534809623202276763e-01 7.362505341961433913e+00
1.545215112168930593e-01 7.872190661385342736e+00
1.555620601135584424e-01 8.294240636031133818e+00
1.566026090102238255e-01 8.620284866891040565e+00
1.576431579068892086e-01 8.596636726195335143e+00
1.586837068035545917e-01 8.970636791726274595e+00
1.597242557002199748e-01 8.990814567100954946e+00
1.607648045968853578e-01 9.351576542831480765e+00
1.618053534935507409e-01 9.518723125127721119e+00
1.628459023902161240e-01 9.703651028866786987e+00
1.638864512868815071e-01 9.711000767103268316e+00
1.649270001835468902e-01 1.005373981407232264e+01
1.659675490802122733e-01 1.033980697697393580e+01
1.670080979768776563e-01 1.046225873000651063e+01
1.680486468735430672e-01 1.003363677789348074e+01
1.690891957702084503e-01 9.845578055625939129e+00
1.701297446668738333e-01 9.836290812642424441e+00
1.711702935635392164e-01 1.010710510816911878e+01
1.722108424602045995e-01 1.017453022039541821e+01
1.732513913568699826e-01 9.881461997374461959e+00
1.742919402535353657e-01 9.540132535525874147e+00
1.753324891502007488e-01 9.489279888028629983e+00
1.763730380468661318e-01 9.612331178812787869e+00
1.774135869435315149e-01 9.438082587080717900e+00
1.784541358401968980e-01 9.420530095723083974e+00
1.794946847368622811e-01 9.252345611952325299e+00
1.805352336335276642e-01 9.065069108423021049e+00
1.815757825301930473e-01 8.909929221203366723e+00
1.826163314268584303e-01 8.624779634139418505e+00
1.836568803235238134e-01 8.164941594625059196e+00
1.846974292201891965e-01 8.054393309107076959e+00
1.857379781168545796e-01 7.846403960294505708e+00
1.867785270135199627e-01 7.494137856238456408e+00
1.878190759101853458e-01 7.289697870663648160e+00
1.888596248068507288e-01 6.880875262535713688e+00
1.899001737035161119e-01 6.703659281120426527e+00
1.909407226001814950e-01 6.535192672513623791e+00
1.919812714968468781e-01 6.393761760300254338e+00
1.930218203935122612e-01 6.101230343783868193e+00
1.940623692901776443e-01 5.655689847659246539e+00
1.951029181868430273e-01 5.345313089679930130e+00
1.961434670835084104e-01 4.982471880410312082e+00
1.971840159801737935e-01 4.924781800274018906e+00
1.982245648768391766e-01 4.777026119207597787e+00
1.992651137735045597e-01 4.319459036848115829e+00
2.003056626701699428e-01 4.244137694285914364e+00
2.013462115668353813e-01 3.853985775375146972e+00
2.023867604635007644e-01 3.326605620740611613e+00
2.034273093601661475e-01 3.198540447902320949e+00
2.044678582568315306e-01 3.120153830465188349e+00
2.055084071534969137e-01 2.656571058252517048e+00
2.065489560501622968e-01 2.492741668153119150e+00
2.075895049468276798e-01 2.615790555770992398e+00
2.086300538434930629e-01 2.245316635906583258e+00
2.096706027401584460e-01 2.104181013210958184e+00
2.107111516368238291e-01 2.177318194346778313e+00
2.117517005334892122e-01 1.856145335737064528e+00
2.127922494301545953e-01 1.678464786809410469e+00
2.138327983268199783e-01 1.657425738357090950e+00
2.148733472234853614e-01 1.469007592746145008e+00
2.159138961201507445e-01 1.132800223319161859e+00
2.169544450168161276e-01 1.055765405811733615e+00
2.179949939134815107e-01 1.063895038097584234e+00
2.190355428101468938e-01 8.638073031303186156e-01
2.200760917068122768e-01 8.080937875661255987e-01
2.211166406034776599e-01 7.419488107021976475e-01
2.221571895001430430e-01 8.325223469073605997e-01
2.231977383968084261e-01 7.666854746140998600e-01
2.242382872934738092e-01 8.412796386710219565e-01
2.252788361901391923e-01 6.912025078206127660e-01
2.263193850868045753e-01 8.531100458963258859e-01
2.273599339834699584e-01 9.324016828464003481e-01
2.284004828801353415e-01 7.462112650418362136e-01
2.294410317768007246e-01 8.867556067138480103e-01
2.304815806734661077e-01 8.855502705283804232e-01
2.315221295701314908e-01 8.574647259166994218e-01
2.325626784667968738e-01 7.488936054686412547e-01
2.336032273634622569e-01 7.674088419612488110e-01
2.346437762601276400e-01 6.858009435921808006e-01
2.356843251567930231e-01 9.052562339129615054e-01
2.367248740534584062e-01 1.019751536963486416e+00
2.377654229501237892e-01 8.755868420936181451e-01
2.388059718467891723e-01 9.942520396538228056e-01
2.398465207434545554e-01 1.013049145529617334e+00
2.408870696401199385e-01 1.342219446144536477e+00
2.419276185367853216e-01 1.208666449671135013e+00
2.429681674334507047e-01 1.198430626407549937e+00
2.440087163301160877e-01 1.164052212421601951e+00
2.450492652267814708e-01 1.124141560703325382e+00
2.460898141234468539e-01 1.131106416179093799e+00
2.471303630201122370e-01 1.390078946420292283e+00
2.481709119167776201e-01 1.669680075090795413e+00
2.492114608134430032e-01 1.495579422875106701e+00
2.502520097101083585e-01 1.493468932037874453e+00
2.512925586067737416e-01 1.360666290286058455e+00
2.523331075034391247e-01 1.284527093831734135e+00
2.533736564001045077e-01 1.237735604306713810e+00
2.544142052967698908e-01 1.514705526028244265e+00
2.554547541934352739e-01 1.646628044810583447e+00
2.564953030901006570e-01 1.592357554662779506e+00
2.575358519867660401e-01 1.664662984710211902e+00
2.585764008834314231e-01 1.224881995604427232e+00
2.596169497800968062e-01 1.377147367203146899e+00
2.606574986767621893e-01 1.446659629783244583e+00
2.616980475734275724e-01 1.653806844707396806e+00
2.627385964700929555e-01 1.632204358228154462e+00
2.637791453667583386e-01 1.549824533479579713e+00
2.648196942634237216e-01 1.712722668137793391e+00
2.658602431600891047e-01 1.672853024710445169e+00
2.669007920567544878e-01 1.921008144098127701e+00
2.679413409534198709e-01 1.836307989288570752e+00
2.689818898500852540e-01 1.613329953409195383e+00
2.700224387467506371e-01 1.496689071323945797e+00
2.710629876434160201e-01 1.692801114988128575e+00
2.721035365400814032e-01 1.740084195187890259e+00
2.731440854367467863e-01 1.742635797325405633e+00
2.741846343334121694e-01 1.602681834284013007e+00
2.752251832300775525e-01 1.605517399737443895e+00
2.762657321267429356e-01 1.589319807350094038e+00
2.773062810234083186e-01 1.559662274670102988e+00
2.783468299200737017e-01 1.634366576816681516e+00
2.793873788167390848e-01 1.207348788664134531e+00
2.804279277134044679e-01 1.273217259019553182e+00
2.814684766100698510e-01 1.304177743515843702e+00
2.825090255067352341e-01 1.241934587199729378e+00
2.835495744034006171e-01 1.375247881649176662e+00
2.845901233000660002e-01 1.498497282089576998e+00
2.856306721967313833e-01 1.498981230203252579e+00
2.866712210933967664e-01 1.262495809501547939e+00
2.877117699900621495e-01 1.046001914618390316e+00
2.887523188867275326e-01 1.155518939805375567e+00
2.897928677833929156e-01 9.859157968869745048e-01
2.908334166800582987e-01 1.071132180667706990e+00
2.918739655767236818e-01 1.173962513324791956e+00
2.929145144733890649e-01 1.165572145863148279e+00
2.939550633700544480e-01 9.078952683926360123e-01
2.949956122667198311e-01 9.363873969520533080e-01
2.960361611633852141e-01 1.087366171051844077e+00
2.970767100600505972e-01 1.114973823962870370e+00
2.981172589567159803e-01 8.146203103057167993e-01
2.991578078533813634e-01 7.531008735845432511e-01
3.001983567500468020e-01 6.237128680121450941e-01
3.012389056467121851e-01 5.099337903019005580e-01
3.022794545433775681e-01 7.436043348821215204e-01
3.033200034400429512e-01 6.184323898628782956e-01
3.043605523367083343e-01 6.227806567016997974e-01
3.054011012333737174e-01 8.370221872732415136e-01
3.064416501300391005e-01 8.886516066782697010e-01
3.074821990267044836e-01 6.392589918065283427e-01
3.085227479233698666e-01 5.003753877452155052e-01
3.095632968200352497e-01 5.088103346857586473e-01
3.106038457167006328e-01 4.358887410020173547e-01
3.116443946133660159e-01 2.485725104429050702e-01
3.126849435100313990e-01 2.788756145712092405e-01
3.137254924066967821e-01 2.501469685366402018e-01
3.147660413033621651e-01 3.097433222813137377e-01
3.158065902000275482e-01 5.458984184375275106e-01
3.168471390966929313e-01 5.208753502687990533e-01
3.178876879933583144e-01 4.081657962888840530e-01
3.189282368900236975e-01 3.397728611371526597e-01
3.199687857866890806e-01 2.930108673350417803e-01
3.210093346833544636e-01 2.340106526962593136e-01
3.220498835800198467e-01 3.404076845212244962e-01
3.230904324766852298e-01 4.958179384920846644e-01
3.241309813733506129e-01 6.114998795274679821e-01
3.251715302700159960e-01 7.945986808660379097e-01
3.262120791666813790e-01 6.323127167946616112e-01
3.272526280633467621e-01 5.615520581889086316e-01
3.282931769600121452e-01 4.225269523143175832e-01
3.293337258566775283e-01 6.075621149863223991e-01
3.303742747533429114e-01 6.813481066417672594e-01
3.314148236500082945e-01 4.120528126620577325e-01
3.324553725466736775e-01 3.153792067065488425e-01
3.334959214433390606e-01 4.785091141925548186e-01
3.345364703400044437e-01 6.285322680660350159e-01
3.355770192366698268e-01 5.603801010968929575e-01
3.366175681333352099e-01 4.918883342311488605e-01
3.376581170300005930e-01 4.953582084507424099e-01
3.386986659266659760e-01 3.048957286641460485e-01
3.397392148233313591e-01 3.940979657049368257e-01
3.407797637199967422e-01 5.166173110147767034e-01
3.418203126166621253e-01 4.928789516881693089e-01
3.428608615133275084e-01 5.482477500432665352e-01
3.439014104099928915e-01 5.507272806226275463e-01
3.449419593066582745e-01 5.702144584905113334e-01
3.459825082033236576e-01 6.707480301638284459e-01
3.470230570999890407e-01 7.471843615162541141e-01
3.480636059966544238e-01 6.723109749482567565e-01
3.491041548933198069e-01 7.155244814416796828e-01
3.501447037899851900e-01 7.036746949240502147e-01
3.511852526866505730e-01 7.062752469499145036e-01
3.522258015833159561e-01 5.056247029698432982e-01
3.532663504799813392e-01 5.979242312711434693e-01
3.543068993766467223e-01 6.391205790993730318e-01
3.553474482733121054e-01 4.815251024327835694e-01
3.563879971699774885e-01 4.847439724894044843e-01
3.574285460666428715e-01 7.348951716237195342e-01
3.584690949633082546e-01 4.469698430926882793e-01
3.595096438599736377e-01 5.190098267475740101e-01
3.605501927566390208e-01 5.821862051819159944e-01
3.615907416533044039e-01 7.353343566661578734e-01
3.626312905499697870e-01 5.525254608344418727e-01
3.636718394466351700e-01 6.574923785466424420e-01
3.647123883433005531e-01 7.205315339999422974e-01
3.657529372399659362e-01 7.288198758325350468e-01
3.667934861366313193e-01 7.594963800903826723e-01
3.678340350332967024e-01 6.996653602323306131e-01
3.688745839299620854e-01 6.464630499296646349e-01
3.699151328266274685e-01 3.607394696455550331e-01
3.709556817232928516e-01 3.766635849095720801e-01
3.719962306199582347e-01 5.230343820820415601e-01
3.730367795166236178e-01 4.827564675695654728e-01
3.740773284132890009e-01 5.566380643789656801e-01
3.751178773099543839e-01 3.710865095169992856e-01
3.761584262066197670e-01 2.345242933793016959e-01
3.771989751032851501e-01 3.963516710627317252e-01
3.782395239999505332e-01 4.534487712685724148e-01
3.792800728966159163e-01 2.224355829892026293e-01
3.803206217932812994e-01 2.680529520524963516e-01
3.813611706899466824e-01 5.304381796159098883e-01
3.824017195866120655e-01 5.832653897462733994e-01
3.834422684832774486e-01 3.911424719973481956e-01
3.844828173799428317e-01 4.734353224254235215e-01
3.855233662766082148e-01 5.519438294868947992e-01
3.865639151732735979e-01 4.242966188106080949e-01
3.876044640699389809e-01 4.684229110325759393e-01
3.886450129666043640e-01 5.249175169010413811e-01
3.896855618632697471e-01 5.111693304874016519e-01
3.907261107599351302e-01 4.050835346992300856e-01
3.917666596566005133e-01 4.703945053756193317e-01
3.928072085532658964e-01 4.998951441045953459e-01
3.938477574499312794e-01 4.297397809309977390e-01
3.948883063465966625e-01 3.613593932814609389e-01
3.959288552432620456e-01 2.607874897763835520e-01
3.969694041399274287e-01 3.297136188225309184e-01
3.980099530365928118e-01 3.700856416254438841e-01
3.990505019332581949e-01 2.997400091206259276e-01
4.000910508299235779e-01 2.879938734673714862e-01
4.011315997265889610e-01 4.306200589978992355e-01
4.021721486232543441e-01 4.185853915055197660e-01
4.032126975199197272e-01 3.402132438545315551e-01
4.042532464165851103e-01 2.417137915132165915e-01
4.052937953132504934e-01 1.700099700470083519e-01
4.063343442099158764e-01 1.457479203136955448e-01
4.073748931065812595e-01 1.166949575179820897e-01
4.084154420032466426e-01 1.655297201463596934e-01
4.094559908999120257e-01 1.260948479650245702e-01
4.104965397965774088e-01 1.224684856065749727e-01
4.115370886932427918e-01 3.381112916630968357e-01
4.125776375899081749e-01 3.747494257130412620e-01
4.136181864865735580e-01 3.677693363179876940e-01
4.146587353832389411e-01 3.613464737688900641e-01
4.156992842799043242e-01 3.203590555664916906e-01
4.167398331765697073e-01 3.055966685768076729e-01
4.177803820732350903e-01 2.243090822818558649e-01
4.188209309699004734e-01 3.740549200535063790e-01
4.198614798665658565e-01 3.269666532955639582e-01
4.209020287632312396e-01 1.671359241504433157e-01
4.219425776598966227e-01 2.361107985086121630e-01
4.229831265565620058e-01 3.539117104847377959e-01
4.240236754532273888e-01 1.401518389283609167e-01
4.250642243498927719e-01 1.504184824967289558e-01
4.261047732465581550e-01 1.943531822459547698e-01
4.271453221432235381e-01 2.238482372342538440e-01
4.281858710398889212e-01 2.518719086238618843e-01
4.292264199365543043e-01 2.687991498057051842e-01
4.302669688332196873e-01 4.153235008690536745e-01
4.313075177298850704e-01 2.815965847526307186e-01
4.323480666265504535e-01 2.477378111111363523e-01
4.333886155232158366e-01 1.865906815679991837e-01
4.344291644198812197e-01 3.603737811001543889e-01
