# q (1/Angstrom), Intensity (arb)
2.029070354705860696e-02 1.186731266926910394e+03
2.133125244372399004e-02 1.185068857086371963e+03
2.237180134038937659e-02 1.174195387542248227e+03
2.341235023705475968e-02 1.161967373601347845e+03
2.445289913372014276e-02 1.153259889674646047e+03
2.549344803038552584e-02 1.147916944890344894e+03
2.653399692705091240e-02 1.133649797542984288e+03
2.757454582371629548e-02 1.117139192200313119e+03
2.861509472038167856e-02 1.101175216116986576e+03
2.965564361704706164e-02 1.085827378689820989e+03
3.069619251371244473e-02 1.075211382771883109e+03
3.173674141037782781e-02 1.063399938040328607e+03
3.277729030704321089e-02 1.047103706181317875e+03
3.381783920370859398e-02 1.031500689276962476e+03
3.485838810037397706e-02 1.014308022231319342e+03
3.589893699703936014e-02 9.995068069432098810e+02
3.693948589370474322e-02 9.804045045466979218e+02
3.798003479037012631e-02 9.597269435743174881e+02
3.902058368703550939e-02 9.459883721073100560e+02
4.006113258370089247e-02 9.293458557923452190e+02
4.110168148036627556e-02 9.078253943967730493e+02
4.214223037703165864e-02 8.888648574578495527e+02
4.318277927369704866e-02 8.723964857174242979e+02
4.422332817036243174e-02 8.525045991894930921e+02
4.526387706702781483e-02 8.310387719562349957e+02
4.630442596369319791e-02 8.111197845051257218e+02
4.734497486035858099e-02 7.929334741476574209e+02
4.838552375702396408e-02 7.766848264138380955e+02
4.942607265368934716e-02 7.581017537778027418e+02
5.046662155035473024e-02 7.376636772059700888e+02
5.150717044702011332e-02 7.178233850979504496e+02
5.254771934368549641e-02 6.972989906316944371e+02
5.358826824035087949e-02 6.768175766381968970e+02
5.462881713701626257e-02 6.586577301680239316e+02
5.566936603368164566e-02 6.403329386448127707e+02
5.670991493034702874e-02 6.206143219539141000e+02
5.775046382701241182e-02 6.026910609404732213e+02
5.879101272367779490e-02 5.826119332512590745e+02
5.983156162034317799e-02 5.634772532363717801e+02
6.087211051700856107e-02 5.463554203864052852e+02
6.191265941367394415e-02 5.281359360300452863e+02
6.295320831033933417e-02 5.090553842194782987e+02
6.399375720700471726e-02 4.903567245570216642e+02
6.503430610367010034e-02 4.724166054762881686e+02
6.607485500033548342e-02 4.577465073827593756e+02
6.711540389700086651e-02 4.400134796793184364e+02
6.815595279366624959e-02 4.222146193821644147e+02
6.919650169033163267e-02 4.064330243349406828e+02
7.023705058699701576e-02 3.898561186801413214e+02
7.127759948366239884e-02 3.741273918913673810e+02
7.231814838032778192e-02 3.582334650455657652e+02
7.335869727699316500e-02 3.433114549754795348e+02
7.439924617365854809e-02 3.288917230291003193e+02
7.543979507032393117e-02 3.150669716178620092e+02
7.648034396698931425e-02 3.013988255858785692e+02
7.752089286365469734e-02 2.878185875366995106e+02
7.856144176032008042e-02 2.732723410325513100e+02
7.960199065698546350e-02 2.591843346829665506e+02
8.064253955365084658e-02 2.461833851564989573e+02
8.168308845031622967e-02 2.336240083088321740e+02
8.272363734698161275e-02 2.214697842249135533e+02
8.376418624364699583e-02 2.105372438015104422e+02
8.480473514031239279e-02 1.987775905390797675e+02
8.584528403697777588e-02 1.880424308702916107e+02
8.688583293364315896e-02 1.771116337911449250e+02
8.792638183030854204e-02 1.674016142196555279e+02
8.896693072697392513e-02 1.580785834397628378e+02
9.000747962363930821e-02 1.495358858952081107e+02
9.104802852030469129e-02 1.390089253671772553e+02
9.208857741697007437e-02 1.296611982934141736e+02
9.312912631363545746e-02 1.214015503185293596e+02
9.416967521030084054e-02 1.140816809681091968e+02
9.521022410696622362e-02 1.068365343016978102e+02
9.625077300363160671e-02 9.934755587299221702e+01
9.729132190029698979e-02 9.167601259627551258e+01
9.833187079696237287e-02 8.487393924544801393e+01
9.937241969362775595e-02 7.932410119123329650e+01
1.004129685902931390e-01 7.388035819673385163e+01
1.014535174869585221e-01 6.756751295963130133e+01
1.024940663836239052e-01 6.150747867385288714e+01
1.035346152802892883e-01 5.690073966270889372e+01
1.045751641769546714e-01 5.146832650149745092e+01
1.056157130736200545e-01 4.731585689771495851e+01
1.066562619702854375e-01 4.310198866369972848e+01
1.076968108669508206e-01 3.890467034222594123e+01
1.087373597636162037e-01 3.504168305300632369e+01
1.097779086602815868e-01 3.189921596721190156e+01
1.108184575569469699e-01 2.946090384493678016e+01
1.118590064536123529e-01 2.553587390843446059e+01
1.128995553502777360e-01 2.194025952515346489e+01
1.139401042469431191e-01 2.027186356396880740e+01
1.149806531436085022e-01 1.822714461904515559e+01
1.160212020402738853e-01 1.563147513477503736e+01
1.170617509369392684e-01 1.374957689713384212e+01
1.181022998336046514e-01 1.200624186621148937e+01
1.191428487302700345e-01 1.029467461538990847e+01
1.201833976269354176e-01 8.994509214225558935e+00
1.212239465236008007e-01 7.321365865718078680e+00
1.222644954202661838e-01 6.425514798130841143e+00
1.233050443169315669e-01 5.532732095524067972e+00
1.243455932135969499e-01 4.535610324807954896e+00
1.253861421102623330e-01 3.390096722216590308e+00
1.264266910069277161e-01 2.240513828885312364e+00
1.274672399035930992e-01 2.331669382941626623e+00
1.285077888002584823e-01 2.125139651738102486e+00
1.295483376969238654e-01 1.712718348698757609e+00
1.305888865935892484e-01 1.620995258901452019e+00
1.316294354902546315e-01 1.255207036888783989e+00
1.326699843869200146e-01 1.328432642796592233e+00
1.337105332835853977e-01 1.124613858151860768e+00
1.347510821802507808e-01 1.236077957435135488e+00
1.357916310769161639e-01 1.787873997422952499e+00
1.368321799735815469e-01 1.826890252373910783e+00
1.378727288702469300e-01 1.831259809076520639e+00
1.389132777669123131e-01 1.898289300397593138e+00
1.399538266635776962e-01 1.851164894393399152e+00
1.409943755602430793e-01 2.184041033671057619e+00
1.420349244569084624e-01 2.978543163426376594e+00
1.430754733535738454e-01 3.472807283057168348e+00
1.441160222502392285e-01 3.403732245607713480e+00
1.451565711469046116e-01 3.911495493800860146e+00
1.461971200435699947e-01 4.187864843194969211e+00
1.472376689402353778e-01 4.589231286679758881e+00
1.482782178369007609e-01 5.094232515158640950e+00
1.493187667335661439e-01 5.105527551080317750e+00
1.503593156302315270e-01 5.557634817395307181e+00
1.513998645268969101e-01 6.239621852376725286e+00
1.524404134235622932e-01 6.489735868855266432e+00
1.534809623202276763e-01 6.766836973745533612e+00
1.545215112168930593e-01 7.043682905585704646e+00
1.555620601135584424e-01 7.327120314240239907e+00
1.566026090102238255e-01 7.425789653394591738e+00
1.576431579068892086e-01 7.929093082650854996e+00
1.586837068035545917e-01 7.936930240895193833e+00
1.597242557002199748e-01 8.461450264630684615e+00
1.607648045968853578e-01 8.922325615004652377e+00
1.618053534935507409e-01 8.952844033266082135e+00
1.628459023902161240e-01 8.847198473040243982e+00
1.638864512868815071e-01 8.978882611089073151e+00
1.649270001835468902e-01 8.713024558495238381e+00
1.659675490802122733e-01 8.272387905888272996e+00
1.670080979768776563e-01 8.895639790601144625e+00
1.680486468735430672e-01 9.192451938111421583e+00
1.690891957702084503e-01 9.189492812745502448e+00
1.701297446668738333e-01 9.282767369632860976e+00
1.711702935635392164e-01 9.545093985452744789e+00
1.722108424602045995e-01 9.214717351384134503e+00
1.732513913568699826e-01 8.620141897986766111e+00
1.742919402535353657e-01 8.527708565967692778e+00
1.753324891502007488e-01 8.643294861601056311e+00
1.763730380468661318e-01 8.693417154519632817e+00
1.774135869435315149e-01 8.794867484510930922e+00
1.784541358401968980e-01 8.760180258320044544e+00
1.794946847368622811e-01 8.217590307576703168e+00
1.805352336335276642e-01 7.986552761138636214e+00
1.815757825301930473e-01 7.872562922644274153e+00
1.826163314268584303e-01 7.523081171290538549e+00
1.836568803235238134e-01 7.000965428059743090e+00
1.846974292201891965e-01 6.661587822247419410e+00
1.857379781168545796e-01 6.858318326918027452e+00
1.867785270135199627e-01 6.437647893193290116e+00
1.878190759101853458e-01 6.089059963666468178e+00
1.888596248068507288e-01 5.895605121022700956e+00
1.899001737035161119e-01 5.544779420110160117e+00
1.909407226001814950e-01 5.340840022865165793e+00
1.919812714968468781e-01 5.217399681289187185e+00
1.930218203935122612e-01 5.143936368544760995e+00
1.940623692901776443e-01 4.729357540838037721e+00
1.951029181868430273e-01 4.475337660768616388e+00
1.961434670835084104e-01 4.394042523249964916e+00
1.971840159801737935e-01 3.933924465662016701e+00
1.982245648768391766e-01 3.831267305137703971e+00
1.992651137735045597e-01 3.415767610223184647e+00
2.003056626701699428e-01 3.155108197744755927e+00
2.013462115668353813e-01 3.093299514449899590e+00
2.023867604635007644e-01 3.012514878470849311e+00
2.034273093601661475e-01 2.753207198173043935e+00
2.044678582568315306e-01 2.221527607230626700e+00
2.055084071534969137e-01 1.937518060365036376e+00
2.065489560501622968e-01 1.954686739575699050e+00
2.075895049468276798e-01 1.779706361546917748e+00
2.086300538434930629e-01 1.620505171651309695e+00
2.096706027401584460e-01 1.630114607821010253e+00
2.107111516368238291e-01 1.350064788080782563e+00
2.117517005334892122e-01 1.144610822051625121e+00
2.127922494301545953e-01 1.178255532646488746e+00
2.138327983268199783e-01 1.182638077607681026e+00
2.148733472234853614e-01 9.807411792484046487e-01
2.159138961201507445e-01 6.827862330585681150e-01
2.169544450168161276e-01 4.682947813131690395e-01
2.179949939134815107e-01 4.910670038373190494e-01
2.190355428101468938e-01 2.673987265315354023e-01
2.200760917068122768e-01 3.503750422412146293e-01
2.211166406034776599e-01 3.228092574967185158e-01
2.221571895001430430e-01 3.307472013246304243e-01
2.231977383968084261e-01 1.517115097539836199e-01
2.242382872934738092e-01 1.157938198615795500e-01
2.252788361901391923e-01 1.960353435257715660e-01
2.263193850868045753e-01 3.522364890371321167e-01
2.273599339834699584e-01 2.662228418797099039e-01
2.284004828801353415e-01 4.904782445492195109e-01
2.294410317768007246e-01 4.119269621525134539e-01
2.304815806734661077e-01 4.290880338777363079e-01
2.315221295701314908e-01 5.422278501243411597e-01
2.325626784667968738e-01 6.524858649201163985e-01
2.336032273634622569e-01 5.086678404451419055e-01
2.346437762601276400e-01 4.071765423900579606e-01
2.356843251567930231e-01 4.620606218750040739e-01
2.367248740534584062e-01 5.536639526630224850e-01
2.377654229501237892e-01 3.495371043883324091e-01
2.388059718467891723e-01 1.418404771397447917e-01
2.398465207434545554e-01 6.238983169296865583e-01
2.408870696401199385e-01 8.875751191876446455e-01
2.419276185367853216e-01 9.543104102737771655e-01
2.429681674334507047e-01 9.724984308059383409e-01
2.440087163301160877e-01 8.027742808667319707e-01
2.450492652267814708e-01 7.054963704566858951e-01
2.460898141234468539e-01 8.781898930201847975e-01
2.471303630201122370e-01 1.014988126617261344e+00
2.481709119167776201e-01 1.090585304375707665e+00
2.492114608134430032e-01 1.029531792048526739e+00
2.502520097101083585e-01 1.095704204363720180e+00
2.512925586067737416e-01 1.169114771134356801e+00
2.523331075034391247e-01 1.314781698828518586e+00
2.533736564001045077e-01 1.432617034121200561e+00
2.544142052967698908e-01 1.086826435705322780e+00
2.554547541934352739e-01 9.344155846698143364e-01
2.564953030901006570e-01 1.236248150221069153e+00
2.575358519867660401e-01 1.435644005628745390e+00
2.585764008834314231e-01 1.389396915404731203e+00
2.596169497800968062e-01 1.312243908828616412e+00
2.606574986767621893e-01 1.361058700357887119e+00
2.616980475734275724e-01 9.989543418128192798e-01
2.627385964700929555e-01 1.139231988164663534e+00
2.637791453667583386e-01 1.287658121103174125e+00
2.648196942634237216e-01 1.315366090161731449e+00
2.658602431600891047e-01 1.369310952831394701e+00
2.669007920567544878e-01 1.275748792724755276e+00
2.679413409534198709e-01 9.507018066301995418e-01
2.689818898500852540e-01 9.747402997525789203e-01
2.700224387467506371e-01 1.314931503052260808e+00
2.710629876434160201e-01 1.376699996071270249e+00
2.721035365400814032e-01 1.267139129541700271e+00
2.731440854367467863e-01 1.243695655526085631e+00
2.741846343334121694e-01 1.131946022008538222e+00
2.752251832300775525e-01 1.296000219507895679e+00
2.762657321267429356e-01 1.305865206015603519e+00
2.773062810234083186e-01 1.210132187907223766e+00
2.783468299200737017e-01 1.149345570737111188e+00
2.793873788167390848e-01 8.094467845510209258e-01
2.804279277134044679e-01 6.580644719437884760e-01
2.814684766100698510e-01 9.098088620639579460e-01
2.825090255067352341e-01 9.267263657248321351e-01
2.835495744034006171e-01 8.651116390056294847e-01
2.845901233000660002e-01 8.559739191300970163e-01
2.856306721967313833e-01 9.010891328420669311e-01
2.866712210933967664e-01 7.632274519049175865e-01
2.877117699900621495e-01 7.502584213836840377e-01
2.887523188867275326e-01 8.110211295670914922e-01
2.897928677833929156e-01 8.286415397976441000e-01
2.908334166800582987e-01 9.114961101645455699e-01
2.918739655767236818e-01 8.121968208704188896e-01
2.929145144733890649e-01 6.950292091446890197e-01
2.939550633700544480e-01 9.256134250021297305e-01
2.949956122667198311e-01 8.352645224780950173e-01
2.960361611633852141e-01 7.976871955478550547e-01
2.970767100600505972e-01 4.963169674567105005e-01
2.981172589567159803e-01 3.334550921407561930e-01
2.991578078533813634e-01 3.075317046903371931e-01
3.001983567500468020e-01 2.483397331439292088e-01
3.012389056467121851e-01 1.796921744549067057e-01
3.022794545433775681e-01 4.630301888138568245e-01
3.033200034400429512e-01 4.714314624655919772e-01
3.043605523367083343e-01 1.645653347208266837e-01
3.054011012333737174e-01 2.136657093025498000e-01
3.064416501300391005e-01 4.602113128527562935e-01
3.074821990267044836e-01 5.901052142930112154e-01
3.085227479233698666e-01 6.277081341494792355e-01
3.095632968200352497e-01 3.481491049321725484e-01
3.106038457167006328e-01 3.809285907326405152e-01
3.116443946133660159e-01 4.638965090628808241e-01
3.126849435100313990e-01 3.934928492224756269e-01
3.137254924066967821e-01 4.235250987492200636e-01
3.147660413033621651e-01 3.030536464490083404e-01
3.158065902000275482e-01 2.855948563976440369e-02
3.168471390966929313e-01 2.279069208618622611e-02
3.178876879933583144e-01 2.511560510442265581e-01
3.189282368900236975e-01 3.666207815469455511e-01
3.199687857866890806e-01 1.955538123369002790e-01
3.210093346833544636e-01 3.565982404815599693e-01
3.220498835800198467e-01 3.124982518180452473e-01
3.230904324766852298e-01 8.919557737396388575e-03
3.241309813733506129e-01 1.690283237640137770e-01
3.251715302700159960e-01 3.036873341799868342e-01
3.262120791666813790e-01 4.212606982553737112e-01
3.272526280633467621e-01 2.811251002175829683e-01
3.282931769600121452e-01 2.033147312722931588e-01
3.293337258566775283e-01 1.671027490540311078e-01
3.303742747533429114e-01 7.088224036237988912e-02
3.314148236500082945e-01 2.274189262785597521e-02
3.324553725466736775e-01 2.083161059936138315e-01
3.334959214433390606e-01 2.494490282148333904e-01
3.345364703400044437e-01 4.718852610462498376e-01
3.355770192366698268e-01 3.192645287671851406e-01
3.366175681333352099e-01 3.130907762579511200e-01
3.376581170300005930e-01 3.184591323865255674e-01
3.386986659266659760e-01 1.843016540549164972e-01
3.397392148233313591e-01 3.125537180041675356e-01
3.407797637199967422e-01 2.929140826624241356e-01
3.418203126166621253e-01 3.216026547212962328e-01
3.428608615133275084e-01 4.342480113386315566e-01
3.439014104099928915e-01 3.098568164919228707e-01
3.449419593066582745e-01 3.802020016308205186e-01
3.459825082033236576e-01 3.654619080934082831e-01
3.470230570999890407e-01 5.495571438747361981e-01
3.480636059966544238e-01 4.318739255180972236e-01
3.491041548933198069e-01 2.471391974750396514e-01
3.501447037899851900e-01 4.688877383591680825e-01
3.511852526866505730e-01 2.825007824606657891e-01
3.522258015833159561e-01 3.450964732559675952e-01
3.532663504799813392e-01 5.418609441564861129e-01
3.543068993766467223e-01 3.157638617683460325e-01
3.553474482733121054e-01 5.111638686842248092e-01
3.563879971699774885e-01 5.824811423985352121e-01
3.574285460666428715e-01 4.637671800073910333e-01
3.584690949633082546e-01 3.705121893033691549e-01
3.595096438599736377e-01 3.764046007756292056e-01
3.605501927566390208e-01 5.027883525950969101e-01
3.615907416533044039e-01 4.661958664988290479e-01
3.626312905499697870e-01 3.048938533038842991e-01
3.636718394466351700e-01 5.037070331815129975e-01
3.647123883433005531e-01 4.646391509083684923e-01
3.657529372399659362e-01 3.070315275454760240e-01
3.667934861366313193e-01 4.142687874402462000e-01
3.678340350332967024e-01 4.820485124558828716e-01
3.688745839299620854e-01 3.936065135040180962e-01
3.699151328266274685e-01 4.095533765895957856e-01
3.709556817232928516e-01 4.420251239874026794e-01
3.719962306199582347e-01 5.640750412736998953e-01
3.730367795166236178e-01 5.356042255347510661e-01
3.740773284132890009e-01 4.610559375697924622e-01
3.751178773099543839e-01 3.132783005755293004e-01
3.761584262066197670e-01 3.613996503540342076e-01
3.771989751032851501e-01 3.816084734065974260e-01
3.782395239999505332e-01 3.296767006355239005e-01
3.792800728966159163e-01 3.116514453887155867e-01
3.803206217932812994e-01 3.357874312307806974e-01
3.813611706899466824e-01 9.445931535805485169e-02
3.824017195866120655e-01 1.437123593152627166e-01
3.834422684832774486e-01 2.842350688376278356e-01
3.844828173799428317e-01 5.283934289526399652e-01
3.855233662766082148e-01 5.309819673655695738e-01
3.865639151732735979e-01 3.178476208693901128e-01
3.876044640699389809e-01 3.833675621945751288e-01
3.886450129666043640e-01 4.036275756753511246e-01
3.896855618632697471e-01 1.961720139151630349e-01
3.907261107599351302e-01 2.698492199716362450e-01
3.917666596566005133e-01 1.409241811595727256e-01
3.928072085532658964e-01 1.628994653643225377e-01
3.938477574499312794e-01 2.061404062490730382e-01
3.948883063465966625e-01 3.090388282921026075e-01
3.959288552432620456e-01 3.556317713459797858e-01
3.969694041399274287e-01 3.028844136101227491e-01
3.980099530365928118e-01 4.261180354579430229e-01
3.990505019332581949e-01 5.616279159020436396e-01
4.000910508299235779e-01 3.518634467733470217e-01
4.011315997265889610e-01 3.040111805535943290e-01
4.021721486232543441e-01 3.472962391690401773e-01
4.032126975199197272e-01 1.882389180421704111e-01
4.042532464165851103e-01 1.774834677532624028e-01
4.052937953132504934e-01 6.675834737579897649e-01
4.063343442099158764e-01 4.099060612608944609e-01
4.073748931065812595e-01 3.075657315869158026e-01
4.084154420032466426e-01 3.095518029228045975e-01
4.094559908999120257e-01 1.650598017440323417e-01
4.104965397965774088e-01 1.991766161937000845e-01
4.115370886932427918e-01 3.818406145458155265e-01
4.125776375899081749e-01 2.095277239512398637e-01
4.136181864865735580e-01 3.020281328012721644e-01
4.146587353832389411e-01 1.401917062239625977e-01
4.156992842799043242e-01 8.022055785953341456e-02
4.167398331765697073e-01 2.918093887130908115e-01
4.177803820732350903e-01 3.594707027953027989e-01
4.188209309699004734e-01 2.388488107106958580e-01
4.198614798665658565e-01 2.261302688604089894e-01
4.209020287632312396e-01 2.963893394623227096e-01
4.219425776598966227e-01 1.556027488967579586e-01
4.229831265565620058e-01 1.286077269465373263e-01
4.240236754532273888e-01 1.553775968111104078e-01
4.250642243498927719e-01 7.760203190639813897e-02
4.261047732465581550e-01 1.573372565767670039e-01
4.271453221432235381e-01 2.110114000663365630e-01
4.281858710398889212e-01 1.949518720780822889e-01
4.292264199365543043e-01 3.485662426766538147e-01
4.302669688332196873e-01 4.508243924578927420e-01
4.313075177298850704e-01 2.637729740760228481e-01
4.323480666265504535e-01 3.152842312690182780e-01
4.333886155232158366e-01 3.454522079956845459e-01
4.344291644198812197e-01 4.123018127876534322e-01
