# q (1/Angstrom), Intensity (arb)
2.029070354705860696e-02 0.000000000000000000e+00
2.133125244372399004e-02 1.750041189443564349e+00
2.237180134038937659e-02 2.994161599177946442e+00
2.341235023705475968e-02 3.996194445356251457e+00
2.445289913372014276e-02 4.886231164295335994e+00
2.549344803038552584e-02 5.605019579359101556e+00
2.653399692705091240e-02 6.078168187186130389e+00
2.757454582371629548e-02 6.276375323107480142e+00
2.861509472038167856e-02 6.758724050368137171e+00
2.965564361704706164e-02 7.107682708980600950e+00
3.069619251371244473e-02 7.345204460505129873e+00
3.173674141037782781e-02 7.787742528080788595e+00
3.277729030704321089e-02 8.018638536037032694e+00
3.381783920370859398e-02 7.994582610321515403e+00
3.485838810037397706e-02 8.176857757400913584e+00
3.589893699703936014e-02 8.272158083133897222e+00
3.693948589370474322e-02 8.208900717994314533e+00
3.798003479037012631e-02 8.165890606882635794e+00
3.902058368703550939e-02 8.373142523836975215e+00
4.006113258370089247e-02 8.578882586630607321e+00
4.110168148036627556e-02 8.649115268111760457e+00
4.214223037703165864e-02 8.557946923227765623e+00
4.318277927369704866e-02 8.595688557135618524e+00
4.422332817036243174e-02 8.673191355713946393e+00
4.526387706702781483e-02 8.672565353884536421e+00
4.630442596369319791e-02 8.698981876861674678e+00
4.734497486035858099e-02 8.738624628836628716e+00
4.838552375702396408e-02 8.869579318545852686e+00
4.942607265368934716e-02 8.897338407386122583e+00
5.046662155035473024e-02 8.803682592366767423e+00
5.150717044702011332e-02 8.858036221384967490e+00
5.254771934368549641e-02 8.836238672164823171e+00
5.358826824035087949e-02 8.695548657051560326e+00
5.462881713701626257e-02 8.744107992086044945e+00
5.566936603368164566e-02 8.876113162188802974e+00
5.670991493034702874e-02 8.716348421962972992e+00
5.775046382701241182e-02 8.817593178176677426e+00
5.879101272367779490e-02 8.826969483562908891e+00
5.983156162034317799e-02 8.920197975046812999e+00
6.087211051700856107e-02 8.848813826331006993e+00
6.191265941367394415e-02 8.803845157993126946e+00
6.295320831033933417e-02 8.827879264548077032e+00
6.399375720700471726e-02 8.824510756909573317e+00
6.503430610367010034e-02 8.769427034389702058e+00
6.607485500033548342e-02 8.829316605807861151e+00
6.711540389700086651e-02 8.771199371556237523e+00
6.815595279366624959e-02 8.792946454454419580e+00
6.919650169033163267e-02 8.798969708178749016e+00
7.023705058699701576e-02 8.788879375518600767e+00
7.127759948366239884e-02 8.958672052386258855e+00
7.231814838032778192e-02 8.993878444846433950e+00
7.335869727699316500e-02 8.908384796226521019e+00
7.439924617365854809e-02 8.858159869616640592e+00
7.543979507032393117e-02 8.746838371252668054e+00
7.648034396698931425e-02 8.878279631533423810e+00
7.752089286365469734e-02 8.825083482276951941e+00
7.856144176032008042e-02 8.842884979323729411e+00
7.960199065698546350e-02 8.819721340649557817e+00
8.064253955365084658e-02 8.830577328502316803e+00
8.168308845031622967e-02 8.860319380161739033e+00
8.272363734698161275e-02 8.805000183032282379e+00
8.376418624364699583e-02 8.796214895361645247e+00
8.480473514031239279e-02 8.761231703972470086e+00
8.584528403697777588e-02 8.867539126596893695e+00
8.688583293364315896e-02 8.904241850213601595e+00
8.792638183030854204e-02 8.906317506331959066e+00
8.896693072697392513e-02 8.737606192556755857e+00
9.000747962363930821e-02 8.720230681783231574e+00
9.104802852030469129e-02 8.913484513634998052e+00
9.208857741697007437e-02 8.907181973290114740e+00
9.312912631363545746e-02 8.951860629470189679e+00
9.416967521030084054e-02 8.918062610400806278e+00
9.521022410696622362e-02 8.871905598449760788e+00
9.625077300363160671e-02 8.850283538902511182e+00
9.729132190029698979e-02 8.904073775629974818e+00
9.833187079696237287e-02 8.863185677274449503e+00
9.937241969362775595e-02 8.891036405547831478e+00
1.004129685902931390e-01 8.859453152249416874e+00
1.014535174869585221e-01 8.924117325308431603e+00
1.024940663836239052e-01 8.792245161101627460e+00
1.035346152802892883e-01 8.762315410724845322e+00
1.045751641769546714e-01 8.827251479907928911e+00
1.056157130736200545e-01 8.804204744894917667e+00
1.066562619702854375e-01 8.852965753430133589e+00
1.076968108669508206e-01 8.847494996157655223e+00
1.087373597636162037e-01 8.875197393977803273e+00
1.097779086602815868e-01 8.834347293369109622e+00
1.108184575569469699e-01 8.866840706276025941e+00
1.118590064536123529e-01 8.843699593752081256e+00
1.128995553502777360e-01 8.935668773061539838e+00
1.139401042469431191e-01 8.944248984601818719e+00
1.149806531436085022e-01 8.791727641852888908e+00
1.160212020402738853e-01 8.836628916351134677e+00
1.170617509369392684e-01 8.869015392786952390e+00
1.181022998336046514e-01 8.788818906214752147e+00
1.191428487302700345e-01 8.954149281141035033e+00
1.201833976269354176e-01 8.867949765001403861e+00
1.212239465236008007e-01 8.867101425161411754e+00
1.222644954202661838e-01 8.880724765316802660e+00
1.233050443169315669e-01 8.946099500341397004e+00
1.243455932135969499e-01 8.898919818126776349e+00
1.253861421102623330e-01 8.989655106360050496e+00
1.264266910069277161e-01 8.874807091513865487e+00
1.274672399035930992e-01 8.949351332708697981e+00
1.285077888002584823e-01 8.868750965655596730e+00
1.295483376969238654e-01 8.896399059740856430e+00
1.305888865935892484e-01 8.926484295412411285e+00
1.316294354902546315e-01 8.873281503235169509e+00
1.326699843869200146e-01 8.930860820170563485e+00
1.337105332835853977e-01 8.950176190506297758e+00
1.347510821802507808e-01 8.887676377595415289e+00
1.357916310769161639e-01 8.981818872920461772e+00
1.368321799735815469e-01 8.907806332648570802e+00
1.378727288702469300e-01 9.013702165678468603e+00
1.389132777669123131e-01 8.945081353356627574e+00
1.399538266635776962e-01 8.884223818193188293e+00
1.409943755602430793e-01 8.954073275554193856e+00
1.420349244569084624e-01 9.024408546385355834e+00
1.430754733535738454e-01 8.993830001265727958e+00
1.441160222502392285e-01 8.907068382645899618e+00
1.451565711469046116e-01 8.916289602116645341e+00
1.461971200435699947e-01 8.988308828763251768e+00
1.472376689402353778e-01 8.951627229288543930e+00
1.482782178369007609e-01 8.975660086079582101e+00
1.493187667335661439e-01 8.892859778368118029e+00
1.503593156302315270e-01 8.984529612155714773e+00
1.513998645268969101e-01 8.978451846428109562e+00
1.524404134235622932e-01 9.010644056906885524e+00
1.534809623202276763e-01 8.965524285169607310e+00
1.545215112168930593e-01 8.974710312789666133e+00
1.555620601135584424e-01 8.939918632083553973e+00
1.566026090102238255e-01 8.961481591370663580e+00
1.576431579068892086e-01 8.938191838675443535e+00
1.586837068035545917e-01 8.977088698974494463e+00
1.597242557002199748e-01 9.008254519879098865e+00
1.607648045968853578e-01 8.918899718637673502e+00
1.618053534935507409e-01 8.998040227406649549e+00
1.628459023902161240e-01 8.964640034668313717e+00
1.638864512868815071e-01 8.994361904000523822e+00
1.649270001835468902e-01 9.008261508121023553e+00
1.659675490802122733e-01 9.021550313361561990e+00
1.670080979768776563e-01 8.937852519487819336e+00
1.680486468735430672e-01 8.986464082015825028e+00
1.690891957702084503e-01 9.004911151082541920e+00
1.701297446668738333e-01 8.984732580658816303e+00
1.711702935635392164e-01 8.956544673943282575e+00
1.722108424602045995e-01 8.940452413073716187e+00
1.732513913568699826e-01 8.976468863207283988e+00
1.742919402535353657e-01 9.014859494035686538e+00
1.753324891502007488e-01 9.077278804127020706e+00
1.763730380468661318e-01 8.977417916189359914e+00
1.774135869435315149e-01 9.013248697910302809e+00
1.784541358401968980e-01 8.994612311155449902e+00
1.794946847368622811e-01 8.957375479154098485e+00
1.805352336335276642e-01 8.970559965015452164e+00
1.815757825301930473e-01 8.974293838105012355e+00
1.826163314268584303e-01 9.031820037689973546e+00
1.836568803235238134e-01 8.974191155695969258e+00
1.846974292201891965e-01 9.013102907110447148e+00
1.857379781168545796e-01 9.039371371564964619e+00
1.867785270135199627e-01 9.015123754104354958e+00
1.878190759101853458e-01 9.054564058307748908e+00
1.888596248068507288e-01 9.037791104991667268e+00
1.899001737035161119e-01 8.976931380482511713e+00
1.909407226001814950e-01 9.057459378043185794e+00
1.919812714968468781e-01 8.976100555584906715e+00
1.930218203935122612e-01 8.933793793403415506e+00
1.940623692901776443e-01 8.942118897440835212e+00
1.951029181868430273e-01 8.954225366679395393e+00
1.961434670835084104e-01 9.018606182528648318e+00
1.971840159801737935e-01 9.033327678862679733e+00
1.982245648768391766e-01 9.051682887903321983e+00
1.992651137735045597e-01 9.063862223859540990e+00
2.003056626701699428e-01 9.001040045275152224e+00
2.013462115668353813e-01 8.962049294366771335e+00
2.023867604635007644e-01 9.014137278339692472e+00
2.034273093601661475e-01 9.117408074279255814e+00
2.044678582568315306e-01 9.026739376208981369e+00
2.055084071534969137e-01 9.014237286148084394e+00
2.065489560501622968e-01 9.025725855460386526e+00
2.075895049468276798e-01 9.019987478158018490e+00
2.086300538434930629e-01 9.033502344230477377e+00
2.096706027401584460e-01 8.977551067577270061e+00
2.107111516368238291e-01 8.956688148309748243e+00
2.117517005334892122e-01 8.984693907276170677e+00
2.127922494301545953e-01 9.039623820564296253e+00
2.138327983268199783e-01 9.027008405435726246e+00
2.148733472234853614e-01 9.044458692701391911e+00
2.159138961201507445e-01 9.124457361262496846e+00
2.169544450168161276e-01 9.096787344573971978e+00
2.179949939134815107e-01 9.065623579613601990e+00
2.190355428101468938e-01 8.992007615768798701e+00
2.200760917068122768e-01 9.008327989352480358e+00
2.211166406034776599e-01 9.017979477327333626e+00
2.221571895001430430e-01 8.977638158754645659e+00
2.231977383968084261e-01 8.947679251142357515e+00
2.242382872934738092e-01 8.989401808425647289e+00
2.252788361901391923e-01 9.033846134866019284e+00
2.263193850868045753e-01 8.998958287883450424e+00
2.273599339834699584e-01 9.019648687843814017e+00
2.284004828801353415e-01 9.052246339001420949e+00
2.294410317768007246e-01 9.053019127920098441e+00
2.304815806734661077e-01 9.084809978118174811e+00
2.315221295701314908e-01 9.025659288243497613e+00
2.325626784667968738e-01 8.984443084085627973e+00
2.336032273634622569e-01 9.037443016972396492e+00
2.346437762601276400e-01 9.138143970818672912e+00
2.356843251567930231e-01 8.996190226837768478e+00
2.367248740534584062e-01 9.070707193389358380e+00
2.377654229501237892e-01 9.065253906278050167e+00
2.388059718467891723e-01 9.099051837788026731e+00
2.398465207434545554e-01 9.039774853702315482e+00
2.408870696401199385e-01 9.052821090569166174e+00
2.419276185367853216e-01 9.051803409759820340e+00
2.429681674334507047e-01 9.039422035497187480e+00
2.440087163301160877e-01 9.078016430666592029e+00
2.450492652267814708e-01 9.092934697638156649e+00
2.460898141234468539e-01 9.070228657040628306e+00
2.471303630201122370e-01 9.065765825610739626e+00
2.481709119167776201e-01 9.075162483087577669e+00
2.492114608134430032e-01 9.037655288132057763e+00
2.502520097101083585e-01 9.050591291011688355e+00
2.512925586067737416e-01 9.080323175444938499e+00
2.523331075034391247e-01 9.066862054354185574e+00
2.533736564001045077e-01 9.102888326365079052e+00
2.544142052967698908e-01 9.053924584336250803e+00
2.554547541934352739e-01 9.053207155281906893e+00
2.564953030901006570e-01 9.087775827182834831e+00
2.575358519867660401e-01 9.076550916506633371e+00
2.585764008834314231e-01 9.053056732673063323e+00
2.596169497800968062e-01 9.060956516029515129e+00
2.606574986767621893e-01 9.070405892628755851e+00
2.616980475734275724e-01 9.101178323641342160e+00
2.627385964700929555e-01 9.050662023178608351e+00
2.637791453667583386e-01 9.128916342281730323e+00
2.648196942634237216e-01 9.064738547747900554e+00
2.658602431600891047e-01 9.069342782481172094e+00
2.669007920567544878e-01 9.128814609886816811e+00
2.679413409534198709e-01 9.068475081843093477e+00
2.689818898500852540e-01 9.030409885918903257e+00
2.700224387467506371e-01 9.057831142202788399e+00
2.710629876434160201e-01 9.072020459748253884e+00
2.721035365400814032e-01 9.089435314493101714e+00
2.731440854367467863e-01 9.081145666854395060e+00
2.741846343334121694e-01 9.070759576657716039e+00
2.752251832300775525e-01 9.043439969888540375e+00
2.762657321267429356e-01 9.043175807172481484e+00
2.773062810234083186e-01 9.120634082812959065e+00
2.783468299200737017e-01 9.051288554567049616e+00
2.793873788167390848e-01 9.044539982246506682e+00
2.804279277134044679e-01 9.105057157257222755e+00
2.814684766100698510e-01 9.082990154573298724e+00
2.825090255067352341e-01 9.057644368193470186e+00
2.835495744034006171e-01 9.035680116964423192e+00
2.845901233000660002e-01 9.065952876770689173e+00
2.856306721967313833e-01 9.123079576087940623e+00
2.866712210933967664e-01 9.064193698686782596e+00
2.877117699900621495e-01 9.068538588360443242e+00
2.887523188867275326e-01 9.075728389985822986e+00
2.897928677833929156e-01 9.078685267017958083e+00
2.908334166800582987e-01 8.990700211062399916e+00
2.918739655767236818e-01 9.006406335609076663e+00
2.929145144733890649e-01 9.062315129422865212e+00
2.939550633700544480e-01 9.083760080595563835e+00
2.949956122667198311e-01 9.048637936560377071e+00
2.960361611633852141e-01 9.047594715931193576e+00
2.970767100600505972e-01 9.016263062988215893e+00
2.981172589567159803e-01 9.071915461568485384e+00
2.991578078533813634e-01 9.036565371932017143e+00
3.001983567500468020e-01 9.060611252530737403e+00
3.012389056467121851e-01 9.025650487845162218e+00
3.022794545433775681e-01 9.104209683517499485e+00
3.033200034400429512e-01 9.135985458296397965e+00
3.043605523367083343e-01 9.067333577553590374e+00
3.054011012333737174e-01 9.077467312531684485e+00
3.064416501300391005e-01 9.078522775959509516e+00
3.074821990267044836e-01 9.120141134298229701e+00
3.085227479233698666e-01 9.098794575686534714e+00
3.095632968200352497e-01 9.061835162740344174e+00
3.106038457167006328e-01 9.105522136249796006e+00
3.116443946133660159e-01 9.142507694561658127e+00
3.126849435100313990e-01 9.095363068631700187e+00
3.137254924066967821e-01 9.067044882928865235e+00
3.147660413033621651e-01 9.037103669268418571e+00
3.158065902000275482e-01 9.091628103365401614e+00
3.168471390966929313e-01 9.059301795324481432e+00
3.178876879933583144e-01 9.067135044895296758e+00
3.189282368900236975e-01 9.075632579291440294e+00
3.199687857866890806e-01 9.118314105409817572e+00
3.210093346833544636e-01 9.153510866882021091e+00
3.220498835800198467e-01 9.085022418223879015e+00
3.230904324766852298e-01 9.058143099156902522e+00
3.241309813733506129e-01 9.099000892616926350e+00
3.251715302700159960e-01 9.420864203032181194e+00
3.262120791666813790e-01 9.220684749896795651e+00
3.272526280633467621e-01 9.098964200579747086e+00
3.282931769600121452e-01 9.119672936821926257e+00
3.293337258566775283e-01 9.113292471799145034e+00
3.303742747533429114e-01 9.042888753513569355e+00
3.314148236500082945e-01 9.078544869925764260e+00
3.324553725466736775e-01 9.134839713514242732e+00
3.334959214433390606e-01 9.099201819330517083e+00
3.345364703400044437e-01 9.122869395553234284e+00
3.355770192366698268e-01 9.059888366251303893e+00
3.366175681333352099e-01 9.053796770150558615e+00
3.376581170300005930e-01 9.057733579989500683e+00
3.386986659266659760e-01 9.087113784030020014e+00
3.397392148233313591e-01 9.080470527171161876e+00
3.407797637199967422e-01 9.124038530226403765e+00
3.418203126166621253e-01 9.126985842509075297e+00
3.428608615133275084e-01 9.118828641792088519e+00
3.439014104099928915e-01 9.069935930689128512e+00
3.449419593066582745e-01 9.055858808569002605e+00
3.459825082033236576e-01 9.105997780996059277e+00
3.470230570999890407e-01 9.129115848447408865e+00
3.480636059966544238e-01 9.083934301217533758e+00
3.491041548933198069e-01 9.072884819611239493e+00
3.501447037899851900e-01 9.110969675978259019e+00
3.511852526866505730e-01 9.121951925143306994e+00
3.522258015833159561e-01 9.074391148697777965e+00
3.532663504799813392e-01 9.112655919576919672e+00
3.543068993766467223e-01 9.126521277542762434e+00
3.553474482733121054e-01 9.056602098528996336e+00
3.563879971699774885e-01 9.097032562416195844e+00
3.574285460666428715e-01 9.066353165676098058e+00
3.584690949633082546e-01 9.088903867347704946e+00
3.595096438599736377e-01 9.092892786618588019e+00
3.605501927566390208e-01 9.118327963358131782e+00
3.615907416533044039e-01 9.109947345323469392e+00
3.626312905499697870e-01 9.098878071978356630e+00
3.636718394466351700e-01 9.090374562833174465e+00
3.647123883433005531e-01 9.043914917757017946e+00
3.657529372399659362e-01 9.117819316495696214e+00
3.667934861366313193e-01 9.122934918662705783e+00
3.678340350332967024e-01 9.138482445830446110e+00
3.688745839299620854e-01 9.120418103007551736e+00
3.699151328266274685e-01 9.079830641499953003e+00
3.709556817232928516e-01 9.081455659036295813e+00
3.719962306199582347e-01 9.086839347467661199e+00
3.730367795166236178e-01 9.065100834387697759e+00
3.740773284132890009e-01 9.135725396668554765e+00
3.751178773099543839e-01 9.070648518490807888e+00
3.761584262066197670e-01 9.061118393455636522e+00
3.771989751032851501e-01 9.028250072348976474e+00
3.782395239999505332e-01 9.020968287024453858e+00
3.792800728966159163e-01 9.048504929728975910e+00
3.803206217932812994e-01 9.064562571698587590e+00
3.813611706899466824e-01 9.112939852749571301e+00
3.824017195866120655e-01 9.124552620915929779e+00
3.834422684832774486e-01 9.085175089241870339e+00
3.844828173799428317e-01 9.065354392454207044e+00
3.855233662766082148e-01 9.107757027877052991e+00
3.865639151732735979e-01 9.126244195904149592e+00
3.876044640699389809e-01 9.121115066164609431e+00
3.886450129666043640e-01 9.090814722238485857e+00
3.896855618632697471e-01 9.112091482462297165e+00
3.907261107599351302e-01 9.134582584093610791e+00
3.917666596566005133e-01 9.084131323021811255e+00
3.928072085532658964e-01 9.063305533577533879e+00
3.938477574499312794e-01 9.076904621816732188e+00
3.948883063465966625e-01 9.110516620465357818e+00
3.959288552432620456e-01 9.100965096916098673e+00
3.969694041399274287e-01 9.057161880074826144e+00
3.980099530365928118e-01 9.127942272694674841e+00
3.990505019332581949e-01 9.119919258024202335e+00
4.000910508299235779e-01 9.068913884017241855e+00
4.011315997265889610e-01 9.082004563842628997e+00
4.021721486232543441e-01 9.122303970218382574e+00
4.032126975199197272e-01 9.115471378158041205e+00
4.042532464165851103e-01 9.102316372535382172e+00
4.052937953132504934e-01 9.134352775456697771e+00
4.063343442099158764e-01 9.160572742384832878e+00
4.073748931065812595e-01 9.136932907452658625e+00
4.084154420032466426e-01 9.114599114753149323e+00
4.094559908999120257e-01 9.062365689683918646e+00
4.104965397965774088e-01 9.100567702774757350e+00
4.115370886932427918e-01 9.089478792724662526e+00
4.125776375899081749e-01 9.086433239943415785e+00
4.136181864865735580e-01 9.136096441431233117e+00
4.146587353832389411e-01 9.084269951087490469e+00
4.156992842799043242e-01 9.118754170635103407e+00
4.167398331765697073e-01 9.113951552929767885e+00
4.177803820732350903e-01 9.100665889021840371e+00
4.188209309699004734e-01 9.140431261724668133e+00
4.198614798665658565e-01 9.145291233156159549e+00
4.209020287632312396e-01 9.185141449856310203e+00
4.219425776598966227e-01 9.229819112613840915e+00
4.229831265565620058e-01 9.351129422932272561e+00
4.240236754532273888e-01 9.354499110004864448e+00
4.250642243498927719e-01 9.264009567543483925e+00
4.261047732465581550e-01 9.189207028555983925e+00
4.271453221432235381e-01 9.227255449566335699e+00
4.281858710398889212e-01 9.136688245847864209e+00
4.292264199365543043e-01 9.122172015234916387e+00
4.302669688332196873e-01 9.158918804794334179e+00
4.313075177298850704e-01 9.196264555083036640e+00
4.323480666265504535e-01 9.182941532346321267e+00
4.333886155232158366e-01 9.135829840767026866e+00
4.344291644198812197e-01 9.167130563616396444e+00
