# q (1/Angstrom), Intensity (arb)
2.029070354705860696e-02 1.214173286347249132e+03
2.133125244372399004e-02 1.201799835484930099e+03
2.237180134038937659e-02 1.200482333391291832e+03
2.341235023705475968e-02 1.199100744505397870e+03
2.445289913372014276e-02 1.182608840133864987e+03
2.549344803038552584e-02 1.173784694519534696e+03
2.653399692705091240e-02 1.158997779644710135e+03
2.757454582371629548e-02 1.149766535717395982e+03
2.861509472038167856e-02 1.134004565301244384e+03
2.965564361704706164e-02 1.121201298303280964e+03
3.069619251371244473e-02 1.106898674088637563e+03
3.173674141037782781e-02 1.094217490659300211e+03
3.277729030704321089e-02 1.077833326755940789e+03
3.381783920370859398e-02 1.057266505099838469e+03
3.485838810037397706e-02 1.038051559173874693e+03
3.589893699703936014e-02 1.022939480584590001e+03
3.693948589370474322e-02 1.006158446685981971e+03
3.798003479037012631e-02 9.861058073825473684e+02
3.902058368703550939e-02 9.667372499711057117e+02
4.006113258370089247e-02 9.517260118978387027e+02
4.110168148036627556e-02 9.311757429102545984e+02
4.214223037703165864e-02 9.109656702266232742e+02
4.318277927369704866e-02 8.939986872366687294e+02
4.422332817036243174e-02 8.781793518338020021e+02
4.526387706702781483e-02 8.600578963758197233e+02
4.630442596369319791e-02 8.382452900026996758e+02
4.734497486035858099e-02 8.153498947054562223e+02
4.838552375702396408e-02 7.942773456503940679e+02
4.942607265368934716e-02 7.755714644428810516e+02
5.046662155035473024e-02 7.545743351033785302e+02
5.150717044702011332e-02 7.369849009293160407e+02
5.254771934368549641e-02 7.168473585933094228e+02
5.358826824035087949e-02 6.973138408111254876e+02
5.462881713701626257e-02 6.759359238025538161e+02
5.566936603368164566e-02 6.597537802724103813e+02
5.670991493034702874e-02 6.392338791296840554e+02
5.775046382701241182e-02 6.180055385294222106e+02
5.879101272367779490e-02 5.973736022361332516e+02
5.983156162034317799e-02 5.793989447506440911e+02
6.087211051700856107e-02 5.630338960503496537e+02
6.191265941367394415e-02 5.429461183552256216e+02
6.295320831033933417e-02 5.237402340118113671e+02
6.399375720700471726e-02 5.071765309652343490e+02
6.503430610367010034e-02 4.918442664926867565e+02
6.607485500033548342e-02 4.715988340036984141e+02
6.711540389700086651e-02 4.531513074407449153e+02
6.815595279366624959e-02 4.368053999723914558e+02
6.919650169033163267e-02 4.200657254592956065e+02
7.023705058699701576e-02 4.022534578222212076e+02
7.127759948366239884e-02 3.873061539847283825e+02
7.231814838032778192e-02 3.710134689237044654e+02
7.335869727699316500e-02 3.559832913438147557e+02
7.439924617365854809e-02 3.398525622611042536e+02
7.543979507032393117e-02 3.245223820450709695e+02
7.648034396698931425e-02 3.107856403550043183e+02
7.752089286365469734e-02 2.959738554988947499e+02
7.856144176032008042e-02 2.823192926486866554e+02
7.960199065698546350e-02 2.690425703996444327e+02
8.064253955365084658e-02 2.563816317511626721e+02
8.168308845031622967e-02 2.435575640319088109e+02
8.272363734698161275e-02 2.316262162451151028e+02
8.376418624364699583e-02 2.200232758526741179e+02
8.480473514031239279e-02 2.090829637236996348e+02
8.584528403697777588e-02 1.978517150888445428e+02
8.688583293364315896e-02 1.858537367536427496e+02
8.792638183030854204e-02 1.743877125277938944e+02
8.896693072697392513e-02 1.645059502071310078e+02
9.000747962363930821e-02 1.544977611759913714e+02
9.104802852030469129e-02 1.450837186360580233e+02
9.208857741697007437e-02 1.363535849230993335e+02
9.312912631363545746e-02 1.276832724205386853e+02
9.416967521030084054e-02 1.198233468479189838e+02
9.521022410696622362e-02 1.111812107195572139e+02
9.625077300363160671e-02 1.046621464060611117e+02
9.729132190029698979e-02 9.863481312593138739e+01
9.833187079696237287e-02 9.014653232013655781e+01
9.937241969362775595e-02 8.295341637832900972e+01
1.004129685902931390e-01 7.660522203396132568e+01
1.014535174869585221e-01 6.988607928597096475e+01
1.024940663836239052e-01 6.399589833909821834e+01
1.035346152802892883e-01 5.961767538677412404e+01
1.045751641769546714e-01 5.425863275272928377e+01
1.056157130736200545e-01 4.939868329545440417e+01
1.066562619702854375e-01 4.539416162663386700e+01
1.076968108669508206e-01 4.082183758964630016e+01
1.087373597636162037e-01 3.734634129785477086e+01
1.097779086602815868e-01 3.378474696201250538e+01
1.108184575569469699e-01 3.023828310791301988e+01
1.118590064536123529e-01 2.703815825552638330e+01
1.128995553502777360e-01 2.430092524993001035e+01
1.139401042469431191e-01 2.153238436587082916e+01
1.149806531436085022e-01 1.910730236739043164e+01
1.160212020402738853e-01 1.706045489406520232e+01
1.170617509369392684e-01 1.467970710504862097e+01
1.181022998336046514e-01 1.277337859568152112e+01
1.191428487302700345e-01 1.141239094585176161e+01
1.201833976269354176e-01 9.654275333621892941e+00
1.212239465236008007e-01 8.339324422716742902e+00
1.222644954202661838e-01 7.333136877247429908e+00
1.233050443169315669e-01 6.082588713952223003e+00
1.243455932135969499e-01 5.323933537228597856e+00
1.253861421102623330e-01 5.069457949070429237e+00
1.264266910069277161e-01 4.503768309343204379e+00
1.274672399035930992e-01 3.449532971503373346e+00
1.285077888002584823e-01 2.684282852613655734e+00
1.295483376969238654e-01 2.068820168259126291e+00
1.305888865935892484e-01 2.052380199901957525e+00
1.316294354902546315e-01 2.150204484469920629e+00
1.326699843869200146e-01 2.177366427455666553e+00
1.337105332835853977e-01 1.922718718075699940e+00
1.347510821802507808e-01 1.423431653022085186e+00
1.357916310769161639e-01 1.422499476916890160e+00
1.368321799735815469e-01 1.843659402586450113e+00
1.378727288702469300e-01 2.485312357040609044e+00
1.389132777669123131e-01 2.884436926223504116e+00
1.399538266635776962e-01 2.865641760074847610e+00
1.409943755602430793e-01 3.021449249614313715e+00
1.420349244569084624e-01 3.358556793159895193e+00
1.430754733535738454e-01 3.718459294347532307e+00
1.441160222502392285e-01 3.700064494071384047e+00
1.451565711469046116e-01 4.245973093216630190e+00
1.461971200435699947e-01 4.603408109754045796e+00
1.472376689402353778e-01 5.481181275601350933e+00
1.482782178369007609e-01 5.785804405986141319e+00
1.493187667335661439e-01 6.072744110722336330e+00
1.503593156302315270e-01 6.212833540126780463e+00
1.513998645268969101e-01 6.324393905737370147e+00
1.524404134235622932e-01 6.652295901443817883e+00
1.534809623202276763e-01 6.947361853204473192e+00
1.545215112168930593e-01 7.754780695750326913e+00
1.555620601135584424e-01 8.070312205208949763e+00
1.566026090102238255e-01 8.439966084859349849e+00
1.576431579068892086e-01 8.530143275480519094e+00
1.586837068035545917e-01 8.793556332994640456e+00
1.597242557002199748e-01 9.257812108561374487e+00
1.607648045968853578e-01 9.383553096827078832e+00
1.618053534935507409e-01 9.615086157221082175e+00
1.628459023902161240e-01 9.404184313948736218e+00
1.638864512868815071e-01 9.209907749102711705e+00
1.649270001835468902e-01 9.590089667488019387e+00
1.659675490802122733e-01 9.735755970579607066e+00
1.670080979768776563e-01 1.001924272722933651e+01
1.680486468735430672e-01 9.827626331072682575e+00
1.690891957702084503e-01 9.458397608661819334e+00
1.701297446668738333e-01 9.918504950050550661e+00
1.711702935635392164e-01 9.771399944308196694e+00
1.722108424602045995e-01 9.688594783688607492e+00
1.732513913568699826e-01 9.636517605786348639e+00
1.742919402535353657e-01 9.257705420894438930e+00
1.753324891502007488e-01 9.528292979154848297e+00
1.763730380468661318e-01 9.781262497635687225e+00
1.774135869435315149e-01 9.361904662373685682e+00
1.784541358401968980e-01 9.419391876429294541e+00
1.794946847368622811e-01 9.151171610272339052e+00
1.805352336335276642e-01 9.029569600248134265e+00
1.815757825301930473e-01 8.495327367465030477e+00
1.826163314268584303e-01 7.795325734564571007e+00
1.836568803235238134e-01 7.676194646926607135e+00
1.846974292201891965e-01 7.591856650932147232e+00
1.857379781168545796e-01 7.270214367636274488e+00
1.867785270135199627e-01 6.892228693875996015e+00
1.878190759101853458e-01 7.004459608544912896e+00
1.888596248068507288e-01 6.875334551236992553e+00
1.899001737035161119e-01 6.947991028801105529e+00
1.909407226001814950e-01 6.712484809755995485e+00
1.919812714968468781e-01 6.179615637775611958e+00
1.930218203935122612e-01 5.754329551730862136e+00
1.940623692901776443e-01 5.220432185826442861e+00
1.951029181868430273e-01 5.078487947986744189e+00
1.961434670835084104e-01 5.054016200622740485e+00
1.971840159801737935e-01 4.602662101657784888e+00
1.982245648768391766e-01 4.202634893115781978e+00
1.992651137735045597e-01 3.931518171651394056e+00
2.003056626701699428e-01 3.772035483620186369e+00
2.013462115668353813e-01 3.694150224760594625e+00
2.023867604635007644e-01 3.717698091080048783e+00
2.034273093601661475e-01 3.439517262526862851e+00
2.044678582568315306e-01 3.006330605209463158e+00
2.055084071534969137e-01 2.891117643630984446e+00
2.065489560501622968e-01 2.680756117199031507e+00
2.075895049468276798e-01 2.222618686258137188e+00
2.086300538434930629e-01 1.992670247567239983e+00
2.096706027401584460e-01 2.139294132242145707e+00
2.107111516368238291e-01 2.072102586588545847e+00
2.117517005334892122e-01 2.012276496600566844e+00
2.127922494301545953e-01 1.450926291044286387e+00
2.138327983268199783e-01 1.184045306634128991e+00
2.148733472234853614e-01 1.260084007113814408e+00
2.159138961201507445e-01 1.151399902107687723e+00
2.169544450168161276e-01 1.113242599194997240e+00
2.179949939134815107e-01 1.043496486917703692e+00
2.190355428101468938e-01 9.025769613694727411e-01
2.200760917068122768e-01 8.109310979485897519e-01
2.211166406034776599e-01 8.083870526172631799e-01
2.221571895001430430e-01 6.684637321802391341e-01
2.231977383968084261e-01 6.184330941354971856e-01
2.242382872934738092e-01 9.308620841439321225e-01
2.252788361901391923e-01 9.887233720478292298e-01
2.263193850868045753e-01 8.007080308935243806e-01
2.273599339834699584e-01 7.605325050877702608e-01
2.284004828801353415e-01 8.695992138252606196e-01
2.294410317768007246e-01 8.400457138769574783e-01
2.304815806734661077e-01 7.671844290555753787e-01
2.315221295701314908e-01 8.225032443212043631e-01
2.325626784667968738e-01 7.965046884284276985e-01
2.336032273634622569e-01 6.959437933535461696e-01
2.346437762601276400e-01 8.229892860311558422e-01
2.356843251567930231e-01 8.799227776272502410e-01
2.367248740534584062e-01 7.481368556262175673e-01
2.377654229501237892e-01 7.473565092176173152e-01
2.388059718467891723e-01 7.039296662666423288e-01
2.398465207434545554e-01 8.259137060106134243e-01
2.408870696401199385e-01 7.378393225499380037e-01
2.419276185367853216e-01 8.416904682012322780e-01
2.429681674334507047e-01 9.146286798739780011e-01
2.440087163301160877e-01 1.093721622880586608e+00
2.450492652267814708e-01 1.058309814879144994e+00
2.460898141234468539e-01 1.099519812760025417e+00
2.471303630201122370e-01 1.421502843258647175e+00
2.481709119167776201e-01 1.197821743730226984e+00
2.492114608134430032e-01 8.633860041080900771e-01
2.502520097101083585e-01 1.238841998013782586e+00
2.512925586067737416e-01 1.440317964222767699e+00
2.523331075034391247e-01 1.780152569590644163e+00
2.533736564001045077e-01 1.723522499675876674e+00
2.544142052967698908e-01 1.620451122753774342e+00
2.554547541934352739e-01 1.926165589784446297e+00
2.564953030901006570e-01 1.525796180791157752e+00
2.575358519867660401e-01 1.465635099310077294e+00
2.585764008834314231e-01 1.400112530029165470e+00
2.596169497800968062e-01 1.555585664451967887e+00
2.606574986767621893e-01 1.784360812726347945e+00
2.616980475734275724e-01 1.776378354725864028e+00
2.627385964700929555e-01 1.702659107330941168e+00
2.637791453667583386e-01 1.584672264927991847e+00
2.648196942634237216e-01 1.572805651373812452e+00
2.658602431600891047e-01 1.700066159523519360e+00
2.669007920567544878e-01 1.761303245584112886e+00
2.679413409534198709e-01 1.707369685930853365e+00
2.689818898500852540e-01 1.679893550769943289e+00
2.700224387467506371e-01 1.746702985513582718e+00
2.710629876434160201e-01 1.789201115489419180e+00
2.721035365400814032e-01 1.832287203958891553e+00
2.731440854367467863e-01 1.788730292867583671e+00
2.741846343334121694e-01 1.732010086955536821e+00
2.752251832300775525e-01 1.640778837763225084e+00
2.762657321267429356e-01 1.521385271551583429e+00
2.773062810234083186e-01 1.540821391258468509e+00
2.783468299200737017e-01 1.494651147338426966e+00
2.793873788167390848e-01 1.666639989515292797e+00
2.804279277134044679e-01 1.787074484690673870e+00
2.814684766100698510e-01 1.452718388436625929e+00
2.825090255067352341e-01 1.240297242131688904e+00
2.835495744034006171e-01 1.263524535713600017e+00
2.845901233000660002e-01 1.317195975961876542e+00
2.856306721967313833e-01 1.407004400753592677e+00
2.866712210933967664e-01 1.185625537129869400e+00
2.877117699900621495e-01 1.177350425059987771e+00
2.887523188867275326e-01 9.305533303938204881e-01
2.897928677833929156e-01 1.156479721751768608e+00
2.908334166800582987e-01 1.125498523591868860e+00
2.918739655767236818e-01 9.537870561614347764e-01
2.929145144733890649e-01 1.038762546335451731e+00
2.939550633700544480e-01 8.980861946934801665e-01
2.949956122667198311e-01 7.475481741172309569e-01
2.960361611633852141e-01 8.328653895428388410e-01
2.970767100600505972e-01 8.604409820128182673e-01
2.981172589567159803e-01 7.799249946269846134e-01
2.991578078533813634e-01 5.168744075606781507e-01
3.001983567500468020e-01 5.623537970610819059e-01
3.012389056467121851e-01 6.490260929109261667e-01
3.022794545433775681e-01 5.790501913835193193e-01
3.033200034400429512e-01 5.170822287953100727e-01
3.043605523367083343e-01 4.600795778336674857e-01
3.054011012333737174e-01 6.997236406484930171e-01
3.064416501300391005e-01 5.998646486251075771e-01
3.074821990267044836e-01 5.838138218693593728e-01
3.085227479233698666e-01 8.533358093798995014e-01
3.095632968200352497e-01 6.456594045151398120e-01
3.106038457167006328e-01 5.142165327343022341e-01
3.116443946133660159e-01 4.341690953436554423e-01
3.126849435100313990e-01 4.673490002496514251e-01
3.137254924066967821e-01 3.146970021546557916e-01
3.147660413033621651e-01 3.775779503245075830e-01
3.158065902000275482e-01 3.772907300137688935e-01
3.168471390966929313e-01 3.014427024159438417e-01
3.178876879933583144e-01 5.297878864281742040e-01
3.189282368900236975e-01 4.621336624972656182e-01
3.199687857866890806e-01 4.243333640186897071e-01
3.210093346833544636e-01 2.052757036118855183e-01
3.220498835800198467e-01 2.237116571606243554e-01
3.230904324766852298e-01 3.639546031745268806e-01
3.241309813733506129e-01 5.517649095393295511e-01
3.251715302700159960e-01 6.311455604101645633e-01
3.262120791666813790e-01 5.017143272156907585e-01
3.272526280633467621e-01 6.902764092478577140e-01
3.282931769600121452e-01 6.492751170632544699e-01
3.293337258566775283e-01 5.740215535588149010e-01
3.303742747533429114e-01 5.463743076433189572e-01
3.314148236500082945e-01 6.040595681558116326e-01
3.324553725466736775e-01 7.575381299854022643e-01
3.334959214433390606e-01 7.380336491989858416e-01
3.345364703400044437e-01 7.004708023035810527e-01
3.355770192366698268e-01 4.923755826023494819e-01
3.366175681333352099e-01 6.161696378511507532e-01
3.376581170300005930e-01 6.268867865293508146e-01
3.386986659266659760e-01 6.529939336520911297e-01
3.397392148233313591e-01 8.976401128365836257e-01
3.407797637199967422e-01 7.918464507240017269e-01
3.418203126166621253e-01 6.262657846540697903e-01
3.428608615133275084e-01 5.793083987601690410e-01
3.439014104099928915e-01 6.988160820061075640e-01
3.449419593066582745e-01 6.598973466764839202e-01
3.459825082033236576e-01 4.667420131116486459e-01
3.470230570999890407e-01 4.229190452082534080e-01
3.480636059966544238e-01 4.628624531094480687e-01
3.491041548933198069e-01 5.540280140208793114e-01
3.501447037899851900e-01 4.012518515269505315e-01
3.511852526866505730e-01 4.823466524515680476e-01
3.522258015833159561e-01 5.731971819327199569e-01
3.532663504799813392e-01 5.551217159200483309e-01
3.543068993766467223e-01 7.403992020903871207e-01
3.553474482733121054e-01 8.503773721465996971e-01
3.563879971699774885e-01 5.597655254561111349e-01
3.574285460666428715e-01 6.131726307523202024e-01
3.584690949633082546e-01 7.068864292458769683e-01
3.595096438599736377e-01 5.622641472138774077e-01
3.605501927566390208e-01 5.708152532843868698e-01
3.615907416533044039e-01 8.117843032962639427e-01
3.626312905499697870e-01 7.745031909841095796e-01
3.636718394466351700e-01 6.626994677024562463e-01
3.647123883433005531e-01 5.616292815567085484e-01
3.657529372399659362e-01 6.188299346989722949e-01
3.667934861366313193e-01 5.479270242183567063e-01
3.678340350332967024e-01 5.411297103221883731e-01
3.688745839299620854e-01 5.764660511034982449e-01
3.699151328266274685e-01 6.614402585537781931e-01
3.709556817232928516e-01 6.945827524423968669e-01
3.719962306199582347e-01 6.610260887658370166e-01
3.730367795166236178e-01 6.958567517718918793e-01
3.740773284132890009e-01 6.369028667067233584e-01
3.751178773099543839e-01 4.244321351162980704e-01
3.761584262066197670e-01 4.545646076272440439e-01
3.771989751032851501e-01 4.773182743079118495e-01
3.782395239999505332e-01 5.048861998884675018e-01
3.792800728966159163e-01 7.611065553370259806e-01
3.803206217932812994e-01 6.640080947973920900e-01
3.813611706899466824e-01 5.593022717244018338e-01
3.824017195866120655e-01 6.114907879160291770e-01
3.834422684832774486e-01 5.593541187544737170e-01
3.844828173799428317e-01 5.016435144680926328e-01
3.855233662766082148e-01 3.630119262007056591e-01
3.865639151732735979e-01 5.312314350278022346e-01
3.876044640699389809e-01 5.457168613402920698e-01
3.886450129666043640e-01 6.812724667850922344e-01
3.896855618632697471e-01 4.696707791563099477e-01
3.907261107599351302e-01 3.648827121573887666e-01
3.917666596566005133e-01 4.891468199988757704e-01
3.928072085532658964e-01 5.747353954522615993e-01
3.938477574499312794e-01 5.216840073632376118e-01
3.948883063465966625e-01 2.602218290631235220e-01
3.959288552432620456e-01 2.738014676992435170e-01
3.969694041399274287e-01 5.425779839645237246e-01
3.980099530365928118e-01 6.462223141629266365e-01
3.990505019332581949e-01 5.493705435093545475e-01
4.000910508299235779e-01 4.209240191300018807e-01
4.011315997265889610e-01 2.992068845621354001e-01
4.021721486232543441e-01 2.345836691202158875e-01
4.032126975199197272e-01 1.857426124060559403e-01
4.042532464165851103e-01 3.511619335459528202e-01
4.052937953132504934e-01 6.542454681465272870e-01
4.063343442099158764e-01 5.969148295577326735e-01
4.073748931065812595e-01 3.890268650721786514e-01
4.084154420032466426e-01 3.981639121571305395e-01
4.094559908999120257e-01 3.149018805780734453e-01
4.104965397965774088e-01 4.614574500254455813e-01
4.115370886932427918e-01 2.605655952514425167e-01
4.125776375899081749e-01 2.918751313565159933e-01
4.136181864865735580e-01 3.820111600669875429e-01
4.146587353832389411e-01 3.943131242104342959e-01
4.156992842799043242e-01 3.014029784368368325e-01
4.167398331765697073e-01 4.289070550604989762e-01
4.177803820732350903e-01 3.777372517814008290e-01
4.188209309699004734e-01 2.042999230519697562e-01
4.198614798665658565e-01 1.165898989573648237e-01
4.209020287632312396e-01 2.478413170476514438e-01
4.219425776598966227e-01 3.659498538574332827e-01
4.229831265565620058e-01 4.489795928760322852e-01
4.240236754532273888e-01 4.688641749529374181e-01
4.250642243498927719e-01 5.460536875919039801e-01
4.261047732465581550e-01 4.373289179426897988e-01
4.271453221432235381e-01 3.963452385652352916e-01
4.281858710398889212e-01 3.752185191838925959e-01
4.292264199365543043e-01 4.150944706479791080e-01
4.302669688332196873e-01 5.417741931760495788e-01
4.313075177298850704e-01 5.507751239471438964e-01
4.323480666265504535e-01 5.034661149532979607e-01
4.333886155232158366e-01 3.203104372915035469e-01
4.344291644198812197e-01 3.882404917643036413e-01
