# q (1/Angstrom), Intensity (arb)
2.029070354705860696e-02 1.335740629842119233e+03
2.133125244372399004e-02 1.330725703898798429e+03
2.237180134038937659e-02 1.324032518997276838e+03
2.341235023705475968e-02 1.312662077683519556e+03
2.445289913372014276e-02 1.304316437194245054e+03
2.549344803038552584e-02 1.299676602270476906e+03
2.653399692705091240e-02 1.284551684386891338e+03
2.757454582371629548e-02 1.268489456114056566e+03
2.861509472038167856e-02 1.256340379746507097e+03
2.965564361704706164e-02 1.241681980865291052e+03
3.069619251371244473e-02 1.226825806394131860e+03
3.173674141037782781e-02 1.211283195101728779e+03
3.277729030704321089e-02 1.190783641535184870e+03
3.381783920370859398e-02 1.173248497041642167e+03
3.485838810037397706e-02 1.155709544385123991e+03
3.589893699703936014e-02 1.134415306976903594e+03
3.693948589370474322e-02 1.113595065959396607e+03
3.798003479037012631e-02 1.093541493437076497e+03
3.902058368703550939e-02 1.071256019576896279e+03
4.006113258370089247e-02 1.052782180178767703e+03
4.110168148036627556e-02 1.034213339403968575e+03
4.214223037703165864e-02 1.010667060375861070e+03
4.318277927369704866e-02 9.860812650448793875e+02
4.422332817036243174e-02 9.675118327659863553e+02
4.526387706702781483e-02 9.475040327958918169e+02
4.630442596369319791e-02 9.250342904979111154e+02
4.734497486035858099e-02 9.032944640014121660e+02
4.838552375702396408e-02 8.802460916273038265e+02
4.942607265368934716e-02 8.566852670137108134e+02
5.046662155035473024e-02 8.396799140930615977e+02
5.150717044702011332e-02 8.162396626295733313e+02
5.254771934368549641e-02 7.931239055765912553e+02
5.358826824035087949e-02 7.714101256051727660e+02
5.462881713701626257e-02 7.485460686090012814e+02
5.566936603368164566e-02 7.241424589163132168e+02
5.670991493034702874e-02 7.045350823274631011e+02
5.775046382701241182e-02 6.850400015295375624e+02
5.879101272367779490e-02 6.621698237998775767e+02
5.983156162034317799e-02 6.423813310584308738e+02
6.087211051700856107e-02 6.195970083241743396e+02
6.191265941367394415e-02 5.993677743962600744e+02
6.295320831033933417e-02 5.801068752481751289e+02
6.399375720700471726e-02 5.585317449502456384e+02
6.503430610367010034e-02 5.372209276155933821e+02
6.607485500033548342e-02 5.202094611285411929e+02
6.711540389700086651e-02 5.021880823184985729e+02
6.815595279366624959e-02 4.830359075317132351e+02
6.919650169033163267e-02 4.621820555281418592e+02
7.023705058699701576e-02 4.432776967099058538e+02
7.127759948366239884e-02 4.262622637836958575e+02
7.231814838032778192e-02 4.087454949101672241e+02
7.335869727699316500e-02 3.914604923896157516e+02
7.439924617365854809e-02 3.749805553788207817e+02
7.543979507032393117e-02 3.567276263495084550e+02
7.648034396698931425e-02 3.404094501985817942e+02
7.752089286365469734e-02 3.257392354107643655e+02
7.856144176032008042e-02 3.108372685199460079e+02
7.960199065698546350e-02 2.952742504563757393e+02
8.064253955365084658e-02 2.803082371352537052e+02
8.168308845031622967e-02 2.667071973257118316e+02
8.272363734698161275e-02 2.534253777797144664e+02
8.376418624364699583e-02 2.408566431304166144e+02
8.480473514031239279e-02 2.268297226489616492e+02
8.584528403697777588e-02 2.150396165441929952e+02
8.688583293364315896e-02 2.038370824780519115e+02
8.792638183030854204e-02 1.918409907027893269e+02
8.896693072697392513e-02 1.799220164251101437e+02
9.000747962363930821e-02 1.697466713708761858e+02
9.104802852030469129e-02 1.586527160983442286e+02
9.208857741697007437e-02 1.483638184830700766e+02
9.312912631363545746e-02 1.389156128532184482e+02
9.416967521030084054e-02 1.304519133136723781e+02
9.521022410696622362e-02 1.210909882561081901e+02
9.625077300363160671e-02 1.123468922002412285e+02
9.729132190029698979e-02 1.053269711894380407e+02
9.833187079696237287e-02 9.766387874090850119e+01
9.937241969362775595e-02 9.048006811339931232e+01
1.004129685902931390e-01 8.303027746474586479e+01
1.014535174869585221e-01 7.647056294975857327e+01
1.024940663836239052e-01 7.074601247310501151e+01
1.035346152802892883e-01 6.513313596218884527e+01
1.045751641769546714e-01 5.948446923094864758e+01
1.056157130736200545e-01 5.411546912777117768e+01
1.066562619702854375e-01 4.905520195392715976e+01
1.076968108669508206e-01 4.415713566289216629e+01
1.087373597636162037e-01 4.002142116525148907e+01
1.097779086602815868e-01 3.639007773840531712e+01
1.108184575569469699e-01 3.298138903113207476e+01
1.118590064536123529e-01 2.913825799096409241e+01
1.128995553502777360e-01 2.590980182549305511e+01
1.139401042469431191e-01 2.330821104495090168e+01
1.149806531436085022e-01 2.087688077888751081e+01
1.160212020402738853e-01 1.854590810420872060e+01
1.170617509369392684e-01 1.653358936322744199e+01
1.181022998336046514e-01 1.427619535766218206e+01
1.191428487302700345e-01 1.227673729018903259e+01
1.201833976269354176e-01 1.053056256846155492e+01
1.212239465236008007e-01 9.299604573797047635e+00
1.222644954202661838e-01 8.014460012929468746e+00
1.233050443169315669e-01 6.936168978576247923e+00
1.243455932135969499e-01 5.735177326669862907e+00
1.253861421102623330e-01 4.815703407026532545e+00
1.264266910069277161e-01 4.206257895767919308e+00
1.274672399035930992e-01 3.319388754972386835e+00
1.285077888002584823e-01 2.954951974284767857e+00
1.295483376969238654e-01 2.506967548930731482e+00
1.305888865935892484e-01 2.469934088090447233e+00
1.316294354902546315e-01 2.468886541034027715e+00
1.326699843869200146e-01 2.495732018136997965e+00
1.337105332835853977e-01 2.654741424653099813e+00
1.347510821802507808e-01 2.852387387620741066e+00
1.357916310769161639e-01 2.612090786200759851e+00
1.368321799735815469e-01 2.822999827379245374e+00
1.378727288702469300e-01 3.054734376710399602e+00
1.389132777669123131e-01 2.960360429124349935e+00
1.399538266635776962e-01 3.292481047207097333e+00
1.409943755602430793e-01 3.723020121282580419e+00
1.420349244569084624e-01 3.942793536065373416e+00
1.430754733535738454e-01 3.835069200399843226e+00
1.441160222502392285e-01 4.564120994666488684e+00
1.451565711469046116e-01 5.138791818689369961e+00
1.461971200435699947e-01 5.414806097511949190e+00
1.472376689402353778e-01 5.964358059274871948e+00
1.482782178369007609e-01 6.269962703880835875e+00
1.493187667335661439e-01 7.020543243251687215e+00
1.503593156302315270e-01 7.168209890846032550e+00
1.513998645268969101e-01 7.478217325975215601e+00
1.524404134235622932e-01 7.424672010562392899e+00
1.534809623202276763e-01 7.608815050046271011e+00
1.545215112168930593e-01 8.203576916203658698e+00
1.555620601135584424e-01 9.003953954869992060e+00
1.566026090102238255e-01 9.723713500783770058e+00
1.576431579068892086e-01 9.566211159003152886e+00
1.586837068035545917e-01 9.911951602610788115e+00
1.597242557002199748e-01 9.922925069529600961e+00
1.607648045968853578e-01 9.642210948491740652e+00
1.618053534935507409e-01 9.944285952660731454e+00
1.628459023902161240e-01 1.064395992274829084e+01
1.638864512868815071e-01 1.106559901427015902e+01
1.649270001835468902e-01 1.134394093071740883e+01
1.659675490802122733e-01 1.112574830160165718e+01
1.670080979768776563e-01 1.072784736852378984e+01
1.680486468735430672e-01 1.102511859820874918e+01
1.690891957702084503e-01 1.140598370079861468e+01
1.701297446668738333e-01 1.096462869140464491e+01
1.711702935635392164e-01 1.053981792128301009e+01
1.722108424602045995e-01 1.064218282605452615e+01
1.732513913568699826e-01 1.083660667088505392e+01
1.742919402535353657e-01 1.072680878263265569e+01
1.753324891502007488e-01 1.060271894898219358e+01
1.763730380468661318e-01 1.027083536543954168e+01
1.774135869435315149e-01 9.973640156143396496e+00
1.784541358401968980e-01 9.652200871396246384e+00
1.794946847368622811e-01 9.705400263983044340e+00
1.805352336335276642e-01 9.696097126617424067e+00
1.815757825301930473e-01 9.149195247560651723e+00
1.826163314268584303e-01 9.008269307965178996e+00
1.836568803235238134e-01 8.672760986819984197e+00
1.846974292201891965e-01 8.353530848265560138e+00
1.857379781168545796e-01 8.295051633069704167e+00
1.867785270135199627e-01 7.693408296662241241e+00
1.878190759101853458e-01 7.241195711712183680e+00
1.888596248068507288e-01 7.258272058783788339e+00
1.899001737035161119e-01 7.073993614447971368e+00
1.909407226001814950e-01 6.581453810082386724e+00
1.919812714968468781e-01 6.317111065061297381e+00
1.930218203935122612e-01 6.030153385944636568e+00
1.940623692901776443e-01 5.483244576844338525e+00
1.951029181868430273e-01 5.402656222666369246e+00
1.961434670835084104e-01 5.108778174148227436e+00
1.971840159801737935e-01 4.526449196295153854e+00
1.982245648768391766e-01 4.487773430213280790e+00
1.992651137735045597e-01 4.451475100736203672e+00
2.003056626701699428e-01 4.332300212460069133e+00
2.013462115668353813e-01 4.200384680506640933e+00
2.023867604635007644e-01 3.505679351657096987e+00
2.034273093601661475e-01 3.366701004434020206e+00
2.044678582568315306e-01 3.063466492673196484e+00
2.055084071534969137e-01 2.681894055928975007e+00
2.065489560501622968e-01 2.513459915405078959e+00
2.075895049468276798e-01 2.612896761365263387e+00
2.086300538434930629e-01 2.596350340934264977e+00
2.096706027401584460e-01 2.644836825441807093e+00
2.107111516368238291e-01 2.059569176036536220e+00
2.117517005334892122e-01 1.951635617090826003e+00
2.127922494301545953e-01 1.795578101061817478e+00
2.138327983268199783e-01 1.536463551120689885e+00
2.148733472234853614e-01 1.644668449417018508e+00
2.159138961201507445e-01 1.343020348973002598e+00
2.169544450168161276e-01 1.085709402814220681e+00
2.179949939134815107e-01 8.036181958823753746e-01
2.190355428101468938e-01 1.039251260878877758e+00
2.200760917068122768e-01 9.656030365472538790e-01
2.211166406034776599e-01 6.384444840491596551e-01
2.221571895001430430e-01 6.037211454800299748e-01
2.231977383968084261e-01 6.263486196724379340e-01
2.242382872934738092e-01 4.243046907626535358e-01
2.252788361901391923e-01 3.412415603548097920e-01
2.263193850868045753e-01 4.967531003415786017e-01
2.273599339834699584e-01 4.881215019341524908e-01
2.284004828801353415e-01 6.513402830698673540e-01
2.294410317768007246e-01 4.292218034966559514e-01
2.304815806734661077e-01 5.710261066767436944e-01
2.315221295701314908e-01 6.834558212886143735e-01
2.325626784667968738e-01 6.644230151072818558e-01
2.336032273634622569e-01 7.624649445392037705e-01
2.346437762601276400e-01 6.046124037711813060e-01
2.356843251567930231e-01 3.422867527862507586e-01
2.367248740534584062e-01 8.462494915971490173e-01
2.377654229501237892e-01 9.046574671250198207e-01
2.388059718467891723e-01 6.848617664711831310e-01
2.398465207434545554e-01 9.267996015245856256e-01
2.408870696401199385e-01 1.079488824718016104e+00
2.419276185367853216e-01 1.172168483975394082e+00
2.429681674334507047e-01 1.305889089143356330e+00
2.440087163301160877e-01 1.365864145220147208e+00
2.450492652267814708e-01 1.458235799536232946e+00
2.460898141234468539e-01 1.408553633132868299e+00
2.471303630201122370e-01 1.293071285688640160e+00
2.481709119167776201e-01 1.330077464188427427e+00
2.492114608134430032e-01 1.297954667102832360e+00
2.502520097101083585e-01 1.292634767829522247e+00
2.512925586067737416e-01 1.149874677579404647e+00
2.523331075034391247e-01 1.508481652043368371e+00
2.533736564001045077e-01 1.703229211998880999e+00
2.544142052967698908e-01 1.739995324598258009e+00
2.554547541934352739e-01 2.003690472024970859e+00
2.564953030901006570e-01 1.912766392229546142e+00
2.575358519867660401e-01 1.759966907273629033e+00
2.585764008834314231e-01 1.680930198814145626e+00
2.596169497800968062e-01 1.784943983345335994e+00
2.606574986767621893e-01 1.859792027702383166e+00
2.616980475734275724e-01 1.745370930362518891e+00
2.627385964700929555e-01 1.797917480270527335e+00
2.637791453667583386e-01 1.906610123046760918e+00
2.648196942634237216e-01 1.798013454744218365e+00
2.658602431600891047e-01 1.644934776260491560e+00
2.669007920567544878e-01 1.848723194012695359e+00
2.679413409534198709e-01 1.636488353048100919e+00
2.689818898500852540e-01 1.626805579897318665e+00
2.700224387467506371e-01 1.739769963508408068e+00
2.710629876434160201e-01 1.944579831884727383e+00
2.721035365400814032e-01 1.856640952135716560e+00
2.731440854367467863e-01 1.704112177298380715e+00
2.741846343334121694e-01 1.888298292868153538e+00
2.752251832300775525e-01 1.702231418536829466e+00
2.762657321267429356e-01 1.710979867142803812e+00
2.773062810234083186e-01 2.107707186688134726e+00
2.783468299200737017e-01 1.770120002348363641e+00
2.793873788167390848e-01 1.657228550023710056e+00
2.804279277134044679e-01 1.490310293317783419e+00
2.814684766100698510e-01 1.359847262658281153e+00
2.825090255067352341e-01 1.488257847664868905e+00
2.835495744034006171e-01 1.291943695784180335e+00
2.845901233000660002e-01 1.069405491197656488e+00
2.856306721967313833e-01 1.158545101016350998e+00
2.866712210933967664e-01 1.381724894048669938e+00
2.877117699900621495e-01 1.231116881621595383e+00
2.887523188867275326e-01 9.842826454356377042e-01
2.897928677833929156e-01 1.033976255608553885e+00
2.908334166800582987e-01 1.189589597190291670e+00
2.918739655767236818e-01 1.142832099932739709e+00
2.929145144733890649e-01 9.733715725021916398e-01
2.939550633700544480e-01 9.229233373474698965e-01
2.949956122667198311e-01 8.016986310219564871e-01
2.960361611633852141e-01 6.118434836296273716e-01
2.970767100600505972e-01 7.078458286990922943e-01
2.981172589567159803e-01 6.749822032450225606e-01
2.991578078533813634e-01 7.603619739203111294e-01
3.001983567500468020e-01 7.956603718040113904e-01
3.012389056467121851e-01 8.327996018020193958e-01
3.022794545433775681e-01 5.591245891149014824e-01
3.033200034400429512e-01 4.432230768908560492e-01
3.043605523367083343e-01 4.194389031757843611e-01
3.054011012333737174e-01 4.996056197538045751e-01
3.064416501300391005e-01 4.544634492162060724e-01
3.074821990267044836e-01 7.650457057028958729e-02
3.085227479233698666e-01 2.672265416372425761e-01
3.095632968200352497e-01 5.190108660374868066e-01
3.106038457167006328e-01 5.594237487630913108e-01
3.116443946133660159e-01 5.834293973778059694e-01
3.126849435100313990e-01 4.007511819780127382e-01
3.137254924066967821e-01 4.570814205935285202e-01
3.147660413033621651e-01 3.746140376730124899e-01
3.158065902000275482e-01 5.815987886769526938e-01
3.168471390966929313e-01 7.945417981461204704e-01
3.178876879933583144e-01 4.140796653431166874e-01
3.189282368900236975e-01 3.541833841019723650e-01
3.199687857866890806e-01 3.597353085464085609e-01
3.210093346833544636e-01 3.165213986133146307e-01
3.220498835800198467e-01 3.377815186667092462e-01
3.230904324766852298e-01 5.137139948790192534e-01
3.241309813733506129e-01 5.230174806991598757e-01
3.251715302700159960e-01 1.858536107115362768e-01
3.262120791666813790e-01 4.735135248710165001e-02
3.272526280633467621e-01 1.994986944197520984e-01
3.282931769600121452e-01 1.134508335840820337e-01
3.293337258566775283e-01 1.872855227706189396e-01
3.303742747533429114e-01 2.857865791285050250e-01
3.314148236500082945e-01 4.023045173149455422e-01
3.324553725466736775e-01 3.360535575223124738e-01
3.334959214433390606e-01 4.383545422694830052e-01
3.345364703400044437e-01 3.870135961755920562e-01
3.355770192366698268e-01 2.848864613557537950e-01
3.366175681333352099e-01 4.038813461827537310e-01
3.376581170300005930e-01 4.649204980376033802e-01
3.386986659266659760e-01 4.078622186323137555e-01
3.397392148233313591e-01 4.404737494135382292e-01
3.407797637199967422e-01 4.339759484766254616e-01
3.418203126166621253e-01 5.364341133681342910e-01
3.428608615133275084e-01 5.852873279358057346e-01
3.439014104099928915e-01 6.037434941745303263e-01
3.449419593066582745e-01 6.139444548054022732e-01
3.459825082033236576e-01 5.574764246227594811e-01
3.470230570999890407e-01 5.227551076165681820e-01
3.480636059966544238e-01 6.778082646499292707e-01
3.491041548933198069e-01 8.686666802708664648e-01
3.501447037899851900e-01 7.969380016209051121e-01
3.511852526866505730e-01 5.231877775670419339e-01
3.522258015833159561e-01 7.915162196668745764e-01
3.532663504799813392e-01 5.856271419118570520e-01
3.543068993766467223e-01 5.467590691213501941e-01
3.553474482733121054e-01 5.612899239616879754e-01
3.563879971699774885e-01 5.563158352505546134e-01
3.574285460666428715e-01 7.189756896766361649e-01
3.584690949633082546e-01 6.678575080927195984e-01
3.595096438599736377e-01 6.270330945257995836e-01
3.605501927566390208e-01 5.203459516414703501e-01
3.615907416533044039e-01 5.286513958909218047e-01
3.626312905499697870e-01 6.494976652227144598e-01
3.636718394466351700e-01 6.542895748707415748e-01
3.647123883433005531e-01 7.442509072421543692e-01
3.657529372399659362e-01 7.032304398953463931e-01
3.667934861366313193e-01 5.686781091358987794e-01
3.678340350332967024e-01 6.290899867206825036e-01
3.688745839299620854e-01 5.938855311527433400e-01
3.699151328266274685e-01 6.773253618220742567e-01
3.709556817232928516e-01 8.283531463918087923e-01
3.719962306199582347e-01 7.996996744183313410e-01
3.730367795166236178e-01 6.774857219874981240e-01
3.740773284132890009e-01 7.444738345185726303e-01
3.751178773099543839e-01 6.378816827909759013e-01
3.761584262066197670e-01 6.506168519892305824e-01
3.771989751032851501e-01 5.952209165911170885e-01
3.782395239999505332e-01 5.577672585764226199e-01
3.792800728966159163e-01 5.846393661020279353e-01
3.803206217932812994e-01 4.937470571129587427e-01
3.813611706899466824e-01 4.129892635067697881e-01
3.824017195866120655e-01 3.583324395283540298e-01
3.834422684832774486e-01 4.997883147326476205e-01
3.844828173799428317e-01 4.407127910702079987e-01
3.855233662766082148e-01 3.373807682159082333e-01
3.865639151732735979e-01 2.635955880908866789e-01
3.876044640699389809e-01 2.220300726167110383e-01
3.886450129666043640e-01 5.061260670340601564e-01
3.896855618632697471e-01 6.219636664902168377e-01
3.907261107599351302e-01 7.331750002717036807e-01
3.917666596566005133e-01 5.934299308043620158e-01
3.928072085532658964e-01 3.134486058151360055e-01
3.938477574499312794e-01 2.141004789370377637e-01
3.948883063465966625e-01 3.167152020801360379e-01
3.959288552432620456e-01 4.037320675127666902e-01
3.969694041399274287e-01 4.003217541122161549e-01
3.980099530365928118e-01 3.186131596645331854e-01
3.990505019332581949e-01 2.372365991021467835e-01
4.000910508299235779e-01 2.614930211119563808e-01
4.011315997265889610e-01 2.669040875705483984e-01
4.021721486232543441e-01 2.976284478562938318e-01
4.032126975199197272e-01 2.241985515466140555e-01
4.042532464165851103e-01 1.095875125983702958e-01
4.052937953132504934e-01 1.576583191165035203e-01
4.063343442099158764e-01 3.934869773267948290e-01
4.073748931065812595e-01 4.981942769030638374e-01
4.084154420032466426e-01 5.200835608922425024e-01
4.094559908999120257e-01 5.622772891286267338e-01
4.104965397965774088e-01 3.834967868318202022e-01
4.115370886932427918e-01 2.715032152276748434e-01
4.125776375899081749e-01 5.773642319419991509e-02
4.136181864865735580e-01 1.534262880124472872e-01
4.146587353832389411e-01 2.599668556292513699e-01
4.156992842799043242e-01 2.215289014243957411e-01
4.167398331765697073e-01 3.932576520807167242e-01
4.177803820732350903e-01 4.030261289236918287e-01
4.188209309699004734e-01 4.243874050126379416e-01
4.198614798665658565e-01 3.831147657549855978e-01
4.209020287632312396e-01 3.345205527278096724e-01
4.219425776598966227e-01 3.058149758424164588e-01
4.229831265565620058e-01 3.109469386246352940e-01
4.240236754532273888e-01 3.840874119738550974e-01
4.250642243498927719e-01 4.810061275865180619e-01
4.261047732465581550e-01 4.591361272521510273e-01
4.271453221432235381e-01 5.396672500361816560e-01
4.281858710398889212e-01 4.663843664359639263e-01
4.292264199365543043e-01 4.332753942077367526e-01
4.302669688332196873e-01 1.717736554958868567e-01
4.313075177298850704e-01 1.881083661104092641e-01
4.323480666265504535e-01 4.268075489369600461e-01
4.333886155232158366e-01 4.121871053176668909e-01
4.344291644198812197e-01 4.318945591907663584e-01
