# q (1/Angstrom), Intensity (arb)
2.029070354705860696e-02 1.329395481364498210e+03
2.133125244372399004e-02 1.330549929431572309e+03
2.237180134038937659e-02 1.320305994791185867e+03
2.341235023705475968e-02 1.308955604076037616e+03
2.445289913372014276e-02 1.299933173322847779e+03
2.549344803038552584e-02 1.292082774135046520e+03
2.653399692705091240e-02 1.275288646502999200e+03
2.757454582371629548e-02 1.263405751725382743e+03
2.861509472038167856e-02 1.250186685761008448e+03
2.965564361704706164e-02 1.234070166650063356e+03
3.069619251371244473e-02 1.218408762047734626e+03
3.173674141037782781e-02 1.195451288182084681e+03
3.277729030704321089e-02 1.180221518283762634e+03
3.381783920370859398e-02 1.166771072095540831e+03
3.485838810037397706e-02 1.148154020786963201e+03
3.589893699703936014e-02 1.128739498792971744e+03
3.693948589370474322e-02 1.109551975785275090e+03
3.798003479037012631e-02 1.089474171585887234e+03
3.902058368703550939e-02 1.069346687550978004e+03
4.006113258370089247e-02 1.047901736236984334e+03
4.110168148036627556e-02 1.025537645747487204e+03
4.214223037703165864e-02 1.004839708991360339e+03
4.318277927369704866e-02 9.853984228884776257e+02
4.422332817036243174e-02 9.609219056861896888e+02
4.526387706702781483e-02 9.380752697420132336e+02
4.630442596369319791e-02 9.181178135475538511e+02
4.734497486035858099e-02 8.977778647067790416e+02
4.838552375702396408e-02 8.765387189019760399e+02
4.942607265368934716e-02 8.528423471907058229e+02
5.046662155035473024e-02 8.320433838748006110e+02
5.150717044702011332e-02 8.097061194937318760e+02
5.254771934368549641e-02 7.865319519200533023e+02
5.358826824035087949e-02 7.642940755219539142e+02
5.462881713701626257e-02 7.421586235801978546e+02
5.566936603368164566e-02 7.233284951982292341e+02
5.670991493034702874e-02 7.007743148702591043e+02
5.775046382701241182e-02 6.800230385471689942e+02
5.879101272367779490e-02 6.604040611140347892e+02
5.983156162034317799e-02 6.386436942026975885e+02
6.087211051700856107e-02 6.163352853926472790e+02
6.191265941367394415e-02 5.968329919757030666e+02
6.295320831033933417e-02 5.765707122444154038e+02
6.399375720700471726e-02 5.553849041486516853e+02
6.503430610367010034e-02 5.358442961867702934e+02
6.607485500033548342e-02 5.152017637223787005e+02
6.711540389700086651e-02 4.936870292591258931e+02
6.815595279366624959e-02 4.752481554328591073e+02
6.919650169033163267e-02 4.574678071506675678e+02
7.023705058699701576e-02 4.397494780586872025e+02
7.127759948366239884e-02 4.227635164754507286e+02
7.231814838032778192e-02 4.043675028013398673e+02
7.335869727699316500e-02 3.875939954362274875e+02
7.439924617365854809e-02 3.709045692344170675e+02
7.543979507032393117e-02 3.536636556957117818e+02
7.648034396698931425e-02 3.383401091830013456e+02
7.752089286365469734e-02 3.227994733538951095e+02
7.856144176032008042e-02 3.076516690837055421e+02
7.960199065698546350e-02 2.950361409431461652e+02
8.064253955365084658e-02 2.797173682661235716e+02
8.168308845031622967e-02 2.643738180939449194e+02
8.272363734698161275e-02 2.501145855796890487e+02
8.376418624364699583e-02 2.369467115358550018e+02
8.480473514031239279e-02 2.238367298288493998e+02
8.584528403697777588e-02 2.122168621164836395e+02
8.688583293364315896e-02 2.006393195831267633e+02
8.792638183030854204e-02 1.886141209143369224e+02
8.896693072697392513e-02 1.776813193560550417e+02
9.000747962363930821e-02 1.677182280873430500e+02
9.104802852030469129e-02 1.573037920422519846e+02
9.208857741697007437e-02 1.471838738041466286e+02
9.312912631363545746e-02 1.382812248934568800e+02
9.416967521030084054e-02 1.293292761449434636e+02
9.521022410696622362e-02 1.208428219369283738e+02
9.625077300363160671e-02 1.123361368542209675e+02
9.729132190029698979e-02 1.044915142829114245e+02
9.833187079696237287e-02 9.673910391572802325e+01
9.937241969362775595e-02 8.938680932362373710e+01
1.004129685902931390e-01 8.234796748691209700e+01
1.014535174869585221e-01 7.565609304846465477e+01
1.024940663836239052e-01 6.915193797029670009e+01
1.035346152802892883e-01 6.369446682625022760e+01
1.045751641769546714e-01 5.846083682215430599e+01
1.056157130736200545e-01 5.290675710742110027e+01
1.066562619702854375e-01 4.804303399402730435e+01
1.076968108669508206e-01 4.374074076165426561e+01
1.087373597636162037e-01 3.991442790333368151e+01
1.097779086602815868e-01 3.546227993110218790e+01
1.108184575569469699e-01 3.160026891466910115e+01
1.118590064536123529e-01 2.830222016620710690e+01
1.128995553502777360e-01 2.576121764513315782e+01
1.139401042469431191e-01 2.304292976343862875e+01
1.149806531436085022e-01 2.041284268475661889e+01
1.160212020402738853e-01 1.812168772434591801e+01
1.170617509369392684e-01 1.528651777573166015e+01
1.181022998336046514e-01 1.327005330583890697e+01
1.191428487302700345e-01 1.173927002218212579e+01
1.201833976269354176e-01 9.794403272330043819e+00
1.212239465236008007e-01 8.253118225627858351e+00
1.222644954202661838e-01 7.348661842476900574e+00
1.233050443169315669e-01 6.154273997836114063e+00
1.243455932135969499e-01 5.360996274768346836e+00
1.253861421102623330e-01 4.648873200842963627e+00
1.264266910069277161e-01 3.775599447365550532e+00
1.274672399035930992e-01 3.165840525998760313e+00
1.285077888002584823e-01 2.783952913685645569e+00
1.295483376969238654e-01 2.222194991276943199e+00
1.305888865935892484e-01 1.746188798784345408e+00
1.316294354902546315e-01 1.584190192450272150e+00
1.326699843869200146e-01 1.793504264421514449e+00
1.337105332835853977e-01 1.985804875773048650e+00
1.347510821802507808e-01 2.132322802290431696e+00
1.357916310769161639e-01 2.089979517312261947e+00
1.368321799735815469e-01 2.276768267443522120e+00
1.378727288702469300e-01 2.575399224476939253e+00
1.389132777669123131e-01 2.766139661646256798e+00
1.399538266635776962e-01 2.911828147252325749e+00
1.409943755602430793e-01 3.297564353927548098e+00
1.420349244569084624e-01 3.823604813804703184e+00
1.430754733535738454e-01 4.303852050972349019e+00
1.441160222502392285e-01 4.498002976710878897e+00
1.451565711469046116e-01 4.692902087332509353e+00
1.461971200435699947e-01 5.293657319417743423e+00
1.472376689402353778e-01 5.905826203576097555e+00
1.482782178369007609e-01 6.148466590673450582e+00
1.493187667335661439e-01 6.340768408525388367e+00
1.503593156302315270e-01 6.561820892796387028e+00
1.513998645268969101e-01 6.880221452554710737e+00
1.524404134235622932e-01 7.662890206946190830e+00
1.534809623202276763e-01 8.073603162019910684e+00
1.545215112168930593e-01 8.321117544236283692e+00
1.555620601135584424e-01 8.471894789229430955e+00
1.566026090102238255e-01 8.701077261213725933e+00
1.576431579068892086e-01 9.085270697469866263e+00
1.586837068035545917e-01 9.588870032548044264e+00
1.597242557002199748e-01 9.422630505564793424e+00
1.607648045968853578e-01 9.752169276031551703e+00
1.618053534935507409e-01 9.974560901202124796e+00
1.628459023902161240e-01 9.860767919387516400e+00
1.638864512868815071e-01 1.028599039280063110e+01
1.649270001835468902e-01 1.042300692300457854e+01
1.659675490802122733e-01 1.043616950939319921e+01
1.670080979768776563e-01 1.029735256249526643e+01
1.680486468735430672e-01 1.078876463667996788e+01
1.690891957702084503e-01 1.092613731589438686e+01
1.701297446668738333e-01 1.048688989336870847e+01
1.711702935635392164e-01 1.060906888609167709e+01
1.722108424602045995e-01 1.045551810679673821e+01
1.732513913568699826e-01 1.052113725692792912e+01
1.742919402535353657e-01 1.040334242313847213e+01
1.753324891502007488e-01 1.015238087786168464e+01
1.763730380468661318e-01 1.015714195069629255e+01
1.774135869435315149e-01 9.763372985387793079e+00
1.784541358401968980e-01 9.192465263300423572e+00
1.794946847368622811e-01 9.120565651628041337e+00
1.805352336335276642e-01 9.080848914211198775e+00
1.815757825301930473e-01 9.013043893566006659e+00
1.826163314268584303e-01 8.950886286442774065e+00
1.836568803235238134e-01 8.906940407819057270e+00
1.846974292201891965e-01 8.482570914360266556e+00
1.857379781168545796e-01 7.988592134363763364e+00
1.867785270135199627e-01 7.771569650554173592e+00
1.878190759101853458e-01 7.318184786211240578e+00
1.888596248068507288e-01 7.022166614940147156e+00
1.899001737035161119e-01 6.834589369229171041e+00
1.909407226001814950e-01 6.672912856772008183e+00
1.919812714968468781e-01 6.564480806104075583e+00
1.930218203935122612e-01 6.040190918412942978e+00
1.940623692901776443e-01 5.730299555908779041e+00
1.951029181868430273e-01 5.541839904104552517e+00
1.961434670835084104e-01 5.458042349527676862e+00
1.971840159801737935e-01 4.992196408486396564e+00
1.982245648768391766e-01 4.150352798915559305e+00
1.992651137735045597e-01 3.908501402341180153e+00
2.003056626701699428e-01 3.721896611859971671e+00
2.013462115668353813e-01 3.593802616630668467e+00
2.023867604635007644e-01 3.472036077564709444e+00
2.034273093601661475e-01 3.201352569624297928e+00
2.044678582568315306e-01 2.879475705349658909e+00
2.055084071534969137e-01 2.780632807669352502e+00
2.065489560501622968e-01 2.544142150146651460e+00
2.075895049468276798e-01 2.297875861068998660e+00
2.086300538434930629e-01 2.070618681869426325e+00
2.096706027401584460e-01 1.935424005762108379e+00
2.107111516368238291e-01 1.785716678650953071e+00
2.117517005334892122e-01 1.659417602762200517e+00
2.127922494301545953e-01 1.810435214443408825e+00
2.138327983268199783e-01 1.571379482645156145e+00
2.148733472234853614e-01 1.256619339275950153e+00
2.159138961201507445e-01 9.902075082726859989e-01
2.169544450168161276e-01 8.446064494942824297e-01
2.179949939134815107e-01 7.326772015950311356e-01
2.190355428101468938e-01 9.408202452043177288e-01
2.200760917068122768e-01 7.718248511270786594e-01
2.211166406034776599e-01 6.537075037887554174e-01
2.221571895001430430e-01 9.281007429626200178e-01
2.231977383968084261e-01 6.437410605623661297e-01
2.242382872934738092e-01 4.406486950045724882e-01
2.252788361901391923e-01 3.828351556548454937e-01
2.263193850868045753e-01 3.615752719700751072e-01
2.273599339834699584e-01 4.074767990737448997e-01
2.284004828801353415e-01 1.556096780042182104e-01
2.294410317768007246e-01 1.068953726247130476e-01
2.304815806734661077e-01 2.243783592631167778e-01
2.315221295701314908e-01 5.492353458954077894e-01
2.325626784667968738e-01 9.106446434797632605e-01
2.336032273634622569e-01 9.340223196595403010e-01
2.346437762601276400e-01 8.075566745548456993e-01
2.356843251567930231e-01 6.385513401443887460e-01
2.367248740534584062e-01 6.134959610705514876e-01
2.377654229501237892e-01 6.039867229808315585e-01
2.388059718467891723e-01 7.371633077784665034e-01
2.398465207434545554e-01 8.782761858435534918e-01
2.408870696401199385e-01 7.613606937412527031e-01
2.419276185367853216e-01 6.186015102479629491e-01
2.429681674334507047e-01 7.679384519865557479e-01
2.440087163301160877e-01 1.094987749051377079e+00
2.450492652267814708e-01 1.214525526966315994e+00
2.460898141234468539e-01 1.287361927022665498e+00
2.471303630201122370e-01 1.342361426432084670e+00
2.481709119167776201e-01 1.230520508442243255e+00
2.492114608134430032e-01 7.800921363439883294e-01
2.502520097101083585e-01 1.069088720974228579e+00
2.512925586067737416e-01 1.351168231859677604e+00
2.523331075034391247e-01 1.100377328822524703e+00
2.533736564001045077e-01 1.237246302259478625e+00
2.544142052967698908e-01 1.514608650904634146e+00
2.554547541934352739e-01 1.537255959570504871e+00
2.564953030901006570e-01 1.601094745568495625e+00
2.575358519867660401e-01 1.538065225847468298e+00
2.585764008834314231e-01 1.728010566696116967e+00
2.596169497800968062e-01 1.785553279979232855e+00
2.606574986767621893e-01 1.768454400891258160e+00
2.616980475734275724e-01 1.829875384645205827e+00
2.627385964700929555e-01 1.569578431573656729e+00
2.637791453667583386e-01 1.590351785201029600e+00
2.648196942634237216e-01 1.798557704659820899e+00
2.658602431600891047e-01 1.830705097264424097e+00
2.669007920567544878e-01 1.769336513581858839e+00
2.679413409534198709e-01 1.484023500851023414e+00
2.689818898500852540e-01 1.460193629485967648e+00
2.700224387467506371e-01 1.742154879670390955e+00
2.710629876434160201e-01 1.709007116610525401e+00
2.721035365400814032e-01 1.686400417784433614e+00
2.731440854367467863e-01 1.808520659169658984e+00
2.741846343334121694e-01 1.797801246036566880e+00
2.752251832300775525e-01 1.660306729718865171e+00
2.762657321267429356e-01 1.388914862037299969e+00
2.773062810234083186e-01 1.433733604873459910e+00
2.783468299200737017e-01 1.371306449317184928e+00
2.793873788167390848e-01 1.253845960040624874e+00
2.804279277134044679e-01 1.191264161261628374e+00
2.814684766100698510e-01 1.115650841860546194e+00
2.825090255067352341e-01 1.099742918632347966e+00
2.835495744034006171e-01 1.300129694270609093e+00
2.845901233000660002e-01 1.248966657914326817e+00
2.856306721967313833e-01 1.190725779222951530e+00
2.866712210933967664e-01 1.042490570953052753e+00
2.877117699900621495e-01 9.815987646358408369e-01
2.887523188867275326e-01 1.005884390983432297e+00
2.897928677833929156e-01 1.046449323896855077e+00
2.908334166800582987e-01 1.104714296117165873e+00
2.918739655767236818e-01 1.258939180143016756e+00
2.929145144733890649e-01 1.252302463254913789e+00
2.939550633700544480e-01 8.940178136976939527e-01
2.949956122667198311e-01 7.182479766958387302e-01
2.960361611633852141e-01 6.962650331949831184e-01
2.970767100600505972e-01 7.887615564157961501e-01
2.981172589567159803e-01 6.240272454532949098e-01
2.991578078533813634e-01 6.733181733228121857e-01
3.001983567500468020e-01 6.776773817179844173e-01
3.012389056467121851e-01 6.343648716784962005e-01
3.022794545433775681e-01 5.477097991485813111e-01
3.033200034400429512e-01 4.779983183223670551e-01
3.043605523367083343e-01 6.635068343406480551e-01
3.054011012333737174e-01 5.828509924465770098e-01
3.064416501300391005e-01 5.472568687596819359e-01
3.074821990267044836e-01 5.170244749631791592e-01
3.085227479233698666e-01 5.674229297773223379e-01
3.095632968200352497e-01 3.186636247323129112e-01
3.106038457167006328e-01 3.915806455026142885e-01
3.116443946133660159e-01 3.242209283402566200e-01
3.126849435100313990e-01 7.090685841435728776e-02
3.137254924066967821e-01 1.079543358802830255e-01
3.147660413033621651e-01 5.785440669199104491e-02
3.158065902000275482e-01 2.970220969148087420e-01
3.168471390966929313e-01 4.486760442521529058e-01
3.178876879933583144e-01 5.094927203275219085e-01
3.189282368900236975e-01 2.600203467834134585e-01
3.199687857866890806e-01 2.616333487829756166e-01
3.210093346833544636e-01 3.297029010142402683e-01
3.220498835800198467e-01 2.727975591814448819e-01
3.230904324766852298e-01 2.167717360387015901e-01
3.241309813733506129e-01 2.607314178861699361e-01
3.251715302700159960e-01 2.695566835999763100e-01
3.262120791666813790e-01 4.181568651549838478e-02
3.272526280633467621e-01 1.597029574657931050e-01
3.282931769600121452e-01 3.440112512641491094e-01
3.293337258566775283e-01 4.719716278166323775e-01
3.303742747533429114e-01 4.131744412315114801e-01
3.314148236500082945e-01 4.133506697975839472e-01
3.324553725466736775e-01 5.124573584731244580e-01
3.334959214433390606e-01 3.948686034158974678e-01
3.345364703400044437e-01 2.309302044994332448e-01
3.355770192366698268e-01 2.086730456238257148e-01
3.366175681333352099e-01 2.729475727023604748e-01
3.376581170300005930e-01 3.941657613992504139e-01
3.386986659266659760e-01 3.062463626514428938e-01
3.397392148233313591e-01 2.625633748918332344e-01
3.407797637199967422e-01 4.198969117737156864e-01
3.418203126166621253e-01 4.692589708459848907e-01
3.428608615133275084e-01 3.255464700684989054e-01
3.439014104099928915e-01 4.555518704433048072e-01
3.449419593066582745e-01 3.459122498135762669e-01
3.459825082033236576e-01 5.115899068123148652e-01
3.470230570999890407e-01 3.932481085800532128e-01
3.480636059966544238e-01 5.209770831017408454e-01
3.491041548933198069e-01 4.734604797097006212e-01
3.501447037899851900e-01 7.140123972104177597e-01
3.511852526866505730e-01 5.836185332082948207e-01
3.522258015833159561e-01 6.590515987604277370e-01
3.532663504799813392e-01 9.456172513255260981e-01
3.543068993766467223e-01 9.247609745246627710e-01
3.553474482733121054e-01 6.342648378516031471e-01
3.563879971699774885e-01 6.085738610023341266e-01
3.574285460666428715e-01 4.063178823984259225e-01
3.584690949633082546e-01 4.303316208397554021e-01
3.595096438599736377e-01 5.720473049600194315e-01
3.605501927566390208e-01 5.285621548794061653e-01
3.615907416533044039e-01 6.235915734362365015e-01
3.626312905499697870e-01 7.633391459744913732e-01
3.636718394466351700e-01 5.645724811843457758e-01
3.647123883433005531e-01 3.066329196133459334e-01
3.657529372399659362e-01 2.829601623460327176e-01
3.667934861366313193e-01 5.336945747120935835e-01
3.678340350332967024e-01 5.405645092070301416e-01
3.688745839299620854e-01 3.337620064312751822e-01
3.699151328266274685e-01 4.013135191984993355e-01
3.709556817232928516e-01 3.577202822613294586e-01
3.719962306199582347e-01 4.312705001317951314e-01
3.730367795166236178e-01 4.585292519999235594e-01
3.740773284132890009e-01 4.985418089223649929e-01
3.751178773099543839e-01 4.024871558467744137e-01
3.761584262066197670e-01 3.970763475052088154e-01
3.771989751032851501e-01 4.590894415574453546e-01
3.782395239999505332e-01 5.852282338589525068e-01
3.792800728966159163e-01 3.931312429488684757e-01
3.803206217932812994e-01 3.584865777464649739e-01
3.813611706899466824e-01 3.414964157914290865e-01
3.824017195866120655e-01 2.858844227014465389e-01
3.834422684832774486e-01 3.665554080925872427e-01
3.844828173799428317e-01 4.233565738654441191e-01
3.855233662766082148e-01 3.567647014538799510e-01
3.865639151732735979e-01 2.433186609182627080e-01
3.876044640699389809e-01 1.904353222841308479e-01
3.886450129666043640e-01 2.394773468836213226e-01
3.896855618632697471e-01 2.962025482647590024e-01
3.907261107599351302e-01 1.129100763806825114e-01
3.917666596566005133e-01 2.941378901586588768e-01
3.928072085532658964e-01 4.951168881066578820e-01
3.938477574499312794e-01 4.745948641640573840e-01
3.948883063465966625e-01 3.284106578829799616e-01
3.959288552432620456e-01 3.996311466149897740e-01
3.969694041399274287e-01 4.682620867595268521e-01
3.980099530365928118e-01 3.984195996484913849e-01
3.990505019332581949e-01 1.008741442867382432e-01
4.000910508299235779e-01 9.371116734643081259e-02
4.011315997265889610e-01 2.489646927655080333e-01
4.021721486232543441e-01 1.871881588772339455e-01
4.032126975199197272e-01 2.405591262619815041e-01
4.042532464165851103e-01 1.964981609375762162e-01
4.052937953132504934e-01 2.612931808783187648e-01
4.063343442099158764e-01 2.067716929072922483e-01
4.073748931065812595e-01 1.664918888517235018e-01
4.084154420032466426e-01 3.754186560492591695e-01
4.094559908999120257e-01 3.214866283582828999e-01
4.104965397965774088e-01 2.653928487008911929e-01
4.115370886932427918e-01 2.224982232147922900e-01
4.125776375899081749e-01 2.771591226689977816e-01
4.136181864865735580e-01 3.186059692681908473e-01
4.146587353832389411e-01 2.795416888344846029e-01
4.156992842799043242e-01 1.160563146859452388e-01
4.167398331765697073e-01 1.335382178467767744e-01
4.177803820732350903e-01 1.912922490258956998e-01
4.188209309699004734e-01 2.419166985839069639e-01
4.198614798665658565e-01 2.962784618846860951e-01
4.209020287632312396e-01 3.878059548778161059e-01
4.219425776598966227e-01 3.799779239854110813e-01
4.229831265565620058e-01 3.620985149073021603e-01
4.240236754532273888e-01 1.330893879789947221e-01
4.250642243498927719e-01 1.475401824974653664e-02
4.261047732465581550e-01 2.279293796452783738e-01
4.271453221432235381e-01 3.801350741115783194e-01
4.281858710398889212e-01 1.759246879535822927e-01
4.292264199365543043e-01 3.346882229896159799e-01
4.302669688332196873e-01 2.755603066791358913e-01
4.313075177298850704e-01 1.151291955592625982e-01
4.323480666265504535e-01 2.862963571652734629e-01
4.333886155232158366e-01 2.401701839522374371e-01
4.344291644198812197e-01 3.143562046455095071e-01
