# q (1/Angstrom), Intensity (arb)
2.029070354705860696e-02 1.268626143462811115e+03
2.133125244372399004e-02 1.268953721853249590e+03
2.237180134038937659e-02 1.263251972923311996e+03
2.341235023705475968e-02 1.256390366645176073e+03
2.445289913372014276e-02 1.251405871298593638e+03
2.549344803038552584e-02 1.241632612345271355e+03
2.653399692705091240e-02 1.227993245568732164e+03
2.757454582371629548e-02 1.210808359369649452e+03
2.861509472038167856e-02 1.200376625601089700e+03
2.965564361704706164e-02 1.190907059113479590e+03
3.069619251371244473e-02 1.172973713905902059e+03
3.173674141037782781e-02 1.156321431322518947e+03
3.277729030704321089e-02 1.135949300964688973e+03
3.381783920370859398e-02 1.119783747598503624e+03
3.485838810037397706e-02 1.104742638539933978e+03
3.589893699703936014e-02 1.088173624493941134e+03
3.693948589370474322e-02 1.070771126360878952e+03
3.798003479037012631e-02 1.054907449306425178e+03
3.902058368703550939e-02 1.032528591626964953e+03
4.006113258370089247e-02 1.010907879200770481e+03
4.110168148036627556e-02 9.914662412289941358e+02
4.214223037703165864e-02 9.700832605891587264e+02
4.318277927369704866e-02 9.465570214131862485e+02
4.422332817036243174e-02 9.283333866456989654e+02
4.526387706702781483e-02 9.071958321948848152e+02
4.630442596369319791e-02 8.889794279393257739e+02
4.734497486035858099e-02 8.674456130203415114e+02
4.838552375702396408e-02 8.454823029605695410e+02
4.942607265368934716e-02 8.259922766284698810e+02
5.046662155035473024e-02 8.053846252945231754e+02
5.150717044702011332e-02 7.853287535586216563e+02
5.254771934368549641e-02 7.611055923591630972e+02
5.358826824035087949e-02 7.420512043881815316e+02
5.462881713701626257e-02 7.215748044758315700e+02
5.566936603368164566e-02 7.008349280895030233e+02
5.670991493034702874e-02 6.814761254129384724e+02
5.775046382701241182e-02 6.602209895987757591e+02
5.879101272367779490e-02 6.386926989112322417e+02
5.983156162034317799e-02 6.166575615830826109e+02
6.087211051700856107e-02 5.949005102618173169e+02
6.191265941367394415e-02 5.756145982224820727e+02
6.295320831033933417e-02 5.583313306636074458e+02
6.399375720700471726e-02 5.407601165487277513e+02
6.503430610367010034e-02 5.211086762808897674e+02
6.607485500033548342e-02 5.009532862213945918e+02
6.711540389700086651e-02 4.819571887564292751e+02
6.815595279366624959e-02 4.637484051374657383e+02
6.919650169033163267e-02 4.461540441351965569e+02
7.023705058699701576e-02 4.291694559735301482e+02
7.127759948366239884e-02 4.112702362714377955e+02
7.231814838032778192e-02 3.955090886654636506e+02
7.335869727699316500e-02 3.794765665511308157e+02
7.439924617365854809e-02 3.618858364184185348e+02
7.543979507032393117e-02 3.463500512434845291e+02
7.648034396698931425e-02 3.312529053246354351e+02
7.752089286365469734e-02 3.145078655908782252e+02
7.856144176032008042e-02 3.002741967283033091e+02
7.960199065698546350e-02 2.866472464249237646e+02
8.064253955365084658e-02 2.722499917345494964e+02
8.168308845031622967e-02 2.581393548696494804e+02
8.272363734698161275e-02 2.449461906677665297e+02
8.376418624364699583e-02 2.320200464849215507e+02
8.480473514031239279e-02 2.194813034840940418e+02
8.584528403697777588e-02 2.091818422346887871e+02
8.688583293364315896e-02 1.979001374434068339e+02
8.792638183030854204e-02 1.863175976390945152e+02
8.896693072697392513e-02 1.750908189286093375e+02
9.000747962363930821e-02 1.644436475133245494e+02
9.104802852030469129e-02 1.543436530784479714e+02
9.208857741697007437e-02 1.448682612720775751e+02
9.312912631363545746e-02 1.356656759308784217e+02
9.416967521030084054e-02 1.263706994226544396e+02
9.521022410696622362e-02 1.178082390901808054e+02
9.625077300363160671e-02 1.099616648335161813e+02
9.729132190029698979e-02 1.028988796419038039e+02
9.833187079696237287e-02 9.486737399286224104e+01
9.937241969362775595e-02 8.753738488400964002e+01
1.004129685902931390e-01 8.159039771209457115e+01
1.014535174869585221e-01 7.528922872050175386e+01
1.024940663836239052e-01 6.940504161893849755e+01
1.035346152802892883e-01 6.338256356902674327e+01
1.045751641769546714e-01 5.807548235552516758e+01
1.056157130736200545e-01 5.271610208916072793e+01
1.066562619702854375e-01 4.839431256135817705e+01
1.076968108669508206e-01 4.398257536765946440e+01
1.087373597636162037e-01 4.025513433873489078e+01
1.097779086602815868e-01 3.650678325770164889e+01
1.108184575569469699e-01 3.203807752439105627e+01
1.118590064536123529e-01 2.897746684817076002e+01
1.128995553502777360e-01 2.621872031371882983e+01
1.139401042469431191e-01 2.296775855230550789e+01
1.149806531436085022e-01 2.052671008431518374e+01
1.160212020402738853e-01 1.854052792910518122e+01
1.170617509369392684e-01 1.613380746004898825e+01
1.181022998336046514e-01 1.405761499504007972e+01
1.191428487302700345e-01 1.213733887453900095e+01
1.201833976269354176e-01 1.047713346102261411e+01
1.212239465236008007e-01 8.896431267623579942e+00
1.222644954202661838e-01 7.521163837554848186e+00
1.233050443169315669e-01 7.016009193185833936e+00
1.243455932135969499e-01 5.836537279237266063e+00
1.253861421102623330e-01 4.689914870265518232e+00
1.264266910069277161e-01 4.608108383413238585e+00
1.274672399035930992e-01 3.839535683341829042e+00
1.285077888002584823e-01 3.334622864353978144e+00
1.295483376969238654e-01 2.818321359936948767e+00
1.305888865935892484e-01 2.459236521553943788e+00
1.316294354902546315e-01 2.272243312704365081e+00
1.326699843869200146e-01 2.600837838179536732e+00
1.337105332835853977e-01 2.170256990284947562e+00
1.347510821802507808e-01 2.251434158212600067e+00
1.357916310769161639e-01 2.111285966459654162e+00
1.368321799735815469e-01 2.577710046591974447e+00
1.378727288702469300e-01 2.872059688418318046e+00
1.389132777669123131e-01 3.258490886217181526e+00
1.399538266635776962e-01 3.290916469387109800e+00
1.409943755602430793e-01 3.336654537107975216e+00
1.420349244569084624e-01 3.895986074548723366e+00
1.430754733535738454e-01 4.346341368806907468e+00
1.441160222502392285e-01 4.693747194118465416e+00
1.451565711469046116e-01 4.838236048235412312e+00
1.461971200435699947e-01 5.236436414858502530e+00
1.472376689402353778e-01 5.839244265635894493e+00
1.482782178369007609e-01 6.257872837922683118e+00
1.493187667335661439e-01 6.506023556635131655e+00
1.503593156302315270e-01 6.762104709629888077e+00
1.513998645268969101e-01 7.340102752305057265e+00
1.524404134235622932e-01 7.574448462353934985e+00
1.534809623202276763e-01 8.067044657870056312e+00
1.545215112168930593e-01 8.439461673779266704e+00
1.555620601135584424e-01 9.025917154480382010e+00
1.566026090102238255e-01 9.517043480757134688e+00
1.576431579068892086e-01 9.544865068707785838e+00
1.586837068035545917e-01 9.744862217847508390e+00
1.597242557002199748e-01 9.855336240179806140e+00
1.607648045968853578e-01 1.023028397052084770e+01
1.618053534935507409e-01 1.064617159112901490e+01
1.628459023902161240e-01 1.054182801835442973e+01
1.638864512868815071e-01 1.047891688002645338e+01
1.649270001835468902e-01 1.047497950310566139e+01
1.659675490802122733e-01 1.069993430655202360e+01
1.670080979768776563e-01 1.075100331525232633e+01
1.680486468735430672e-01 1.087040959050401767e+01
1.690891957702084503e-01 1.094950749870039175e+01
1.701297446668738333e-01 1.115739990069486609e+01
1.711702935635392164e-01 1.076486112190330857e+01
1.722108424602045995e-01 1.056170292346907758e+01
1.732513913568699826e-01 1.063084629894862587e+01
1.742919402535353657e-01 1.073654100467777894e+01
1.753324891502007488e-01 1.050959475693003853e+01
1.763730380468661318e-01 1.036085313434378108e+01
1.774135869435315149e-01 9.854176631944046250e+00
1.784541358401968980e-01 9.492233884385520071e+00
1.794946847368622811e-01 9.378069091865942397e+00
1.805352336335276642e-01 9.279838839053645927e+00
1.815757825301930473e-01 9.316039754262337880e+00
1.826163314268584303e-01 8.994635176428154466e+00
1.836568803235238134e-01 8.634134470335073530e+00
1.846974292201891965e-01 8.541757176731881174e+00
1.857379781168545796e-01 8.337279537771188132e+00
1.867785270135199627e-01 7.710435703913006478e+00
1.878190759101853458e-01 7.705268302822705806e+00
1.888596248068507288e-01 7.673506820469349066e+00
1.899001737035161119e-01 7.163995084520042411e+00
1.909407226001814950e-01 7.042263985397589465e+00
1.919812714968468781e-01 6.585632683117871977e+00
1.930218203935122612e-01 6.496101206597309385e+00
1.940623692901776443e-01 6.187949204710182727e+00
1.951029181868430273e-01 5.776192887303970736e+00
1.961434670835084104e-01 5.506773861287147298e+00
1.971840159801737935e-01 5.225516458202957182e+00
1.982245648768391766e-01 4.886726279181218047e+00
1.992651137735045597e-01 4.516952571499448510e+00
2.003056626701699428e-01 4.291950508190105040e+00
2.013462115668353813e-01 4.167979721432121920e+00
2.023867604635007644e-01 3.804331014295332380e+00
2.034273093601661475e-01 3.539404670292377375e+00
2.044678582568315306e-01 3.425085231774804839e+00
2.055084071534969137e-01 3.246063771766490191e+00
2.065489560501622968e-01 2.887225103120186986e+00
2.075895049468276798e-01 2.548410146878545390e+00
2.086300538434930629e-01 2.486614483102769668e+00
2.096706027401584460e-01 2.485811307704921091e+00
2.107111516368238291e-01 2.549471991351751399e+00
2.117517005334892122e-01 2.211760039109581299e+00
2.127922494301545953e-01 1.976802503760403340e+00
2.138327983268199783e-01 1.531157105562389376e+00
2.148733472234853614e-01 1.721472574941419253e+00
2.159138961201507445e-01 1.782755560377147219e+00
2.169544450168161276e-01 1.464221080772510675e+00
2.179949939134815107e-01 1.315223260190883536e+00
2.190355428101468938e-01 1.310986109260959154e+00
2.200760917068122768e-01 1.233785502912386534e+00
2.211166406034776599e-01 9.905347555702697093e-01
2.221571895001430430e-01 8.001945006405399852e-01
2.231977383968084261e-01 9.264272969047198103e-01
2.242382872934738092e-01 6.700891349052113810e-01
2.252788361901391923e-01 8.653131840008825293e-01
2.263193850868045753e-01 7.244929520847698257e-01
2.273599339834699584e-01 7.421673363538445756e-01
2.284004828801353415e-01 1.033822194768951874e+00
2.294410317768007246e-01 1.026889110722077447e+00
2.304815806734661077e-01 8.746044336643841177e-01
2.315221295701314908e-01 1.056052259546454763e+00
2.325626784667968738e-01 1.043366052115199949e+00
2.336032273634622569e-01 9.545452710915718342e-01
2.346437762601276400e-01 9.198581381430415149e-01
2.356843251567930231e-01 9.856734753891736034e-01
2.367248740534584062e-01 1.461168042894033903e+00
2.377654229501237892e-01 1.232845026715395420e+00
2.388059718467891723e-01 9.060950963370366651e-01
2.398465207434545554e-01 1.110753173223361756e+00
2.408870696401199385e-01 1.154736890560013052e+00
2.419276185367853216e-01 1.022457961197762444e+00
2.429681674334507047e-01 1.268656897427625552e+00
2.440087163301160877e-01 1.224053756590322450e+00
2.450492652267814708e-01 1.204397002420794394e+00
2.460898141234468539e-01 1.400770585239236254e+00
2.471303630201122370e-01 1.410757097525220161e+00
2.481709119167776201e-01 1.540912808917855870e+00
2.492114608134430032e-01 1.673060405834540632e+00
2.502520097101083585e-01 1.698176022387343664e+00
2.512925586067737416e-01 1.660863892484435667e+00
2.523331075034391247e-01 1.755789948257380217e+00
2.533736564001045077e-01 1.976633106790959715e+00
2.544142052967698908e-01 1.979813058572901241e+00
2.554547541934352739e-01 1.769018712889721456e+00
2.564953030901006570e-01 1.698257321846114110e+00
2.575358519867660401e-01 1.839730303220129315e+00
2.585764008834314231e-01 2.043355656736846271e+00
2.596169497800968062e-01 2.079590132734374208e+00
2.606574986767621893e-01 2.051612893808130167e+00
2.616980475734275724e-01 1.876203376160386682e+00
2.627385964700929555e-01 1.954167709393416885e+00
2.637791453667583386e-01 2.058394093786130696e+00
2.648196942634237216e-01 2.060718222417332157e+00
2.658602431600891047e-01 1.896298403650732212e+00
2.669007920567544878e-01 1.702317937790681412e+00
2.679413409534198709e-01 1.757332255720971403e+00
2.689818898500852540e-01 1.832226957770366482e+00
2.700224387467506371e-01 1.911519304657289808e+00
2.710629876434160201e-01 2.037182568859076781e+00
2.721035365400814032e-01 1.786033608372118664e+00
2.731440854367467863e-01 1.877941367196850564e+00
2.741846343334121694e-01 1.978749872496912587e+00
2.752251832300775525e-01 1.968362350867487010e+00
2.762657321267429356e-01 1.843740572907233144e+00
2.773062810234083186e-01 1.724346164133478965e+00
2.783468299200737017e-01 1.650197913193306221e+00
2.793873788167390848e-01 1.746550493432017959e+00
2.804279277134044679e-01 1.807703874789886811e+00
2.814684766100698510e-01 1.476843476447726289e+00
2.825090255067352341e-01 1.456601492476391257e+00
2.835495744034006171e-01 1.453789574920584471e+00
2.845901233000660002e-01 1.500393218842742016e+00
2.856306721967313833e-01 1.418576996827532355e+00
2.866712210933967664e-01 1.517479677020475037e+00
2.877117699900621495e-01 1.407420054386150809e+00
2.887523188867275326e-01 1.329990100166316580e+00
2.897928677833929156e-01 1.106090771355908942e+00
2.908334166800582987e-01 1.090210902647338997e+00
2.918739655767236818e-01 1.160570450375228546e+00
2.929145144733890649e-01 1.109719528377649311e+00
2.939550633700544480e-01 9.803224305617987966e-01
2.949956122667198311e-01 1.302171688208698441e+00
2.960361611633852141e-01 1.074047497070324653e+00
2.970767100600505972e-01 7.516034782244034318e-01
2.981172589567159803e-01 7.635589328100778062e-01
2.991578078533813634e-01 7.121964581668365213e-01
3.001983567500468020e-01 7.658373699139815471e-01
3.012389056467121851e-01 1.006182688774529765e+00
3.022794545433775681e-01 9.864668370297877686e-01
3.033200034400429512e-01 6.307642034601279590e-01
3.043605523367083343e-01 7.389929135770714197e-01
3.054011012333737174e-01 8.277547818851509476e-01
3.064416501300391005e-01 6.764296740384097006e-01
3.074821990267044836e-01 7.323685675794706640e-01
3.085227479233698666e-01 8.370229391274897068e-01
3.095632968200352497e-01 7.099543387729845278e-01
3.106038457167006328e-01 7.593641984452119686e-01
3.116443946133660159e-01 7.066934061381786591e-01
3.126849435100313990e-01 4.542344585290187808e-01
3.137254924066967821e-01 3.252910774291848384e-01
3.147660413033621651e-01 4.777769088981500545e-01
3.158065902000275482e-01 5.307000887986674798e-01
3.168471390966929313e-01 5.958438237097638535e-01
3.178876879933583144e-01 4.973079588864521838e-01
3.189282368900236975e-01 4.270798688569712453e-01
3.199687857866890806e-01 5.988507624630727832e-01
3.210093346833544636e-01 4.954823914282613373e-01
3.220498835800198467e-01 3.976021542293537436e-01
3.230904324766852298e-01 3.322407325565635006e-01
3.241309813733506129e-01 5.033376685891148838e-01
3.251715302700159960e-01 6.981701066096199781e-01
3.262120791666813790e-01 4.848180512786228746e-01
3.272526280633467621e-01 5.524776681780991794e-01
3.282931769600121452e-01 6.363946592784479606e-01
3.293337258566775283e-01 5.985720740287625574e-01
3.303742747533429114e-01 6.967087643835867539e-01
3.314148236500082945e-01 3.955758044232062787e-01
3.324553725466736775e-01 5.203941715528834777e-01
3.334959214433390606e-01 5.239693759141346163e-01
3.345364703400044437e-01 5.399222245247976559e-01
3.355770192366698268e-01 7.012015501669672801e-01
3.366175681333352099e-01 6.323575832790169216e-01
3.376581170300005930e-01 6.293999806938614938e-01
3.386986659266659760e-01 6.892369530780122489e-01
3.397392148233313591e-01 6.365114450072759666e-01
3.407797637199967422e-01 6.284596861310198790e-01
3.418203126166621253e-01 5.559341244275550764e-01
3.428608615133275084e-01 5.505458367530806640e-01
3.439014104099928915e-01 6.518595123722548124e-01
3.449419593066582745e-01 6.871008198977328618e-01
3.459825082033236576e-01 7.411184203335707821e-01
3.470230570999890407e-01 7.295209082421543201e-01
3.480636059966544238e-01 5.153079869226431242e-01
3.491041548933198069e-01 4.380327902833265341e-01
3.501447037899851900e-01 6.076966441597768664e-01
3.511852526866505730e-01 5.974075772573144150e-01
3.522258015833159561e-01 5.072418802907741053e-01
3.532663504799813392e-01 5.744852401048490265e-01
3.543068993766467223e-01 6.982873835223202263e-01
3.553474482733121054e-01 8.772177732139283535e-01
3.563879971699774885e-01 8.031936153795165012e-01
3.574285460666428715e-01 8.927542004941564358e-01
3.584690949633082546e-01 9.653791309364443407e-01
3.595096438599736377e-01 6.045823119697999459e-01
3.605501927566390208e-01 5.713453086384880919e-01
3.615907416533044039e-01 6.318450610543742130e-01
3.626312905499697870e-01 6.151244868710108449e-01
3.636718394466351700e-01 8.091180064209027023e-01
3.647123883433005531e-01 9.032951570630771698e-01
3.657529372399659362e-01 8.855816577262132228e-01
3.667934861366313193e-01 8.216949561073221275e-01
3.678340350332967024e-01 7.326295559897957332e-01
3.688745839299620854e-01 6.633437833923565563e-01
3.699151328266274685e-01 6.071824973433699313e-01
3.709556817232928516e-01 6.140834566682720208e-01
3.719962306199582347e-01 7.599108922744974848e-01
3.730367795166236178e-01 8.348927859459038814e-01
3.740773284132890009e-01 8.129711908200754067e-01
3.751178773099543839e-01 4.787106930893543222e-01
3.761584262066197670e-01 5.774546550739501072e-01
3.771989751032851501e-01 6.803754214955155533e-01
3.782395239999505332e-01 6.622071319229725361e-01
3.792800728966159163e-01 5.586763033608406204e-01
3.803206217932812994e-01 6.745475217368301912e-01
3.813611706899466824e-01 7.366168068099945287e-01
3.824017195866120655e-01 5.650974763626344100e-01
3.834422684832774486e-01 4.243398218976395242e-01
3.844828173799428317e-01 4.092321364650786109e-01
3.855233662766082148e-01 3.671105463891919385e-01
3.865639151732735979e-01 3.331980225919686234e-01
3.876044640699389809e-01 5.735803573933999644e-01
3.886450129666043640e-01 6.049864318164175359e-01
3.896855618632697471e-01 2.443844832083179597e-01
3.907261107599351302e-01 3.178254541919720566e-01
3.917666596566005133e-01 4.219300991405070533e-01
3.928072085532658964e-01 3.571445845700047528e-01
3.938477574499312794e-01 4.259260842831089633e-01
3.948883063465966625e-01 1.774559460066171823e-01
3.959288552432620456e-01 3.565780504879221269e-01
3.969694041399274287e-01 5.037180979768258737e-01
3.980099530365928118e-01 3.099832440425203117e-01
3.990505019332581949e-01 3.132726252764328478e-01
4.000910508299235779e-01 4.190678602265407449e-01
4.011315997265889610e-01 3.137621257359874960e-01
4.021721486232543441e-01 4.250837765621469089e-01
4.032126975199197272e-01 6.563134473419367509e-01
4.042532464165851103e-01 6.107405154850731321e-01
4.052937953132504934e-01 2.873510831520036390e-01
4.063343442099158764e-01 2.482674522665497818e-01
4.073748931065812595e-01 3.511762964718911917e-01
4.084154420032466426e-01 4.293570924396128419e-01
4.094559908999120257e-01 4.886772838676449737e-01
4.104965397965774088e-01 3.659532289217324319e-01
4.115370886932427918e-01 4.761292537283381421e-01
4.125776375899081749e-01 3.549116315955309631e-01
4.136181864865735580e-01 3.947906680644308608e-01
4.146587353832389411e-01 3.111774136283962378e-01
4.156992842799043242e-01 4.676706689815190998e-01
4.167398331765697073e-01 4.117111018133954303e-01
4.177803820732350903e-01 4.063339581211629081e-01
4.188209309699004734e-01 2.645302455943756570e-01
4.198614798665658565e-01 3.320910906491185699e-01
4.209020287632312396e-01 2.945641376012879675e-01
4.219425776598966227e-01 3.314723535394463738e-01
4.229831265565620058e-01 3.551753518951699107e-01
4.240236754532273888e-01 2.219945800494862453e-01
4.250642243498927719e-01 1.991295772975014700e-01
4.261047732465581550e-01 2.383966419118053182e-01
4.271453221432235381e-01 3.527323335843597363e-01
4.281858710398889212e-01 3.360647736305644173e-01
4.292264199365543043e-01 3.264396580291091254e-01
4.302669688332196873e-01 2.264171752112531522e-01
4.313075177298850704e-01 2.768159330441726240e-01
4.323480666265504535e-01 3.283688075474451296e-01
4.333886155232158366e-01 3.888574887318831941e-01
4.344291644198812197e-01 3.783208770555823719e-01
