# q (1/Angstrom), Intensity (arb)
2.029070354705860696e-02 1.260180154041665446e+03
2.133125244372399004e-02 1.254061985731921595e+03
2.237180134038937659e-02 1.248555860233565909e+03
2.341235023705475968e-02 1.240990810560013870e+03
2.445289913372014276e-02 1.230933330414160764e+03
2.549344803038552584e-02 1.223587202777912353e+03
2.653399692705091240e-02 1.213443184879291266e+03
2.757454582371629548e-02 1.195898352347060836e+03
2.861509472038167856e-02 1.180632054464552084e+03
2.965564361704706164e-02 1.171109499347591964e+03
3.069619251371244473e-02 1.158381597045264471e+03
3.173674141037782781e-02 1.143183354998094501e+03
3.277729030704321089e-02 1.124761349227188248e+03
3.381783920370859398e-02 1.109336932238029249e+03
3.485838810037397706e-02 1.088485474622929132e+03
3.589893699703936014e-02 1.068691809122045470e+03
3.693948589370474322e-02 1.051208260317541999e+03
3.798003479037012631e-02 1.031016112884456106e+03
3.902058368703550939e-02 1.013344410868632508e+03
4.006113258370089247e-02 9.956346479908384026e+02
4.110168148036627556e-02 9.765881668368469946e+02
4.214223037703165864e-02 9.573072578200734597e+02
4.318277927369704866e-02 9.370456234890160658e+02
4.422332817036243174e-02 9.170954590910671413e+02
4.526387706702781483e-02 8.934477170063513540e+02
4.630442596369319791e-02 8.719143832517333976e+02
4.734497486035858099e-02 8.542281454587737244e+02
4.838552375702396408e-02 8.316503555490543249e+02
4.942607265368934716e-02 8.115521877604447809e+02
5.046662155035473024e-02 7.916770994025025630e+02
5.150717044702011332e-02 7.721567002173875380e+02
5.254771934368549641e-02 7.500020654102307844e+02
5.358826824035087949e-02 7.304805556049028610e+02
5.462881713701626257e-02 7.071429828905585282e+02
5.566936603368164566e-02 6.870340795186564264e+02
5.670991493034702874e-02 6.682033039170127040e+02
5.775046382701241182e-02 6.482088351524967038e+02
5.879101272367779490e-02 6.285751290129217068e+02
5.983156162034317799e-02 6.078492310003420016e+02
6.087211051700856107e-02 5.881482181527198918e+02
6.191265941367394415e-02 5.700574521492569602e+02
6.295320831033933417e-02 5.494647272197271377e+02
6.399375720700471726e-02 5.304587733986699050e+02
6.503430610367010034e-02 5.113288011056302480e+02
6.607485500033548342e-02 4.912863747848217599e+02
6.711540389700086651e-02 4.734170405638024590e+02
6.815595279366624959e-02 4.562686682270637561e+02
6.919650169033163267e-02 4.396888919603088084e+02
7.023705058699701576e-02 4.205802721389222256e+02
7.127759948366239884e-02 4.021550571887146930e+02
7.231814838032778192e-02 3.864416330717249934e+02
7.335869727699316500e-02 3.709509255229051519e+02
7.439924617365854809e-02 3.564782116770178391e+02
7.543979507032393117e-02 3.397573167669772829e+02
7.648034396698931425e-02 3.240476159755039589e+02
7.752089286365469734e-02 3.088328958417562262e+02
7.856144176032008042e-02 2.945000082697699213e+02
7.960199065698546350e-02 2.803502959331245279e+02
8.064253955365084658e-02 2.667851721394422952e+02
8.168308845031622967e-02 2.530175948965263615e+02
8.272363734698161275e-02 2.405105529188053879e+02
8.376418624364699583e-02 2.285037415104920342e+02
8.480473514031239279e-02 2.148465290740404328e+02
8.584528403697777588e-02 2.037749214709332364e+02
8.688583293364315896e-02 1.937749959465005247e+02
8.792638183030854204e-02 1.827222764621589022e+02
8.896693072697392513e-02 1.709216169122308031e+02
9.000747962363930821e-02 1.606823900430079561e+02
9.104802852030469129e-02 1.513597334535046741e+02
9.208857741697007437e-02 1.419988841446138395e+02
9.312912631363545746e-02 1.327864222210555738e+02
9.416967521030084054e-02 1.234994125246002596e+02
9.521022410696622362e-02 1.157069393272815034e+02
9.625077300363160671e-02 1.081874793881280681e+02
9.729132190029698979e-02 1.004500585465288509e+02
9.833187079696237287e-02 9.275525991752307675e+01
9.937241969362775595e-02 8.575025373073115986e+01
1.004129685902931390e-01 7.951550253898631127e+01
1.014535174869585221e-01 7.297533322976374848e+01
1.024940663836239052e-01 6.694415128487199240e+01
1.035346152802892883e-01 6.204134648054620271e+01
1.045751641769546714e-01 5.668072515593598126e+01
1.056157130736200545e-01 5.162685293383272267e+01
1.066562619702854375e-01 4.698286700254343629e+01
1.076968108669508206e-01 4.225156214489963702e+01
1.087373597636162037e-01 3.841817313024301939e+01
1.097779086602815868e-01 3.540157599793195686e+01
1.108184575569469699e-01 3.205933991422953966e+01
1.118590064536123529e-01 2.910012241477607020e+01
1.128995553502777360e-01 2.529402120316193958e+01
1.139401042469431191e-01 2.278192723771757144e+01
1.149806531436085022e-01 2.061107193453304376e+01
1.160212020402738853e-01 1.808975152008250120e+01
1.170617509369392684e-01 1.583299127214717927e+01
1.181022998336046514e-01 1.367519319864569383e+01
1.191428487302700345e-01 1.148263486773240771e+01
1.201833976269354176e-01 9.675026184103632687e+00
1.212239465236008007e-01 8.035982488150114733e+00
1.222644954202661838e-01 7.129059480453364017e+00
1.233050443169315669e-01 6.324594152894793098e+00
1.243455932135969499e-01 5.344503210449264685e+00
1.253861421102623330e-01 4.692342062838520178e+00
1.264266910069277161e-01 3.891914347466848056e+00
1.274672399035930992e-01 3.459535437247961198e+00
1.285077888002584823e-01 3.305583870098750765e+00
1.295483376969238654e-01 2.616566337781517149e+00
1.305888865935892484e-01 2.028460528749491232e+00
1.316294354902546315e-01 1.971008507346926564e+00
1.326699843869200146e-01 1.880463106973152776e+00
1.337105332835853977e-01 1.866027425984633226e+00
1.347510821802507808e-01 2.083686838325760959e+00
1.357916310769161639e-01 2.317480096194270089e+00
1.368321799735815469e-01 2.480689326134196904e+00
1.378727288702469300e-01 2.661520614227974590e+00
1.389132777669123131e-01 2.816446636278161719e+00
1.399538266635776962e-01 3.156063707041614208e+00
1.409943755602430793e-01 3.269256579650221539e+00
1.420349244569084624e-01 3.689650394704106162e+00
1.430754733535738454e-01 3.933474548015375660e+00
1.441160222502392285e-01 4.103466830707539259e+00
1.451565711469046116e-01 4.511575062987390083e+00
1.461971200435699947e-01 5.100976137422339463e+00
1.472376689402353778e-01 5.506170339701483840e+00
1.482782178369007609e-01 6.237679091177788848e+00
1.493187667335661439e-01 6.349759866075991965e+00
1.503593156302315270e-01 6.556502486244216499e+00
1.513998645268969101e-01 7.006563356628468853e+00
1.524404134235622932e-01 7.291452830787214623e+00
1.534809623202276763e-01 7.459451459069128987e+00
1.545215112168930593e-01 7.706890678850491838e+00
1.555620601135584424e-01 7.858099780013994007e+00
1.566026090102238255e-01 8.312314499351767694e+00
1.576431579068892086e-01 8.861084789475434320e+00
1.586837068035545917e-01 8.928747171837080998e+00
1.597242557002199748e-01 9.188568788984007085e+00
1.607648045968853578e-01 9.778033425337770979e+00
1.618053534935507409e-01 9.958104265530213439e+00
1.628459023902161240e-01 9.646222099672449701e+00
1.638864512868815071e-01 9.665999316299807020e+00
1.649270001835468902e-01 1.024761609380701088e+01
1.659675490802122733e-01 1.062883261523028011e+01
1.670080979768776563e-01 1.065348582699584412e+01
1.680486468735430672e-01 1.047086702972325156e+01
1.690891957702084503e-01 1.034357174063414675e+01
1.701297446668738333e-01 1.029171250964928674e+01
1.711702935635392164e-01 1.012722424809904709e+01
1.722108424602045995e-01 9.951642736406967060e+00
1.732513913568699826e-01 1.019181732034616772e+01
1.742919402535353657e-01 1.034555030602294323e+01
1.753324891502007488e-01 9.933355836310287401e+00
1.763730380468661318e-01 9.545084365973913521e+00
1.774135869435315149e-01 9.667602263727896883e+00
1.784541358401968980e-01 9.460425137044101263e+00
1.794946847368622811e-01 9.537099113687251162e+00
1.805352336335276642e-01 9.090340872311802656e+00
1.815757825301930473e-01 8.748355869891959458e+00
1.826163314268584303e-01 8.602292828053478502e+00
1.836568803235238134e-01 8.331482796620647946e+00
1.846974292201891965e-01 8.163378689276431288e+00
1.857379781168545796e-01 8.165771788863985137e+00
1.867785270135199627e-01 7.741582997631262231e+00
1.878190759101853458e-01 7.109940556550444768e+00
1.888596248068507288e-01 7.072480969251689231e+00
1.899001737035161119e-01 6.893432009741164990e+00
1.909407226001814950e-01 6.413755149546979339e+00
1.919812714968468781e-01 6.231862682129047926e+00
1.930218203935122612e-01 6.034758933085537791e+00
1.940623692901776443e-01 5.981286419618534467e+00
1.951029181868430273e-01 5.597452675491364715e+00
1.961434670835084104e-01 4.945479717795237207e+00
1.971840159801737935e-01 4.383076368835240544e+00
1.982245648768391766e-01 4.411247467944299672e+00
1.992651137735045597e-01 4.418254369104964496e+00
2.003056626701699428e-01 4.297070877942147149e+00
2.013462115668353813e-01 3.906653620705149876e+00
2.023867604635007644e-01 3.421534751137912167e+00
2.034273093601661475e-01 3.263496813080646319e+00
2.044678582568315306e-01 3.058685115182321113e+00
2.055084071534969137e-01 2.984220988732243285e+00
2.065489560501622968e-01 2.567410852178007019e+00
2.075895049468276798e-01 2.609787013231255060e+00
2.086300538434930629e-01 2.387168837546607136e+00
2.096706027401584460e-01 2.027820520634712409e+00
2.107111516368238291e-01 1.897204728675145446e+00
2.117517005334892122e-01 1.592986580647647088e+00
2.127922494301545953e-01 1.583858327938891364e+00
2.138327983268199783e-01 1.714656702352204576e+00
2.148733472234853614e-01 1.443832425991050883e+00
2.159138961201507445e-01 1.407649651024559745e+00
2.169544450168161276e-01 1.151285262749020433e+00
2.179949939134815107e-01 8.519656783371409858e-01
2.190355428101468938e-01 9.281011961785310405e-01
2.200760917068122768e-01 1.138945660853305952e+00
2.211166406034776599e-01 9.913683626012996797e-01
2.221571895001430430e-01 9.519518907394690643e-01
2.231977383968084261e-01 7.821674807940084406e-01
2.242382872934738092e-01 7.654563418295765587e-01
2.252788361901391923e-01 7.888555215396770848e-01
2.263193850868045753e-01 8.799692346021963374e-01
2.273599339834699584e-01 1.117434935017271869e+00
2.284004828801353415e-01 8.227562132210692880e-01
2.294410317768007246e-01 6.236658817974607416e-01
2.304815806734661077e-01 5.958056057458875898e-01
2.315221295701314908e-01 3.692602251480074926e-01
2.325626784667968738e-01 5.421719716167174852e-01
2.336032273634622569e-01 8.124290679329888576e-01
2.346437762601276400e-01 7.499804448311593319e-01
2.356843251567930231e-01 5.741268950874029997e-01
2.367248740534584062e-01 7.277108475114815178e-01
2.377654229501237892e-01 7.668491713087632888e-01
2.388059718467891723e-01 1.031558240601793131e+00
2.398465207434545554e-01 1.331064651875490057e+00
2.408870696401199385e-01 1.309640128594544706e+00
2.419276185367853216e-01 1.223845271399142121e+00
2.429681674334507047e-01 1.164577183714143871e+00
2.440087163301160877e-01 9.072008138644918063e-01
2.450492652267814708e-01 1.088285868234120102e+00
2.460898141234468539e-01 1.354928627213343617e+00
2.471303630201122370e-01 1.321979501450854855e+00
2.481709119167776201e-01 1.385023993306045753e+00
2.492114608134430032e-01 1.371952725509576254e+00
2.502520097101083585e-01 1.245022889941616029e+00
2.512925586067737416e-01 1.285013537144060081e+00
2.523331075034391247e-01 1.215596837898736737e+00
2.533736564001045077e-01 1.577580236311440842e+00
2.544142052967698908e-01 1.743766334861948764e+00
2.554547541934352739e-01 1.648484573288474309e+00
2.564953030901006570e-01 1.694735065451268952e+00
2.575358519867660401e-01 1.826780744724160854e+00
2.585764008834314231e-01 1.971932582183381300e+00
2.596169497800968062e-01 1.863843841187268424e+00
2.606574986767621893e-01 1.680639677822235001e+00
2.616980475734275724e-01 1.967775411292269183e+00
2.627385964700929555e-01 1.886836184247478343e+00
2.637791453667583386e-01 1.740924617511421246e+00
2.648196942634237216e-01 1.821018373130801393e+00
2.658602431600891047e-01 1.671000325907858297e+00
2.669007920567544878e-01 1.528662642308638908e+00
2.679413409534198709e-01 1.642068834201030114e+00
2.689818898500852540e-01 1.766083988731921295e+00
2.700224387467506371e-01 1.714314674562089635e+00
2.710629876434160201e-01 1.887971284303070263e+00
2.721035365400814032e-01 2.027797519233189405e+00
2.731440854367467863e-01 1.843072205031766941e+00
2.741846343334121694e-01 1.789675610030922570e+00
2.752251832300775525e-01 1.781220990777178770e+00
2.762657321267429356e-01 1.515484449427212610e+00
2.773062810234083186e-01 1.462989310488104877e+00
2.783468299200737017e-01 1.510990078822473492e+00
2.793873788167390848e-01 1.502707617925228334e+00
2.804279277134044679e-01 1.492292789523716579e+00
2.814684766100698510e-01 1.392235515658658329e+00
2.825090255067352341e-01 1.144235815584607963e+00
2.835495744034006171e-01 1.085395204944290981e+00
2.845901233000660002e-01 1.090604254131619655e+00
2.856306721967313833e-01 1.145500950764208881e+00
2.866712210933967664e-01 1.297028259394821248e+00
2.877117699900621495e-01 1.237196931303348180e+00
2.887523188867275326e-01 1.320555013317189719e+00
2.897928677833929156e-01 9.095887810269083218e-01
2.908334166800582987e-01 1.154648396153763912e+00
2.918739655767236818e-01 1.083762840475582578e+00
2.929145144733890649e-01 1.168583074693728463e+00
2.939550633700544480e-01 1.017405856167030720e+00
2.949956122667198311e-01 8.214082665534228056e-01
2.960361611633852141e-01 7.811321281512242365e-01
2.970767100600505972e-01 6.895176117847547914e-01
2.981172589567159803e-01 6.806335791914008837e-01
2.991578078533813634e-01 7.715667199864313375e-01
3.001983567500468020e-01 6.627787064882539880e-01
3.012389056467121851e-01 7.324191847149421619e-01
3.022794545433775681e-01 6.351117257561789131e-01
3.033200034400429512e-01 7.003492232118624372e-01
3.043605523367083343e-01 6.655767817037236966e-01
3.054011012333737174e-01 6.175933971765097397e-01
3.064416501300391005e-01 6.674964557284432942e-01
3.074821990267044836e-01 6.237014773996918393e-01
3.085227479233698666e-01 4.612621862808943263e-01
3.095632968200352497e-01 2.640294902792028608e-01
3.106038457167006328e-01 4.276936603605605569e-01
3.116443946133660159e-01 6.542745522188688767e-01
3.126849435100313990e-01 5.468143772008140502e-01
3.137254924066967821e-01 4.220200400335194502e-01
3.147660413033621651e-01 4.051733951171136994e-01
3.158065902000275482e-01 5.080108979054891449e-01
3.168471390966929313e-01 6.585230326209519092e-01
3.178876879933583144e-01 4.357547085701192202e-01
3.189282368900236975e-01 1.209402595671384972e-01
3.199687857866890806e-01 3.950735820037891699e-01
3.210093346833544636e-01 5.852140636255001027e-01
3.220498835800198467e-01 6.348741190549560542e-01
3.230904324766852298e-01 6.813359730346562060e-01
3.241309813733506129e-01 7.647393643817466113e-01
3.251715302700159960e-01 5.040257126996863235e-01
3.262120791666813790e-01 2.599607727081476582e-02
3.272526280633467621e-01 9.857428237300069895e-02
3.282931769600121452e-01 2.780018107185391329e-01
3.293337258566775283e-01 2.281134513627876004e-01
3.303742747533429114e-01 2.054262092585155131e-01
3.314148236500082945e-01 4.515027654496819309e-01
3.324553725466736775e-01 5.011811900241731621e-01
3.334959214433390606e-01 3.282462040263283143e-01
3.345364703400044437e-01 4.676813289232022441e-01
3.355770192366698268e-01 5.752691496590749409e-01
3.366175681333352099e-01 4.230070658823557039e-01
3.376581170300005930e-01 5.183922214025216135e-01
3.386986659266659760e-01 5.018567940702567398e-01
3.397392148233313591e-01 5.357771472520873601e-01
3.407797637199967422e-01 6.072442844864056610e-01
3.418203126166621253e-01 6.029862392441600605e-01
3.428608615133275084e-01 5.221957253781042141e-01
3.439014104099928915e-01 6.462334074241233850e-01
3.449419593066582745e-01 6.932887790177915122e-01
3.459825082033236576e-01 6.876328851665753916e-01
3.470230570999890407e-01 4.570283164358883710e-01
3.480636059966544238e-01 2.827511178661588076e-01
3.491041548933198069e-01 5.279962306190952859e-01
3.501447037899851900e-01 5.272425572130039484e-01
3.511852526866505730e-01 5.246983920708778726e-01
3.522258015833159561e-01 5.758874121014656566e-01
3.532663504799813392e-01 7.189316578950979419e-01
3.543068993766467223e-01 9.013280468150455249e-01
3.553474482733121054e-01 5.928527575514266346e-01
3.563879971699774885e-01 5.587125643539749831e-01
3.574285460666428715e-01 5.616270493193979974e-01
3.584690949633082546e-01 6.081085513535313680e-01
3.595096438599736377e-01 5.659534531740675334e-01
3.605501927566390208e-01 6.429212813084745903e-01
3.615907416533044039e-01 4.942055846040815936e-01
3.626312905499697870e-01 7.425406226705000279e-01
3.636718394466351700e-01 6.713000451153128267e-01
3.647123883433005531e-01 5.928115454073754620e-01
3.657529372399659362e-01 7.033238626697944085e-01
3.667934861366313193e-01 7.198010621912054319e-01
3.678340350332967024e-01 6.296986022883892531e-01
3.688745839299620854e-01 6.900470297848748658e-01
3.699151328266274685e-01 8.813661707314217608e-01
3.709556817232928516e-01 8.089584536807166160e-01
3.719962306199582347e-01 6.426845431001453335e-01
3.730367795166236178e-01 5.597394745411392591e-01
3.740773284132890009e-01 4.456174836173403264e-01
3.751178773099543839e-01 6.247068457870739167e-01
3.761584262066197670e-01 5.929281154205519044e-01
3.771989751032851501e-01 4.315415023001598627e-01
3.782395239999505332e-01 4.030976340827550075e-01
3.792800728966159163e-01 5.560948637639988590e-01
3.803206217932812994e-01 8.822555289041780213e-01
3.813611706899466824e-01 9.887067404209908261e-01
3.824017195866120655e-01 1.003884016141075364e+00
3.834422684832774486e-01 6.693393758804297988e-01
3.844828173799428317e-01 4.974631264496487404e-01
3.855233662766082148e-01 4.853510853567541972e-01
3.865639151732735979e-01 5.384942529951217693e-01
3.876044640699389809e-01 5.018398834986079748e-01
3.886450129666043640e-01 3.828716688715267935e-01
3.896855618632697471e-01 4.048762488270867266e-01
3.907261107599351302e-01 5.522193742533900718e-01
3.917666596566005133e-01 6.901234507522318040e-01
3.928072085532658964e-01 3.982014457498159743e-01
3.938477574499312794e-01 3.745490543843565945e-01
3.948883063465966625e-01 3.911198865559235571e-01
3.959288552432620456e-01 4.502370434295031032e-01
3.969694041399274287e-01 5.072505731620147174e-01
3.980099530365928118e-01 5.203939235578474154e-01
3.990505019332581949e-01 4.751781044931320253e-01
4.000910508299235779e-01 4.260752669930205627e-01
4.011315997265889610e-01 4.223011605653432810e-01
4.021721486232543441e-01 3.947668198625002844e-01
4.032126975199197272e-01 2.642074421508588955e-01
4.042532464165851103e-01 1.415699538282702008e-01
4.052937953132504934e-01 2.796746607413069796e-01
4.063343442099158764e-01 3.189136629148627833e-01
4.073748931065812595e-01 3.827675476766998486e-01
4.084154420032466426e-01 5.078894859487981250e-01
4.094559908999120257e-01 1.911229857824672251e-01
4.104965397965774088e-01 1.567051455868089249e-01
4.115370886932427918e-01 3.922903809229119076e-01
4.125776375899081749e-01 5.056631031651477315e-01
4.136181864865735580e-01 3.624544240801554906e-01
4.146587353832389411e-01 2.613997763840103516e-01
4.156992842799043242e-01 1.991073406952743596e-01
4.167398331765697073e-01 1.618575651844551544e-01
4.177803820732350903e-01 2.603791258240519824e-01
4.188209309699004734e-01 7.497951532335633829e-02
4.198614798665658565e-01 1.905615385218979441e-01
4.209020287632312396e-01 2.173103032874657004e-01
4.219425776598966227e-01 1.703285892445443039e-01
4.229831265565620058e-01 4.338541199993244390e-01
4.240236754532273888e-01 5.131695749211999669e-01
4.250642243498927719e-01 4.000847079995430988e-01
4.261047732465581550e-01 3.174355275817788424e-01
4.271453221432235381e-01 2.409118416747091374e-01
4.281858710398889212e-01 1.675942186154024682e-01
4.292264199365543043e-01 1.891960460877015748e-01
4.302669688332196873e-01 3.337748178683206390e-01
4.313075177298850704e-01 3.094680459368497338e-01
4.323480666265504535e-01 3.455685481410988302e-01
4.333886155232158366e-01 2.800482451007901830e-01
4.344291644198812197e-01 1.829265698653266270e-01
