# q (1/Angstrom), Intensity (arb)
2.029070354705860696e-02 1.272282115262816887e+03
2.133125244372399004e-02 1.266917324330890779e+03
2.237180134038937659e-02 1.260795079772855843e+03
2.341235023705475968e-02 1.251568128660993807e+03
2.445289913372014276e-02 1.243573975427553933e+03
2.549344803038552584e-02 1.237064984018103132e+03
2.653399692705091240e-02 1.218539134522987752e+03
2.757454582371629548e-02 1.204710333652232976e+03
2.861509472038167856e-02 1.195814094322453457e+03
2.965564361704706164e-02 1.184812552257126299e+03
3.069619251371244473e-02 1.168901270163683876e+03
3.173674141037782781e-02 1.156261291839988417e+03
3.277729030704321089e-02 1.137769410193980548e+03
3.381783920370859398e-02 1.119211600410403662e+03
3.485838810037397706e-02 1.104669411433470259e+03
3.589893699703936014e-02 1.084406700489901141e+03
3.693948589370474322e-02 1.065198644430789273e+03
3.798003479037012631e-02 1.043984359206653608e+03
3.902058368703550939e-02 1.028169136815478396e+03
4.006113258370089247e-02 1.008316432048277306e+03
4.110168148036627556e-02 9.867889378897477854e+02
4.214223037703165864e-02 9.662631483673436605e+02
4.318277927369704866e-02 9.468103428849840384e+02
4.422332817036243174e-02 9.234915569213655999e+02
4.526387706702781483e-02 9.034305804016117918e+02
4.630442596369319791e-02 8.840199856327081989e+02
4.734497486035858099e-02 8.628169559333513234e+02
4.838552375702396408e-02 8.417423422837954377e+02
4.942607265368934716e-02 8.219428838480383774e+02
5.046662155035473024e-02 8.012678920495568491e+02
5.150717044702011332e-02 7.820305679740496316e+02
5.254771934368549641e-02 7.593179420555709385e+02
5.358826824035087949e-02 7.378920576842398305e+02
5.462881713701626257e-02 7.146490288966814433e+02
5.566936603368164566e-02 6.944959797737172948e+02
5.670991493034702874e-02 6.768799616357464402e+02
5.775046382701241182e-02 6.557666195460461722e+02
5.879101272367779490e-02 6.345699461207276499e+02
5.983156162034317799e-02 6.154977878663596584e+02
6.087211051700856107e-02 5.963214947968199340e+02
6.191265941367394415e-02 5.756518709444507067e+02
6.295320831033933417e-02 5.554086014049726145e+02
6.399375720700471726e-02 5.365847266120613313e+02
6.503430610367010034e-02 5.177186206819778818e+02
6.607485500033548342e-02 4.984557831850604543e+02
6.711540389700086651e-02 4.793977551176105294e+02
6.815595279366624959e-02 4.616618283523708897e+02
6.919650169033163267e-02 4.441194839454436192e+02
7.023705058699701576e-02 4.251544659044441801e+02
7.127759948366239884e-02 4.095906250766853418e+02
7.231814838032778192e-02 3.935813289325646451e+02
7.335869727699316500e-02 3.768130488258343576e+02
7.439924617365854809e-02 3.606875789617251939e+02
7.543979507032393117e-02 3.437352013320911510e+02
7.648034396698931425e-02 3.276693842699713741e+02
7.752089286365469734e-02 3.129784317044682780e+02
7.856144176032008042e-02 2.999994052587846340e+02
7.960199065698546350e-02 2.854694086002885456e+02
8.064253955365084658e-02 2.713044352143389801e+02
8.168308845031622967e-02 2.573839600719733767e+02
8.272363734698161275e-02 2.446558034451496724e+02
8.376418624364699583e-02 2.324488756071316971e+02
8.480473514031239279e-02 2.190464183836393204e+02
8.584528403697777588e-02 2.061368551773013849e+02
8.688583293364315896e-02 1.946110990889506809e+02
8.792638183030854204e-02 1.842621169952234936e+02
8.896693072697392513e-02 1.740333006099495492e+02
9.000747962363930821e-02 1.633693838156846994e+02
9.104802852030469129e-02 1.535674300427664605e+02
9.208857741697007437e-02 1.441160075955434934e+02
9.312912631363545746e-02 1.340158753914021474e+02
9.416967521030084054e-02 1.257444893687925997e+02
9.521022410696622362e-02 1.172592486696794225e+02
9.625077300363160671e-02 1.092208560746331045e+02
9.729132190029698979e-02 1.023707796677190203e+02
9.833187079696237287e-02 9.350310923169787714e+01
9.937241969362775595e-02 8.633088288865501170e+01
1.004129685902931390e-01 7.983039738088419313e+01
1.014535174869585221e-01 7.408168320151217756e+01
1.024940663836239052e-01 6.868128132900608307e+01
1.035346152802892883e-01 6.317464710039544684e+01
1.045751641769546714e-01 5.857699224526437831e+01
1.056157130736200545e-01 5.282366221237530368e+01
1.066562619702854375e-01 4.800819293291632306e+01
1.076968108669508206e-01 4.361974692892435712e+01
1.087373597636162037e-01 3.952413740798593977e+01
1.097779086602815868e-01 3.589627166686092608e+01
1.108184575569469699e-01 3.227155924998249503e+01
1.118590064536123529e-01 2.884456378762750717e+01
1.128995553502777360e-01 2.542632685545249061e+01
1.139401042469431191e-01 2.254889560840589269e+01
1.149806531436085022e-01 2.102021455631421887e+01
1.160212020402738853e-01 1.812044412190609677e+01
1.170617509369392684e-01 1.579872871714297844e+01
1.181022998336046514e-01 1.383166776229210626e+01
1.191428487302700345e-01 1.199849619688604818e+01
1.201833976269354176e-01 1.028626666391696887e+01
1.212239465236008007e-01 8.594487389498063123e+00
1.222644954202661838e-01 7.534955373727839856e+00
1.233050443169315669e-01 6.363424763390682415e+00
1.243455932135969499e-01 5.467838305808584209e+00
1.253861421102623330e-01 4.713252970378150053e+00
1.264266910069277161e-01 3.973634921789717112e+00
1.274672399035930992e-01 3.594910496467097261e+00
1.285077888002584823e-01 2.870638348968416409e+00
1.295483376969238654e-01 2.490272721528409505e+00
1.305888865935892484e-01 2.503083595405215078e+00
1.316294354902546315e-01 2.061894775467781216e+00
1.326699843869200146e-01 1.867840129468206101e+00
1.337105332835853977e-01 1.749155448778424216e+00
1.347510821802507808e-01 2.101957924034874026e+00
1.357916310769161639e-01 2.445117476009958324e+00
1.368321799735815469e-01 2.412806590151557629e+00
1.378727288702469300e-01 2.645186381009956733e+00
1.389132777669123131e-01 2.617877789282847090e+00
1.399538266635776962e-01 2.942407438852249868e+00
1.409943755602430793e-01 3.254759026356971674e+00
1.420349244569084624e-01 3.432455906993268968e+00
1.430754733535738454e-01 3.979601440027202841e+00
1.441160222502392285e-01 4.421547356803205986e+00
1.451565711469046116e-01 4.573441239540994019e+00
1.461971200435699947e-01 5.084685643418595191e+00
1.472376689402353778e-01 5.739943455509603609e+00
1.482782178369007609e-01 6.155958495410441600e+00
1.493187667335661439e-01 6.714590868974838145e+00
1.503593156302315270e-01 7.215224657310489675e+00
1.513998645268969101e-01 7.712389272423187947e+00
1.524404134235622932e-01 8.060202986389171542e+00
1.534809623202276763e-01 8.407674185871705674e+00
1.545215112168930593e-01 8.679953809974808365e+00
1.555620601135584424e-01 8.738651542327168897e+00
1.566026090102238255e-01 9.135585268699003336e+00
1.576431579068892086e-01 9.250559776912997023e+00
1.586837068035545917e-01 9.523803714468858317e+00
1.597242557002199748e-01 9.619535462137488224e+00
1.607648045968853578e-01 9.550208132736845101e+00
1.618053534935507409e-01 9.905752842409302872e+00
1.628459023902161240e-01 1.019725193005739783e+01
1.638864512868815071e-01 1.052732519868594352e+01
1.649270001835468902e-01 1.043205565238973520e+01
1.659675490802122733e-01 1.065538452974060490e+01
1.670080979768776563e-01 1.062562434280674850e+01
1.680486468735430672e-01 1.058245900226416580e+01
1.690891957702084503e-01 1.082031753907903493e+01
1.701297446668738333e-01 1.030261590416775519e+01
1.711702935635392164e-01 1.044777444903962405e+01
1.722108424602045995e-01 1.052803913408116898e+01
1.732513913568699826e-01 1.043280370555230618e+01
1.742919402535353657e-01 1.042195023074160076e+01
1.753324891502007488e-01 1.016826518556368697e+01
1.763730380468661318e-01 1.005142539099115240e+01
1.774135869435315149e-01 9.931741380507965289e+00
1.784541358401968980e-01 9.905640178556513575e+00
1.794946847368622811e-01 9.770587562386030100e+00
1.805352336335276642e-01 9.246411825716226218e+00
1.815757825301930473e-01 8.771811102268014082e+00
1.826163314268584303e-01 8.661494040218276069e+00
1.836568803235238134e-01 8.469901168632457455e+00
1.846974292201891965e-01 8.144846041225701327e+00
1.857379781168545796e-01 7.841541879430959483e+00
1.867785270135199627e-01 7.728475812306264459e+00
1.878190759101853458e-01 7.615007743522241412e+00
1.888596248068507288e-01 7.354024544586700074e+00
1.899001737035161119e-01 7.113185455124632739e+00
1.909407226001814950e-01 6.710353136399792362e+00
1.919812714968468781e-01 6.272658232263079725e+00
1.930218203935122612e-01 6.263158712980544607e+00
1.940623692901776443e-01 5.946357236376890398e+00
1.951029181868430273e-01 5.722360370866628188e+00
1.961434670835084104e-01 5.627215723115583046e+00
1.971840159801737935e-01 5.573049337692307148e+00
1.982245648768391766e-01 4.841341112446247763e+00
1.992651137735045597e-01 4.335259170263071837e+00
2.003056626701699428e-01 4.036662124833394927e+00
2.013462115668353813e-01 3.978574643087483764e+00
2.023867604635007644e-01 3.808232342048793129e+00
2.034273093601661475e-01 3.614823120939142598e+00
2.044678582568315306e-01 3.418323565859147095e+00
2.055084071534969137e-01 3.088834458596377175e+00
2.065489560501622968e-01 2.679361782731152886e+00
2.075895049468276798e-01 2.335957800279629737e+00
2.086300538434930629e-01 2.290114929179821956e+00
2.096706027401584460e-01 2.319784095958276282e+00
2.107111516368238291e-01 2.099115552565418596e+00
2.117517005334892122e-01 1.917161398152035900e+00
2.127922494301545953e-01 1.754398697729229184e+00
2.138327983268199783e-01 1.806481810325688997e+00
2.148733472234853614e-01 1.396973823888721711e+00
2.159138961201507445e-01 1.382056587918651047e+00
2.169544450168161276e-01 1.294033322930651764e+00
2.179949939134815107e-01 1.154862599203511309e+00
2.190355428101468938e-01 1.027839292108080116e+00
2.200760917068122768e-01 8.104427420037119134e-01
2.211166406034776599e-01 7.525191074898884835e-01
2.221571895001430430e-01 7.743090216673564896e-01
2.231977383968084261e-01 5.685649803599872598e-01
2.242382872934738092e-01 5.080785391587880895e-01
2.252788361901391923e-01 6.175629437256304755e-01
2.263193850868045753e-01 7.684718875688041351e-01
2.273599339834699584e-01 6.741593356808834869e-01
2.284004828801353415e-01 6.245494527647963423e-01
2.294410317768007246e-01 9.770552557987528530e-01
2.304815806734661077e-01 9.098604318031604521e-01
2.315221295701314908e-01 8.908526278215020966e-01
2.325626784667968738e-01 9.807245074360686488e-01
2.336032273634622569e-01 6.662377906303689201e-01
2.346437762601276400e-01 7.281255681939065028e-01
2.356843251567930231e-01 9.140760079621479406e-01
2.367248740534584062e-01 1.084413391158935980e+00
2.377654229501237892e-01 8.031466873922852301e-01
2.388059718467891723e-01 5.421231806586455093e-01
2.398465207434545554e-01 8.688985943959153246e-01
2.408870696401199385e-01 3.505986489917241045e-01
2.419276185367853216e-01 9.135950737022042745e-01
2.429681674334507047e-01 1.151904122476430814e+00
2.440087163301160877e-01 1.291441801768915099e+00
2.450492652267814708e-01 1.423737591781112144e+00
2.460898141234468539e-01 1.240642468544507437e+00
2.471303630201122370e-01 1.057424354050631621e+00
2.481709119167776201e-01 1.211589393705271078e+00
2.492114608134430032e-01 1.464740425348399100e+00
2.502520097101083585e-01 1.471199502412304128e+00
2.512925586067737416e-01 1.334138245506423459e+00
2.523331075034391247e-01 1.632047523792067523e+00
2.533736564001045077e-01 1.761791528432020471e+00
2.544142052967698908e-01 1.571180682054176714e+00
2.554547541934352739e-01 1.637636123656214693e+00
2.564953030901006570e-01 1.575435283803539477e+00
2.575358519867660401e-01 1.844916545331734881e+00
2.585764008834314231e-01 1.808063855117122642e+00
2.596169497800968062e-01 1.598299367930810178e+00
2.606574986767621893e-01 1.958615290991222224e+00
2.616980475734275724e-01 1.813878004494590357e+00
2.627385964700929555e-01 1.726223968219187554e+00
2.637791453667583386e-01 1.838023663968108679e+00
2.648196942634237216e-01 2.071201631267701515e+00
2.658602431600891047e-01 2.048871434527679725e+00
2.669007920567544878e-01 1.894899958907402038e+00
2.679413409534198709e-01 1.706520142740661328e+00
2.689818898500852540e-01 1.635423384052131723e+00
2.700224387467506371e-01 1.833007863794772874e+00
2.710629876434160201e-01 1.902200120713676057e+00
2.721035365400814032e-01 1.715121629124478631e+00
2.731440854367467863e-01 1.581487753971398291e+00
2.741846343334121694e-01 1.404688408865197857e+00
2.752251832300775525e-01 1.440483328420413045e+00
2.762657321267429356e-01 1.412842215263275136e+00
2.773062810234083186e-01 1.685460703499551016e+00
2.783468299200737017e-01 1.674673751092736751e+00
2.793873788167390848e-01 1.576718080825479262e+00
2.804279277134044679e-01 1.532915100092939298e+00
2.814684766100698510e-01 1.470448110996535718e+00
2.825090255067352341e-01 1.482628281110038415e+00
2.835495744034006171e-01 1.418757327232405885e+00
2.845901233000660002e-01 1.712502806796113219e+00
2.856306721967313833e-01 1.563589735087571597e+00
2.866712210933967664e-01 1.322823012542610144e+00
2.877117699900621495e-01 1.375663584930453709e+00
2.887523188867275326e-01 1.127766756120479386e+00
2.897928677833929156e-01 8.373253707705075044e-01
2.908334166800582987e-01 9.174559524112382292e-01
2.918739655767236818e-01 9.933537813450108445e-01
2.929145144733890649e-01 9.132003929947352106e-01
2.939550633700544480e-01 8.971732636194857946e-01
2.949956122667198311e-01 8.759574644827381462e-01
2.960361611633852141e-01 7.622607480266871960e-01
2.970767100600505972e-01 7.164726115942947615e-01
2.981172589567159803e-01 7.195350320832716307e-01
2.991578078533813634e-01 7.036150027272825014e-01
3.001983567500468020e-01 9.294585354995312798e-01
3.012389056467121851e-01 8.776556692797221615e-01
3.022794545433775681e-01 8.821560390705123211e-01
3.033200034400429512e-01 7.145776660935041491e-01
3.043605523367083343e-01 5.558482462958451720e-01
3.054011012333737174e-01 6.279821454876177711e-01
3.064416501300391005e-01 5.656890631826065885e-01
3.074821990267044836e-01 5.023123319141156173e-01
3.085227479233698666e-01 6.839078874139588038e-01
3.095632968200352497e-01 5.809641468428772271e-01
3.106038457167006328e-01 3.781086965882884954e-01
3.116443946133660159e-01 4.445844426110419079e-01
3.126849435100313990e-01 4.073692480266792870e-01
3.137254924066967821e-01 3.408959089326444314e-01
3.147660413033621651e-01 3.450127245969447642e-01
3.158065902000275482e-01 2.734336055665735898e-01
3.168471390966929313e-01 3.619532312354145631e-01
3.178876879933583144e-01 1.572501230222513868e-01
3.189282368900236975e-01 2.704293748870476577e-01
3.199687857866890806e-01 3.776500262487090254e-01
3.210093346833544636e-01 5.619932529732771798e-01
3.220498835800198467e-01 3.205932769394657100e-01
3.230904324766852298e-01 2.293300833259266369e-01
3.241309813733506129e-01 3.993576670957352803e-01
3.251715302700159960e-01 4.431550100240322365e-01
3.262120791666813790e-01 3.664513684419112849e-01
3.272526280633467621e-01 4.617610021495934802e-01
3.282931769600121452e-01 5.642249830212477946e-01
3.293337258566775283e-01 4.781749854704706593e-01
3.303742747533429114e-01 5.389130458999993323e-01
3.314148236500082945e-01 5.946531483429282616e-01
3.324553725466736775e-01 4.424113119105719250e-01
3.334959214433390606e-01 4.837205513594824424e-01
3.345364703400044437e-01 5.210865690262274086e-01
3.355770192366698268e-01 4.926312361474707302e-01
3.366175681333352099e-01 4.072913331778629242e-01
3.376581170300005930e-01 4.965326699916339237e-01
3.386986659266659760e-01 5.641080839361549693e-01
3.397392148233313591e-01 4.891901943940766273e-01
3.407797637199967422e-01 3.646526133374798917e-01
3.418203126166621253e-01 5.289127806780662411e-01
3.428608615133275084e-01 4.151403172978724854e-01
3.439014104099928915e-01 3.256093946668947581e-01
3.449419593066582745e-01 4.754801074620935708e-01
3.459825082033236576e-01 5.241862981945253352e-01
3.470230570999890407e-01 5.073293043019333481e-01
3.480636059966544238e-01 5.515354135960990334e-01
3.491041548933198069e-01 6.210382556543940780e-01
3.501447037899851900e-01 4.071627705920661811e-01
3.511852526866505730e-01 4.871962060461214605e-01
3.522258015833159561e-01 6.470446763030821558e-01
3.532663504799813392e-01 7.296572011287238979e-01
3.543068993766467223e-01 6.630756916827102998e-01
3.553474482733121054e-01 5.320787049508020061e-01
3.563879971699774885e-01 6.049091313763845790e-01
3.574285460666428715e-01 6.637737863657875437e-01
3.584690949633082546e-01 7.533475353677872022e-01
3.595096438599736377e-01 7.565364932321436697e-01
3.605501927566390208e-01 5.239709547608164542e-01
3.615907416533044039e-01 6.457664738078712219e-01
3.626312905499697870e-01 5.441399703421012646e-01
3.636718394466351700e-01 5.829056935702716657e-01
3.647123883433005531e-01 6.471075983482492688e-01
3.657529372399659362e-01 5.129601111227337640e-01
3.667934861366313193e-01 5.234298322190440445e-01
3.678340350332967024e-01 4.849499721209795666e-01
3.688745839299620854e-01 6.103209542673333488e-01
3.699151328266274685e-01 6.465783038193038124e-01
3.709556817232928516e-01 6.483410219767584692e-01
3.719962306199582347e-01 5.329404534912818292e-01
3.730367795166236178e-01 5.672637662933190938e-01
3.740773284132890009e-01 6.167132186023245310e-01
3.751178773099543839e-01 4.489612611975815071e-01
3.761584262066197670e-01 6.020567914963841361e-01
3.771989751032851501e-01 7.238255335791308198e-01
3.782395239999505332e-01 6.346339779764207378e-01
3.792800728966159163e-01 7.892169432319455780e-01
3.803206217932812994e-01 4.936085906382032817e-01
3.813611706899466824e-01 4.463963887539001973e-01
3.824017195866120655e-01 5.631106615739547294e-01
3.834422684832774486e-01 5.145207126644955054e-01
3.844828173799428317e-01 5.989539257916902670e-01
3.855233662766082148e-01 5.088717796578983155e-01
3.865639151732735979e-01 4.149320747334783732e-01
3.876044640699389809e-01 3.368080912773230295e-01
3.886450129666043640e-01 4.180925799809074306e-01
3.896855618632697471e-01 2.529915207514328301e-01
3.907261107599351302e-01 3.360384574994625950e-01
3.917666596566005133e-01 2.535946434333631316e-01
3.928072085532658964e-01 3.670479963306370053e-01
3.938477574499312794e-01 4.804336042055474820e-01
3.948883063465966625e-01 3.397425076067293048e-01
3.959288552432620456e-01 2.606120201125854408e-01
3.969694041399274287e-01 3.003983592793773028e-01
3.980099530365928118e-01 2.558203132739613750e-01
3.990505019332581949e-01 3.066822108432987193e-01
4.000910508299235779e-01 2.040792493486627279e-01
4.011315997265889610e-01 1.654932434183251644e-01
4.021721486232543441e-01 2.167333349480884408e-01
4.032126975199197272e-01 3.386662916303251336e-01
4.042532464165851103e-01 3.753346404408972603e-01
4.052937953132504934e-01 4.664250236732563337e-01
4.063343442099158764e-01 4.431764271743787731e-01
4.073748931065812595e-01 3.279674584966194573e-01
4.084154420032466426e-01 7.051993022271929590e-02
4.094559908999120257e-01 1.177323967149845885e-01
4.104965397965774088e-01 2.417271032691701294e-01
4.115370886932427918e-01 3.185353180857255495e-01
4.125776375899081749e-01 3.176807611560370503e-01
4.136181864865735580e-01 2.014877334613345283e-01
4.146587353832389411e-01 2.344407170487130543e-01
4.156992842799043242e-01 3.188827585487530314e-01
4.167398331765697073e-01 4.444271904986294430e-01
4.177803820732350903e-01 3.612768812498394766e-01
4.188209309699004734e-01 1.615257727471970384e-01
4.198614798665658565e-01 2.660719176312476009e-01
4.209020287632312396e-01 2.784821760190752116e-01
4.219425776598966227e-01 1.987285222285635200e-01
4.229831265565620058e-01 1.878336010432697378e-01
4.240236754532273888e-01 3.003097399569760739e-01
4.250642243498927719e-01 3.951743659368815997e-01
4.261047732465581550e-01 4.933905064895931503e-01
4.271453221432235381e-01 3.072770988933619662e-01
4.281858710398889212e-01 1.202610139714295201e-01
4.292264199365543043e-01 4.941649822269056358e-02
4.302669688332196873e-01 3.212142474088430788e-01
4.313075177298850704e-01 2.848872411105745073e-01
4.323480666265504535e-01 1.929523396702137461e-01
4.333886155232158366e-01 1.644941143989449017e-01
4.344291644198812197e-01 2.711191833870501000e-01
