# q (1/Angstrom), Intensity (arb)
2.029070354705860696e-02 1.370233273519065733e+03
2.133125244372399004e-02 1.363714770710764469e+03
2.237180134038937659e-02 1.359419127146652727e+03
2.341235023705475968e-02 1.349041453018914353e+03
2.445289913372014276e-02 1.336121403252782329e+03
2.549344803038552584e-02 1.326248145587487898e+03
2.653399692705091240e-02 1.311056343853404542e+03
2.757454582371629548e-02 1.299349587115266104e+03
2.861509472038167856e-02 1.284621397629260855e+03
2.965564361704706164e-02 1.269574874773450574e+03
3.069619251371244473e-02 1.254940039365352504e+03
3.173674141037782781e-02 1.238819657448311773e+03
3.277729030704321089e-02 1.220298788855493285e+03
3.381783920370859398e-02 1.197808320491613358e+03
3.485838810037397706e-02 1.177161007791255088e+03
3.589893699703936014e-02 1.156301772768446199e+03
3.693948589370474322e-02 1.136532264601877614e+03
3.798003479037012631e-02 1.119080821737704809e+03
3.902058368703550939e-02 1.099335029640684297e+03
4.006113258370089247e-02 1.077283783564743317e+03
4.110168148036627556e-02 1.057856144518308611e+03
4.214223037703165864e-02 1.035961485975846017e+03
4.318277927369704866e-02 1.013354032729999631e+03
4.422332817036243174e-02 9.934551741679907764e+02
4.526387706702781483e-02 9.692592051853929433e+02
4.630442596369319791e-02 9.485584843638243910e+02
4.734497486035858099e-02 9.281403592268769671e+02
4.838552375702396408e-02 9.036694184070400979e+02
4.942607265368934716e-02 8.793057793449182782e+02
5.046662155035473024e-02 8.598197969483394445e+02
5.150717044702011332e-02 8.365210838773979276e+02
5.254771934368549641e-02 8.158626809305421830e+02
5.358826824035087949e-02 7.928244526867188142e+02
5.462881713701626257e-02 7.698454987219492978e+02
5.566936603368164566e-02 7.497929903082101646e+02
5.670991493034702874e-02 7.283372456480309438e+02
5.775046382701241182e-02 7.047027404237578594e+02
5.879101272367779490e-02 6.836640042654242961e+02
5.983156162034317799e-02 6.620902927575396006e+02
6.087211051700856107e-02 6.390154521412617896e+02
6.191265941367394415e-02 6.177384163252135068e+02
6.295320831033933417e-02 5.996978616745387853e+02
6.399375720700471726e-02 5.814846961532723526e+02
6.503430610367010034e-02 5.614492874146912982e+02
6.607485500033548342e-02 5.368902235016016675e+02
6.711540389700086651e-02 5.187827872422858491e+02
6.815595279366624959e-02 5.013360892791425272e+02
6.919650169033163267e-02 4.799147269656345998e+02
7.023705058699701576e-02 4.614313777429799757e+02
7.127759948366239884e-02 4.431978578963766608e+02
7.231814838032778192e-02 4.250008971483161417e+02
7.335869727699316500e-02 4.069170726731318837e+02
7.439924617365854809e-02 3.909007544629074005e+02
7.543979507032393117e-02 3.743487397376529771e+02
7.648034396698931425e-02 3.564344158979833992e+02
7.752089286365469734e-02 3.395347488209749827e+02
7.856144176032008042e-02 3.243403733818429373e+02
7.960199065698546350e-02 3.104490657636348487e+02
8.064253955365084658e-02 2.950207737198406335e+02
8.168308845031622967e-02 2.815407862557313479e+02
8.272363734698161275e-02 2.685497923222490044e+02
8.376418624364699583e-02 2.538207447641339058e+02
8.480473514031239279e-02 2.408749010652509241e+02
8.584528403697777588e-02 2.284656025208370522e+02
8.688583293364315896e-02 2.168327533076616191e+02
8.792638183030854204e-02 2.054054723713492763e+02
8.896693072697392513e-02 1.923971708151364624e+02
9.000747962363930821e-02 1.797253008393189191e+02
9.104802852030469129e-02 1.700021533885489191e+02
9.208857741697007437e-02 1.605776029124047568e+02
9.312912631363545746e-02 1.514746246564525336e+02
9.416967521030084054e-02 1.416951371875168206e+02
9.521022410696622362e-02 1.308997261120543101e+02
9.625077300363160671e-02 1.211644094134275491e+02
9.729132190029698979e-02 1.124668871666001593e+02
9.833187079696237287e-02 1.046428488143381657e+02
9.937241969362775595e-02 9.575733793011963257e+01
1.004129685902931390e-01 8.849601118398454958e+01
1.014535174869585221e-01 8.226155978731067364e+01
1.024940663836239052e-01 7.624162695086498331e+01
1.035346152802892883e-01 6.956945018005959014e+01
1.045751641769546714e-01 6.348324419513166106e+01
1.056157130736200545e-01 5.857544886868490153e+01
1.066562619702854375e-01 5.319342111006454843e+01
1.076968108669508206e-01 4.848046742164198974e+01
1.087373597636162037e-01 4.409729435610097426e+01
1.097779086602815868e-01 3.989331039657977840e+01
1.108184575569469699e-01 3.594301749023611592e+01
1.118590064536123529e-01 3.231625785307404186e+01
1.128995553502777360e-01 2.874126830054395043e+01
1.139401042469431191e-01 2.537523574022043604e+01
1.149806531436085022e-01 2.250350130914780067e+01
1.160212020402738853e-01 1.974038719218767213e+01
1.170617509369392684e-01 1.750167980820335600e+01
1.181022998336046514e-01 1.471309413797621346e+01
1.191428487302700345e-01 1.282958503092876512e+01
1.201833976269354176e-01 1.156388358186202225e+01
1.212239465236008007e-01 1.011032795047145072e+01
1.222644954202661838e-01 8.648338948999494846e+00
1.233050443169315669e-01 7.270785700068515212e+00
1.243455932135969499e-01 6.148113205442427898e+00
1.253861421102623330e-01 5.123066635042228256e+00
1.264266910069277161e-01 4.541293946665572179e+00
1.274672399035930992e-01 3.917077593013246428e+00
1.285077888002584823e-01 3.258180419273831063e+00
1.295483376969238654e-01 2.854222682048373372e+00
1.305888865935892484e-01 2.904305750641235306e+00
1.316294354902546315e-01 2.550503296249964080e+00
1.326699843869200146e-01 2.095614285025188650e+00
1.337105332835853977e-01 2.119646748756348842e+00
1.347510821802507808e-01 2.324492202797589613e+00
1.357916310769161639e-01 2.239571606102604306e+00
1.368321799735815469e-01 2.424431606015271967e+00
1.378727288702469300e-01 2.588382908490924450e+00
1.389132777669123131e-01 2.594174160367916926e+00
1.399538266635776962e-01 2.751837013939663734e+00
1.409943755602430793e-01 3.488440358419815368e+00
1.420349244569084624e-01 3.909888118287639713e+00
1.430754733535738454e-01 4.368841811739269332e+00
1.441160222502392285e-01 4.698750637093972671e+00
1.451565711469046116e-01 4.905555932411164832e+00
1.461971200435699947e-01 5.588218124427747568e+00
1.472376689402353778e-01 5.802764538072022305e+00
1.482782178369007609e-01 6.094659951658996988e+00
1.493187667335661439e-01 6.426647594931960583e+00
1.503593156302315270e-01 6.994571085189676296e+00
1.513998645268969101e-01 7.544126108561506783e+00
1.524404134235622932e-01 8.111694648494445659e+00
1.534809623202276763e-01 8.329332604527650119e+00
1.545215112168930593e-01 8.761419730291429175e+00
1.555620601135584424e-01 9.112906670010968213e+00
1.566026090102238255e-01 9.556183229588654626e+00
1.576431579068892086e-01 9.958258322369175630e+00
1.586837068035545917e-01 1.012082273697986423e+01
1.597242557002199748e-01 1.045371050941142954e+01
1.607648045968853578e-01 1.047760234576248806e+01
1.618053534935507409e-01 1.052771788862892777e+01
1.628459023902161240e-01 1.095101150708923399e+01
1.638864512868815071e-01 1.081800605085462408e+01
1.649270001835468902e-01 1.087834738283969571e+01
1.659675490802122733e-01 1.123668923354725280e+01
1.670080979768776563e-01 1.141408352884289101e+01
1.680486468735430672e-01 1.135499771510656686e+01
1.690891957702084503e-01 1.127401063468139242e+01
1.701297446668738333e-01 1.121706360901088217e+01
1.711702935635392164e-01 1.160116205023562230e+01
1.722108424602045995e-01 1.143291716074894993e+01
1.732513913568699826e-01 1.122417616059079393e+01
1.742919402535353657e-01 1.085865616379592424e+01
1.753324891502007488e-01 1.073043686347368109e+01
1.763730380468661318e-01 1.079392667480464851e+01
1.774135869435315149e-01 1.060298234997647882e+01
1.784541358401968980e-01 1.038992176434699033e+01
1.794946847368622811e-01 9.965100311158405333e+00
1.805352336335276642e-01 9.926413664163735717e+00
1.815757825301930473e-01 9.680679973257877435e+00
1.826163314268584303e-01 9.456039197818995490e+00
1.836568803235238134e-01 9.284653415165927015e+00
1.846974292201891965e-01 9.304377940081970166e+00
1.857379781168545796e-01 9.032827174363379896e+00
1.867785270135199627e-01 8.492204795593867317e+00
1.878190759101853458e-01 8.337417059757338933e+00
1.888596248068507288e-01 8.167139708359584915e+00
1.899001737035161119e-01 7.853484295581623087e+00
1.909407226001814950e-01 7.234131289149640764e+00
1.919812714968468781e-01 6.891344970117245339e+00
1.930218203935122612e-01 6.969811790481145408e+00
1.940623692901776443e-01 6.389584744411603623e+00
1.951029181868430273e-01 6.063399760477782507e+00
1.961434670835084104e-01 5.707649444236221115e+00
1.971840159801737935e-01 5.524628760582189102e+00
1.982245648768391766e-01 5.254240430195725509e+00
1.992651137735045597e-01 4.843760127347543687e+00
2.003056626701699428e-01 4.397632576601814947e+00
2.013462115668353813e-01 4.284644728938413749e+00
2.023867604635007644e-01 3.906036486238786409e+00
2.034273093601661475e-01 3.561246034505249014e+00
2.044678582568315306e-01 3.035337181519413008e+00
2.055084071534969137e-01 3.068270484453559988e+00
2.065489560501622968e-01 2.987529984102735625e+00
2.075895049468276798e-01 2.787087046516333544e+00
2.086300538434930629e-01 2.503553963313397190e+00
2.096706027401584460e-01 2.347549853686778931e+00
2.107111516368238291e-01 2.312931181445833317e+00
2.117517005334892122e-01 2.158781835135236804e+00
2.127922494301545953e-01 1.912566133893157883e+00
2.138327983268199783e-01 1.690623187276134587e+00
2.148733472234853614e-01 1.380839958036755633e+00
2.159138961201507445e-01 1.368568885598762108e+00
2.169544450168161276e-01 1.257094544751023335e+00
2.179949939134815107e-01 1.081132585191227236e+00
2.190355428101468938e-01 1.050930157684746291e+00
2.200760917068122768e-01 1.045111215847629893e+00
2.211166406034776599e-01 9.940571623109555333e-01
2.221571895001430430e-01 9.067617671189438511e-01
2.231977383968084261e-01 8.518527062591054744e-01
2.242382872934738092e-01 9.242665361022268655e-01
2.252788361901391923e-01 7.853854893497498324e-01
2.263193850868045753e-01 6.608156099409150386e-01
2.273599339834699584e-01 6.956093943722692075e-01
2.284004828801353415e-01 6.996187394535446913e-01
2.294410317768007246e-01 8.230310912762455189e-01
2.304815806734661077e-01 7.097453503590926971e-01
2.315221295701314908e-01 7.111605235193962926e-01
2.325626784667968738e-01 6.623909925510815810e-01
2.336032273634622569e-01 6.840515488645166897e-01
2.346437762601276400e-01 6.983682279866840759e-01
2.356843251567930231e-01 7.038981822674053035e-01
2.367248740534584062e-01 8.141566073213510890e-01
2.377654229501237892e-01 9.273713400789986849e-01
2.388059718467891723e-01 1.023724735471112979e+00
2.398465207434545554e-01 1.145841604591421259e+00
2.408870696401199385e-01 1.124421920619422366e+00
2.419276185367853216e-01 1.441258645767341307e+00
2.429681674334507047e-01 1.216978607555908809e+00
2.440087163301160877e-01 1.105028726274749573e+00
2.450492652267814708e-01 1.214944663147427661e+00
2.460898141234468539e-01 1.238758233030157641e+00
2.471303630201122370e-01 1.010578042119412601e+00
2.481709119167776201e-01 1.076804572804025639e+00
2.492114608134430032e-01 1.456538586916348521e+00
2.502520097101083585e-01 1.593290069773715345e+00
2.512925586067737416e-01 1.481934633906632826e+00
2.523331075034391247e-01 1.604934750854528858e+00
2.533736564001045077e-01 1.423828499303787964e+00
2.544142052967698908e-01 1.514415987627433680e+00
2.554547541934352739e-01 1.672857908043901887e+00
2.564953030901006570e-01 1.630538482590370819e+00
2.575358519867660401e-01 1.557345346547830189e+00
2.585764008834314231e-01 1.484115140965542423e+00
2.596169497800968062e-01 1.616916130063852819e+00
2.606574986767621893e-01 1.905734475904836245e+00
2.616980475734275724e-01 1.881413084344380593e+00
2.627385964700929555e-01 1.742904098006714975e+00
2.637791453667583386e-01 1.768862696754958108e+00
2.648196942634237216e-01 1.812652763638450182e+00
2.658602431600891047e-01 1.957046667586279654e+00
2.669007920567544878e-01 2.198747242706936333e+00
2.679413409534198709e-01 2.063977028033622929e+00
2.689818898500852540e-01 1.900132094305750030e+00
2.700224387467506371e-01 1.772175197096064636e+00
2.710629876434160201e-01 1.854026786556772777e+00
2.721035365400814032e-01 2.026996825149446124e+00
2.731440854367467863e-01 1.942757082930214096e+00
2.741846343334121694e-01 1.739521117293989505e+00
2.752251832300775525e-01 1.889712863147085642e+00
2.762657321267429356e-01 1.891190598321934146e+00
2.773062810234083186e-01 1.591009876065680118e+00
2.783468299200737017e-01 1.686146768980915311e+00
2.793873788167390848e-01 1.654271386098770336e+00
2.804279277134044679e-01 1.650978252400260970e+00
2.814684766100698510e-01 1.520704784598994053e+00
2.825090255067352341e-01 1.577564053092288532e+00
2.835495744034006171e-01 1.553250180891858179e+00
2.845901233000660002e-01 1.393582404023447907e+00
2.856306721967313833e-01 1.377330750058963105e+00
2.866712210933967664e-01 1.334569501798213764e+00
2.877117699900621495e-01 1.395096897455189833e+00
2.887523188867275326e-01 1.247316175805345040e+00
2.897928677833929156e-01 1.109838259314809505e+00
2.908334166800582987e-01 1.054094874057909692e+00
2.918739655767236818e-01 8.619196222868197310e-01
2.929145144733890649e-01 9.200020054581834472e-01
2.939550633700544480e-01 9.637387895680227246e-01
2.949956122667198311e-01 9.791861921171332028e-01
2.960361611633852141e-01 1.046333012218042313e+00
2.970767100600505972e-01 8.402429198501017993e-01
2.981172589567159803e-01 6.955982394643349664e-01
2.991578078533813634e-01 9.343778808447744666e-01
3.001983567500468020e-01 9.506156360456508025e-01
3.012389056467121851e-01 7.219676238030352522e-01
3.022794545433775681e-01 6.233972520973587450e-01
3.033200034400429512e-01 5.307833620061543911e-01
3.043605523367083343e-01 7.127007528004938308e-01
3.054011012333737174e-01 4.957086474973131374e-01
3.064416501300391005e-01 3.849754014412170022e-01
3.074821990267044836e-01 5.537365287423625659e-01
3.085227479233698666e-01 5.408015232569667319e-01
3.095632968200352497e-01 4.736858069162117602e-01
3.106038457167006328e-01 5.091126625723703114e-01
3.116443946133660159e-01 3.159231556984174460e-01
3.126849435100313990e-01 3.823216860675202611e-01
3.137254924066967821e-01 4.258967831215620947e-01
3.147660413033621651e-01 4.803962702869455370e-01
3.158065902000275482e-01 4.936951125653870065e-01
3.168471390966929313e-01 4.206961523997634345e-01
3.178876879933583144e-01 2.453307002344544685e-01
3.189282368900236975e-01 2.926447216447485289e-01
3.199687857866890806e-01 4.503056692122271443e-01
3.210093346833544636e-01 3.516675043150314650e-01
3.220498835800198467e-01 2.364743608690282883e-01
3.230904324766852298e-01 2.146800488717772737e-01
3.241309813733506129e-01 1.924829989462644164e-01
3.251715302700159960e-01 1.858747856509559426e-01
3.262120791666813790e-01 2.792633280280014674e-01
3.272526280633467621e-01 3.870655183546318767e-01
3.282931769600121452e-01 3.467779375915398532e-01
3.293337258566775283e-01 2.905692014377976307e-01
3.303742747533429114e-01 3.012070494319658565e-01
3.314148236500082945e-01 2.052403427176905382e-01
3.324553725466736775e-01 3.830866842300437725e-01
3.334959214433390606e-01 2.056801926578160078e-01
3.345364703400044437e-01 2.321746221132059418e-02
3.355770192366698268e-01 3.753335273571352104e-01
3.366175681333352099e-01 6.468796297196384160e-01
3.376581170300005930e-01 4.883951489211426633e-01
3.386986659266659760e-01 4.488916586426299205e-01
3.397392148233313591e-01 3.961132117155798937e-01
3.407797637199967422e-01 3.988703381198952513e-01
3.418203126166621253e-01 4.787193372212428244e-01
3.428608615133275084e-01 3.190018375687770913e-01
3.439014104099928915e-01 2.723851977356872567e-01
3.449419593066582745e-01 3.622626513815738747e-01
3.459825082033236576e-01 4.051412385220523049e-01
3.470230570999890407e-01 5.039958125082506513e-01
3.480636059966544238e-01 5.291011928286621924e-01
3.491041548933198069e-01 6.337015850112059923e-01
3.501447037899851900e-01 5.844134606550177580e-01
3.511852526866505730e-01 5.232238331594558645e-01
3.522258015833159561e-01 5.422334694022126200e-01
3.532663504799813392e-01 6.978400290378701243e-01
3.543068993766467223e-01 6.736050678157710081e-01
3.553474482733121054e-01 6.088123913624770012e-01
3.563879971699774885e-01 4.594792091192765326e-01
3.574285460666428715e-01 6.875746331231518127e-01
3.584690949633082546e-01 6.637826949439720181e-01
3.595096438599736377e-01 5.677930059979630073e-01
3.605501927566390208e-01 5.501327903350983206e-01
3.615907416533044039e-01 5.512192564707945053e-01
3.626312905499697870e-01 6.792827778998322685e-01
3.636718394466351700e-01 7.780086852660730301e-01
3.647123883433005531e-01 7.962981746434643071e-01
3.657529372399659362e-01 7.276082854652123899e-01
3.667934861366313193e-01 6.761616596357988840e-01
3.678340350332967024e-01 7.061716601854897135e-01
3.688745839299620854e-01 7.993374690077921230e-01
3.699151328266274685e-01 5.981111426553908927e-01
3.709556817232928516e-01 5.083585474212988231e-01
3.719962306199582347e-01 4.666415311133285115e-01
3.730367795166236178e-01 4.584620221023243403e-01
3.740773284132890009e-01 6.153313700352640581e-01
3.751178773099543839e-01 4.206365994648351148e-01
3.761584262066197670e-01 4.989278504324019536e-01
3.771989751032851501e-01 6.510530587016134518e-01
3.782395239999505332e-01 7.254149415241180066e-01
3.792800728966159163e-01 5.611527579998849546e-01
3.803206217932812994e-01 4.377912205729650452e-01
3.813611706899466824e-01 4.895704897528929678e-01
3.824017195866120655e-01 5.209903779020592651e-01
3.834422684832774486e-01 4.728159887875023060e-01
3.844828173799428317e-01 4.806090987298397010e-01
3.855233662766082148e-01 4.792711693972400155e-01
3.865639151732735979e-01 3.205362393620383443e-01
3.876044640699389809e-01 2.270858898855045993e-01
3.886450129666043640e-01 3.353153013894782930e-01
3.896855618632697471e-01 4.331107711669766047e-01
3.907261107599351302e-01 3.474563553481999634e-01
3.917666596566005133e-01 2.846656734823334034e-01
3.928072085532658964e-01 3.646426020957314051e-01
3.938477574499312794e-01 3.141920011473260388e-01
3.948883063465966625e-01 3.045602818589507876e-01
3.959288552432620456e-01 2.432250178133941176e-01
3.969694041399274287e-01 3.035033827723623290e-01
3.980099530365928118e-01 1.645630827056834278e-01
3.990505019332581949e-01 0.000000000000000000e+00
4.000910508299235779e-01 1.233898080026811783e-01
4.011315997265889610e-01 8.594256400187916256e-02
4.021721486232543441e-01 1.964372706935400004e-01
4.032126975199197272e-01 2.592183754656325334e-01
4.042532464165851103e-01 3.077052633549968164e-01
4.052937953132504934e-01 2.146692570723374160e-01
4.063343442099158764e-01 3.499292693413309507e-01
4.073748931065812595e-01 3.850343714633090997e-01
4.084154420032466426e-01 3.302404934697058536e-01
4.094559908999120257e-01 2.944731392610506759e-01
4.104965397965774088e-01 2.529797603956396301e-01
4.115370886932427918e-01 3.008528623718298434e-01
4.125776375899081749e-01 2.352382909379215903e-01
4.136181864865735580e-01 1.794502446564081310e-01
4.146587353832389411e-01 2.863932111528555424e-01
4.156992842799043242e-01 2.900771762048357516e-01
4.167398331765697073e-01 2.786629706660264105e-01
4.177803820732350903e-01 3.248754150031025745e-01
4.188209309699004734e-01 2.738037834045918828e-01
4.198614798665658565e-01 2.627215263970583692e-01
4.209020287632312396e-01 2.414159435040268420e-01
4.219425776598966227e-01 3.637916811761741087e-01
4.229831265565620058e-01 4.012137040693168899e-01
4.240236754532273888e-01 3.177058458065324942e-01
4.250642243498927719e-01 2.317448185866872734e-01
4.261047732465581550e-01 3.413240406846291819e-01
4.271453221432235381e-01 2.901728292221328331e-01
4.281858710398889212e-01 1.663129860471634913e-01
4.292264199365543043e-01 1.435125160751695716e-01
4.302669688332196873e-01 2.597146606786289169e-01
4.313075177298850704e-01 3.050569289118278959e-01
4.323480666265504535e-01 2.193818551067820977e-01
4.333886155232158366e-01 1.384415918520538469e-01
4.344291644198812197e-01 2.957364597799809758e-01
