# q (1/Angstrom), Intensity (arb)
2.029070354705860696e-02 1.373375214682394699e+03
2.133125244372399004e-02 1.368929229640599260e+03
2.237180134038937659e-02 1.364394577516721483e+03
2.341235023705475968e-02 1.360194242193711034e+03
2.445289913372014276e-02 1.342468387576332361e+03
2.549344803038552584e-02 1.328280788848232532e+03
2.653399692705091240e-02 1.320569355802900873e+03
2.757454582371629548e-02 1.303783534728236646e+03
2.861509472038167856e-02 1.288202368228404339e+03
2.965564361704706164e-02 1.276683103309328317e+03
3.069619251371244473e-02 1.256575830583015659e+03
3.173674141037782781e-02 1.240479481781850382e+03
3.277729030704321089e-02 1.224672698710740178e+03
3.381783920370859398e-02 1.206951179755774092e+03
3.485838810037397706e-02 1.185387628573697612e+03
3.589893699703936014e-02 1.167368646472760247e+03
3.693948589370474322e-02 1.145941409322067329e+03
3.798003479037012631e-02 1.125246949455125332e+03
3.902058368703550939e-02 1.107294431908391061e+03
4.006113258370089247e-02 1.087197670671622291e+03
4.110168148036627556e-02 1.063614626659648138e+03
4.214223037703165864e-02 1.044654221426687172e+03
4.318277927369704866e-02 1.022425897528173209e+03
4.422332817036243174e-02 9.944105884370964077e+02
4.526387706702781483e-02 9.747631960828123283e+02
4.630442596369319791e-02 9.521731731527025886e+02
4.734497486035858099e-02 9.315679687639826625e+02
4.838552375702396408e-02 9.082781775514390574e+02
4.942607265368934716e-02 8.856903955877768340e+02
5.046662155035473024e-02 8.650138287466165821e+02
5.150717044702011332e-02 8.409423024147033630e+02
5.254771934368549641e-02 8.178078677801353251e+02
5.358826824035087949e-02 7.940138656508058830e+02
5.462881713701626257e-02 7.715307294590772926e+02
5.566936603368164566e-02 7.524767599391173007e+02
5.670991493034702874e-02 7.319603966848377468e+02
5.775046382701241182e-02 7.068529156955454482e+02
5.879101272367779490e-02 6.871249767789140606e+02
5.983156162034317799e-02 6.665748678232242810e+02
6.087211051700856107e-02 6.426147523775720174e+02
6.191265941367394415e-02 6.218061578686819075e+02
6.295320831033933417e-02 6.035763312419014710e+02
6.399375720700471726e-02 5.810455187650352400e+02
6.503430610367010034e-02 5.619400713840760773e+02
6.607485500033548342e-02 5.412541693410428252e+02
6.711540389700086651e-02 5.220217947274953758e+02
6.815595279366624959e-02 5.002855128339338080e+02
6.919650169033163267e-02 4.809269467533659395e+02
7.023705058699701576e-02 4.627081298027885055e+02
7.127759948366239884e-02 4.441428743808781974e+02
7.231814838032778192e-02 4.247474788143568958e+02
7.335869727699316500e-02 4.087244956869814132e+02
7.439924617365854809e-02 3.936109059881525241e+02
7.543979507032393117e-02 3.755177481821768311e+02
7.648034396698931425e-02 3.567882674064377397e+02
7.752089286365469734e-02 3.424011121558952482e+02
7.856144176032008042e-02 3.266681864388444865e+02
7.960199065698546350e-02 3.107558143349604052e+02
8.064253955365084658e-02 2.954472374359511377e+02
8.168308845031622967e-02 2.790611615399869265e+02
8.272363734698161275e-02 2.657419694097995375e+02
8.376418624364699583e-02 2.531057253883340366e+02
8.480473514031239279e-02 2.390324919209182610e+02
8.584528403697777588e-02 2.269629162446832993e+02
8.688583293364315896e-02 2.142823957675334157e+02
8.792638183030854204e-02 2.023030543940634800e+02
8.896693072697392513e-02 1.909625913363081509e+02
9.000747962363930821e-02 1.798066820421950354e+02
9.104802852030469129e-02 1.694925646506071928e+02
9.208857741697007437e-02 1.580887828121217353e+02
9.312912631363545746e-02 1.475642200340840020e+02
9.416967521030084054e-02 1.383755519296596503e+02
9.521022410696622362e-02 1.293538978990715691e+02
9.625077300363160671e-02 1.210810557101728904e+02
9.729132190029698979e-02 1.127271402352340601e+02
9.833187079696237287e-02 1.042094224160806846e+02
9.937241969362775595e-02 9.567928657158566352e+01
1.004129685902931390e-01 8.850709582140605391e+01
1.014535174869585221e-01 8.222466638893280333e+01
1.024940663836239052e-01 7.636432337668351522e+01
1.035346152802892883e-01 7.023037340449755561e+01
1.045751641769546714e-01 6.411428939411774763e+01
1.056157130736200545e-01 5.869911785060331511e+01
1.066562619702854375e-01 5.305039823330414350e+01
1.076968108669508206e-01 4.834321962965694297e+01
1.087373597636162037e-01 4.332473759454163797e+01
1.097779086602815868e-01 3.908167195542596062e+01
1.108184575569469699e-01 3.495903722773995526e+01
1.118590064536123529e-01 3.173603639273642685e+01
1.128995553502777360e-01 2.837189007284353437e+01
1.139401042469431191e-01 2.546859099763492651e+01
1.149806531436085022e-01 2.322173879263159790e+01
1.160212020402738853e-01 2.026346814430496579e+01
1.170617509369392684e-01 1.749707369284627134e+01
1.181022998336046514e-01 1.529281047843500829e+01
1.191428487302700345e-01 1.337798791323514536e+01
1.201833976269354176e-01 1.194015011474507304e+01
1.212239465236008007e-01 1.040828651041812591e+01
1.222644954202661838e-01 8.992590419670129620e+00
1.233050443169315669e-01 7.592436030333470143e+00
1.243455932135969499e-01 6.455402293280922521e+00
1.253861421102623330e-01 5.922414811476944152e+00
1.264266910069277161e-01 5.352773378387226444e+00
1.274672399035930992e-01 4.630782218513491699e+00
1.285077888002584823e-01 3.647455981346876541e+00
1.295483376969238654e-01 3.150646971202792912e+00
1.305888865935892484e-01 2.937324122039012053e+00
1.316294354902546315e-01 2.602421642068527774e+00
1.326699843869200146e-01 2.416631691460953135e+00
1.337105332835853977e-01 1.951363022250120594e+00
1.347510821802507808e-01 2.123539252429498703e+00
1.357916310769161639e-01 2.290610881625305240e+00
1.368321799735815469e-01 2.349162938419166125e+00
1.378727288702469300e-01 3.006055282776419091e+00
1.389132777669123131e-01 2.674897475465694896e+00
1.399538266635776962e-01 2.885082687949402924e+00
1.409943755602430793e-01 3.536627438707867555e+00
1.420349244569084624e-01 3.876943122225622318e+00
1.430754733535738454e-01 4.293825048472381667e+00
1.441160222502392285e-01 4.847123061563124224e+00
1.451565711469046116e-01 4.991267202095752253e+00
1.461971200435699947e-01 5.543650778362646747e+00
1.472376689402353778e-01 5.786522900365682176e+00
1.482782178369007609e-01 6.154147619349149778e+00
1.493187667335661439e-01 6.444152026623996221e+00
1.503593156302315270e-01 6.922095427280591906e+00
1.513998645268969101e-01 7.576447532455137690e+00
1.524404134235622932e-01 7.981507593350446683e+00
1.534809623202276763e-01 8.382165423776562818e+00
1.545215112168930593e-01 8.880349853434754692e+00
1.555620601135584424e-01 9.232231760558214262e+00
1.566026090102238255e-01 9.556893136323285631e+00
1.576431579068892086e-01 9.788655462618944370e+00
1.586837068035545917e-01 1.009798401034431592e+01
1.597242557002199748e-01 1.055046781313558668e+01
1.607648045968853578e-01 1.073815062925499575e+01
1.618053534935507409e-01 1.085359811548064712e+01
1.628459023902161240e-01 1.086680348477164415e+01
1.638864512868815071e-01 1.097921348510537598e+01
1.649270001835468902e-01 1.096134013491326087e+01
1.659675490802122733e-01 1.099866523587124334e+01
1.670080979768776563e-01 1.118807382515655746e+01
1.680486468735430672e-01 1.141797140924470710e+01
1.690891957702084503e-01 1.164778543496857210e+01
1.701297446668738333e-01 1.145662665265410851e+01
1.711702935635392164e-01 1.115721994643472925e+01
1.722108424602045995e-01 1.123657766488297938e+01
1.732513913568699826e-01 1.106942405857236622e+01
1.742919402535353657e-01 1.077823264981432416e+01
1.753324891502007488e-01 1.092676909759734016e+01
1.763730380468661318e-01 1.102103336606866435e+01
1.774135869435315149e-01 1.073054406902373259e+01
1.784541358401968980e-01 1.041883285453273444e+01
1.794946847368622811e-01 1.016606699626848709e+01
1.805352336335276642e-01 1.013174022315249445e+01
1.815757825301930473e-01 9.907739559588957690e+00
1.826163314268584303e-01 9.653673942627808202e+00
1.836568803235238134e-01 9.551740908915483885e+00
1.846974292201891965e-01 9.167169204952838157e+00
1.857379781168545796e-01 8.942515776683791273e+00
1.867785270135199627e-01 8.822615706407901826e+00
1.878190759101853458e-01 8.511111455841657403e+00
1.888596248068507288e-01 8.120609389120282628e+00
1.899001737035161119e-01 7.796564323306650834e+00
1.909407226001814950e-01 7.594345589203477687e+00
1.919812714968468781e-01 7.086748221544528548e+00
1.930218203935122612e-01 6.785146975433981709e+00
1.940623692901776443e-01 6.337717181599899163e+00
1.951029181868430273e-01 6.128288567015825805e+00
1.961434670835084104e-01 5.695452092333358252e+00
1.971840159801737935e-01 5.318661443350539031e+00
1.982245648768391766e-01 5.014600926577191586e+00
1.992651137735045597e-01 4.855907165338081199e+00
2.003056626701699428e-01 4.579834767603308876e+00
2.013462115668353813e-01 4.435976689894925329e+00
2.023867604635007644e-01 4.166205009377719648e+00
2.034273093601661475e-01 3.942686847746795564e+00
2.044678582568315306e-01 3.763215798549708779e+00
2.055084071534969137e-01 3.186795193990583641e+00
2.065489560501622968e-01 2.845586139279504323e+00
2.075895049468276798e-01 2.660622478245816325e+00
2.086300538434930629e-01 2.458412321852637916e+00
2.096706027401584460e-01 2.220845235735854573e+00
2.107111516368238291e-01 2.129338044433300325e+00
2.117517005334892122e-01 1.891316496538237857e+00
2.127922494301545953e-01 1.815574017642692439e+00
2.138327983268199783e-01 1.810996619211636016e+00
2.148733472234853614e-01 1.572727520088811559e+00
2.159138961201507445e-01 1.595335393084358344e+00
2.169544450168161276e-01 1.442379357069729195e+00
2.179949939134815107e-01 1.438046743222589186e+00
2.190355428101468938e-01 1.306983930535214000e+00
2.200760917068122768e-01 1.084187438566768691e+00
2.211166406034776599e-01 1.189407833859913666e+00
2.221571895001430430e-01 1.025388574444221490e+00
2.231977383968084261e-01 7.098474865715580506e-01
2.242382872934738092e-01 7.452968324484849916e-01
2.252788361901391923e-01 9.244089636172176938e-01
2.263193850868045753e-01 9.561057379168218517e-01
2.273599339834699584e-01 7.837782719253034713e-01
2.284004828801353415e-01 6.291266957077716881e-01
2.294410317768007246e-01 7.257140073458785423e-01
2.304815806734661077e-01 9.779771295595338643e-01
2.315221295701314908e-01 9.369354083743566264e-01
2.325626784667968738e-01 8.432232732748587978e-01
2.336032273634622569e-01 9.159594489154230246e-01
2.346437762601276400e-01 8.951656503817915222e-01
2.356843251567930231e-01 8.283601904519706238e-01
2.367248740534584062e-01 8.107593380903423963e-01
2.377654229501237892e-01 7.172679543003930291e-01
2.388059718467891723e-01 8.279401292010675206e-01
2.398465207434545554e-01 9.175587464342278565e-01
2.408870696401199385e-01 9.570604323261022728e-01
2.419276185367853216e-01 1.125187523671804968e+00
2.429681674334507047e-01 1.200902902666978633e+00
2.440087163301160877e-01 1.367355377171062258e+00
2.450492652267814708e-01 1.319558157699042056e+00
2.460898141234468539e-01 1.010119866646498110e+00
2.471303630201122370e-01 1.236406200450982595e+00
2.481709119167776201e-01 1.203534065462552149e+00
2.492114608134430032e-01 1.497406688318669410e+00
2.502520097101083585e-01 1.472598286410050861e+00
2.512925586067737416e-01 1.425516846435211704e+00
2.523331075034391247e-01 1.412645037076806886e+00
2.533736564001045077e-01 1.628973606567996057e+00
2.544142052967698908e-01 1.778106438939691003e+00
2.554547541934352739e-01 1.816895991301784363e+00
2.564953030901006570e-01 1.974864940897084864e+00
2.575358519867660401e-01 2.027537045784750802e+00
2.585764008834314231e-01 2.133486291544372193e+00
2.596169497800968062e-01 1.907800485583063477e+00
2.606574986767621893e-01 1.753675051586377265e+00
2.616980475734275724e-01 1.949097739214600722e+00
2.627385964700929555e-01 1.831419388924935276e+00
2.637791453667583386e-01 1.942591737842835897e+00
2.648196942634237216e-01 2.013004975577153743e+00
2.658602431600891047e-01 2.024474527584988692e+00
2.669007920567544878e-01 1.755604720838199739e+00
2.679413409534198709e-01 1.905739277260732223e+00
2.689818898500852540e-01 1.747371879977269060e+00
2.700224387467506371e-01 1.670479156958581513e+00
2.710629876434160201e-01 1.770676499465142939e+00
2.721035365400814032e-01 1.956878258043065699e+00
2.731440854367467863e-01 1.844046171013051350e+00
2.741846343334121694e-01 1.814093274940873357e+00
2.752251832300775525e-01 1.996357081172977388e+00
2.762657321267429356e-01 1.992463662609342379e+00
2.773062810234083186e-01 1.864933379546442893e+00
2.783468299200737017e-01 1.846389981716157536e+00
2.793873788167390848e-01 1.488863508215874987e+00
2.804279277134044679e-01 1.410473555473632956e+00
2.814684766100698510e-01 1.603176937911882760e+00
2.825090255067352341e-01 1.609473354562211966e+00
2.835495744034006171e-01 1.549111472642231035e+00
2.845901233000660002e-01 1.413603239279787260e+00
2.856306721967313833e-01 1.479159556553785393e+00
2.866712210933967664e-01 1.399885353639458430e+00
2.877117699900621495e-01 1.415360071855385371e+00
2.887523188867275326e-01 1.260382366565817591e+00
2.897928677833929156e-01 1.137290318025254265e+00
2.908334166800582987e-01 1.403467163620412350e+00
2.918739655767236818e-01 1.365224699484670623e+00
2.929145144733890649e-01 1.357044356773766225e+00
2.939550633700544480e-01 1.599434153275719694e+00
2.949956122667198311e-01 1.462421441990791493e+00
2.960361611633852141e-01 1.172709235979073839e+00
2.970767100600505972e-01 9.953027485245371508e-01
2.981172589567159803e-01 8.819450591121409389e-01
2.991578078533813634e-01 9.271221602411081619e-01
3.001983567500468020e-01 6.620388516555593128e-01
3.012389056467121851e-01 7.401681747659161204e-01
3.022794545433775681e-01 7.183655753240572039e-01
3.033200034400429512e-01 5.956664108704892158e-01
3.043605523367083343e-01 5.846014919801056919e-01
3.054011012333737174e-01 5.693952917859483875e-01
3.064416501300391005e-01 6.143032198971738467e-01
3.074821990267044836e-01 4.529633819963407859e-01
3.085227479233698666e-01 4.418897712612732676e-01
3.095632968200352497e-01 6.078389234761125692e-01
3.106038457167006328e-01 5.027675675437244251e-01
3.116443946133660159e-01 4.580992138403381375e-01
3.126849435100313990e-01 4.341940753915416451e-01
3.137254924066967821e-01 5.459664399472679008e-01
3.147660413033621651e-01 4.684241537196278671e-01
3.158065902000275482e-01 6.696369572098319622e-01
3.168471390966929313e-01 6.232019612281725074e-01
3.178876879933583144e-01 5.815918106675894705e-01
3.189282368900236975e-01 4.851214111654513772e-01
3.199687857866890806e-01 2.544044699448768654e-01
3.210093346833544636e-01 2.472651840116562028e-01
3.220498835800198467e-01 3.805934358097040615e-01
3.230904324766852298e-01 2.977147132565569621e-01
3.241309813733506129e-01 2.786966663789698373e-01
3.251715302700159960e-01 2.284311211663627716e-01
3.262120791666813790e-01 4.296127639846822888e-01
3.272526280633467621e-01 4.344538404765323492e-01
3.282931769600121452e-01 4.795778537237929129e-01
3.293337258566775283e-01 3.689890469777061810e-01
3.303742747533429114e-01 5.429976843394435093e-01
3.314148236500082945e-01 5.869660367121056765e-01
3.324553725466736775e-01 5.774940406718442887e-01
3.334959214433390606e-01 6.479798963777767540e-01
3.345364703400044437e-01 5.391433879248843652e-01
3.355770192366698268e-01 3.932781495246615577e-01
3.366175681333352099e-01 6.842255260838356890e-01
3.376581170300005930e-01 6.912403272689147116e-01
3.386986659266659760e-01 5.285632327555340737e-01
3.397392148233313591e-01 5.383654318191943844e-01
3.407797637199967422e-01 4.420077535774140642e-01
3.418203126166621253e-01 4.491511516430364281e-01
3.428608615133275084e-01 7.481978091965650890e-01
3.439014104099928915e-01 6.117220583168112569e-01
3.449419593066582745e-01 5.413823878196204475e-01
3.459825082033236576e-01 5.384236970407698664e-01
3.470230570999890407e-01 6.863170703010723628e-01
3.480636059966544238e-01 6.307860494909434124e-01
3.491041548933198069e-01 6.263953904037862230e-01
3.501447037899851900e-01 6.296061173049203319e-01
3.511852526866505730e-01 6.682202171021671688e-01
3.522258015833159561e-01 6.560577051527261006e-01
3.532663504799813392e-01 5.812883260618768588e-01
3.543068993766467223e-01 7.202705911631959168e-01
3.553474482733121054e-01 7.617785978656819168e-01
3.563879971699774885e-01 6.448325759309909699e-01
3.574285460666428715e-01 5.542089467943540626e-01
3.584690949633082546e-01 5.257979482091670320e-01
3.595096438599736377e-01 6.345318046334078588e-01
3.605501927566390208e-01 6.026884261042013691e-01
3.615907416533044039e-01 5.466279403102767276e-01
3.626312905499697870e-01 7.228870711475217092e-01
3.636718394466351700e-01 8.099241356066642084e-01
3.647123883433005531e-01 6.615644006004615107e-01
3.657529372399659362e-01 3.762585262219886317e-01
3.667934861366313193e-01 7.069906120961242380e-01
3.678340350332967024e-01 8.807167553455741427e-01
3.688745839299620854e-01 7.131268391752634273e-01
3.699151328266274685e-01 6.120350382625083796e-01
3.709556817232928516e-01 5.822865551430673747e-01
3.719962306199582347e-01 6.045201560789550399e-01
3.730367795166236178e-01 6.892332138667107699e-01
3.740773284132890009e-01 5.773087109730958844e-01
3.751178773099543839e-01 6.400941045379866523e-01
3.761584262066197670e-01 6.579941952461823007e-01
3.771989751032851501e-01 4.430564531558118802e-01
3.782395239999505332e-01 4.513408276110197903e-01
3.792800728966159163e-01 5.891672538294869810e-01
3.803206217932812994e-01 6.385457798853835243e-01
3.813611706899466824e-01 4.835230830255561330e-01
3.824017195866120655e-01 5.066900271144234580e-01
3.834422684832774486e-01 5.336946596450147240e-01
3.844828173799428317e-01 5.087555860144910014e-01
3.855233662766082148e-01 5.103415144658960401e-01
3.865639151732735979e-01 4.373817952239740237e-01
3.876044640699389809e-01 4.561612592842685387e-01
3.886450129666043640e-01 4.965404587158310790e-01
3.896855618632697471e-01 4.835375732579763053e-01
3.907261107599351302e-01 3.681350453094935915e-01
3.917666596566005133e-01 4.817011846618299842e-01
3.928072085532658964e-01 3.340009410560824676e-01
3.938477574499312794e-01 2.435106695365760743e-01
3.948883063465966625e-01 2.436744338516767527e-01
3.959288552432620456e-01 3.431883914014335346e-01
3.969694041399274287e-01 2.408689264926380247e-01
3.980099530365928118e-01 1.215692825067513638e-01
3.990505019332581949e-01 1.589464211866697951e-01
4.000910508299235779e-01 1.361377953437781230e-01
4.011315997265889610e-01 1.855822073154627105e-01
4.021721486232543441e-01 1.708137470588901863e-01
4.032126975199197272e-01 2.364203436824929838e-01
4.042532464165851103e-01 2.716017809460957722e-01
4.052937953132504934e-01 2.586034794537113157e-01
4.063343442099158764e-01 3.181951935722437952e-01
4.073748931065812595e-01 3.376172278578053465e-01
4.084154420032466426e-01 2.682974018359551849e-01
4.094559908999120257e-01 2.483560553808743521e-01
4.104965397965774088e-01 3.680158360179177635e-01
4.115370886932427918e-01 2.791168651041502358e-01
4.125776375899081749e-01 3.870943299533458060e-01
4.136181864865735580e-01 2.963565020433378550e-01
4.146587353832389411e-01 3.054850318032187317e-01
4.156992842799043242e-01 4.692586890340955108e-01
4.167398331765697073e-01 4.521837261118477613e-01
4.177803820732350903e-01 2.617912815831289208e-01
4.188209309699004734e-01 3.066612749286967698e-01
4.198614798665658565e-01 3.514941095648680403e-01
4.209020287632312396e-01 3.888978027557641326e-01
4.219425776598966227e-01 2.688517364620750527e-01
4.229831265565620058e-01 2.407525221754909239e-01
4.240236754532273888e-01 3.249313129448232473e-01
4.250642243498927719e-01 3.007537172803580461e-01
4.261047732465581550e-01 3.356353571592798346e-01
4.271453221432235381e-01 2.384709608851522944e-01
4.281858710398889212e-01 4.546504794892598511e-01
4.292264199365543043e-01 4.379672981670985621e-01
4.302669688332196873e-01 4.022247585875362574e-01
4.313075177298850704e-01 2.658870773811337074e-01
4.323480666265504535e-01 3.773908393581599796e-01
4.333886155232158366e-01 4.550044582996939369e-01
4.344291644198812197e-01 3.655837138307092005e-01
