# q (1/Angstrom), Intensity (arb)
2.029070354705860696e-02 1.322661456722077673e+03
2.133125244372399004e-02 1.317128861692413693e+03
2.237180134038937659e-02 1.308773378776481877e+03
2.341235023705475968e-02 1.300686733298716717e+03
2.445289913372014276e-02 1.293806648152682783e+03
2.549344803038552584e-02 1.280035545091970789e+03
2.653399692705091240e-02 1.269492857340857199e+03
2.757454582371629548e-02 1.262590647484970305e+03
2.861509472038167856e-02 1.244534770051193391e+03
2.965564361704706164e-02 1.225247999687001993e+03
3.069619251371244473e-02 1.211551923620531852e+03
3.173674141037782781e-02 1.198211138928761102e+03
3.277729030704321089e-02 1.181298657142774573e+03
3.381783920370859398e-02 1.162483332171920893e+03
3.485838810037397706e-02 1.146486575249667794e+03
3.589893699703936014e-02 1.126690387891341970e+03
3.693948589370474322e-02 1.106773202407098552e+03
3.798003479037012631e-02 1.087972625584008938e+03
3.902058368703550939e-02 1.068620286100642261e+03
4.006113258370089247e-02 1.044929612334201693e+03
4.110168148036627556e-02 1.023753481382145310e+03
4.214223037703165864e-02 1.004455989361360935e+03
4.318277927369704866e-02 9.819382321676619085e+02
4.422332817036243174e-02 9.649102251066899498e+02
4.526387706702781483e-02 9.435157009521321925e+02
4.630442596369319791e-02 9.195741602197322209e+02
4.734497486035858099e-02 8.996701726678124942e+02
4.838552375702396408e-02 8.779709049423786382e+02
4.942607265368934716e-02 8.591201698121186610e+02
5.046662155035473024e-02 8.346380695211137208e+02
5.150717044702011332e-02 8.138350449633136350e+02
5.254771934368549641e-02 7.896824066797742034e+02
5.358826824035087949e-02 7.666275459413233193e+02
5.462881713701626257e-02 7.455745237180242384e+02
5.566936603368164566e-02 7.240727631548028285e+02
5.670991493034702874e-02 7.031940520353244892e+02
5.775046382701241182e-02 6.834325647092481404e+02
5.879101272367779490e-02 6.632180416591100993e+02
5.983156162034317799e-02 6.419093920180415580e+02
6.087211051700856107e-02 6.216361484378845716e+02
6.191265941367394415e-02 6.006929410464990724e+02
6.295320831033933417e-02 5.784276715338064605e+02
6.399375720700471726e-02 5.596490756355827898e+02
6.503430610367010034e-02 5.413953072436221419e+02
6.607485500033548342e-02 5.229390198426225425e+02
6.711540389700086651e-02 5.035853312612259174e+02
6.815595279366624959e-02 4.844054001377070904e+02
6.919650169033163267e-02 4.654858141185392810e+02
7.023705058699701576e-02 4.457472536737950577e+02
7.127759948366239884e-02 4.273363096373136614e+02
7.231814838032778192e-02 4.097423792668981832e+02
7.335869727699316500e-02 3.924174113052727648e+02
7.439924617365854809e-02 3.772165247642632266e+02
7.543979507032393117e-02 3.608166455914370658e+02
7.648034396698931425e-02 3.436645581442740536e+02
7.752089286365469734e-02 3.291902546147518933e+02
7.856144176032008042e-02 3.134824890820236760e+02
7.960199065698546350e-02 2.980176331544007553e+02
8.064253955365084658e-02 2.826687222753835727e+02
8.168308845031622967e-02 2.681696725857987076e+02
8.272363734698161275e-02 2.555091548238852681e+02
8.376418624364699583e-02 2.434680749967852194e+02
8.480473514031239279e-02 2.298647454193117312e+02
8.584528403697777588e-02 2.167735578855832159e+02
8.688583293364315896e-02 2.050231894308635674e+02
8.792638183030854204e-02 1.921557782533060106e+02
8.896693072697392513e-02 1.813309958872783909e+02
9.000747962363930821e-02 1.713862640237291828e+02
9.104802852030469129e-02 1.613590053993712559e+02
9.208857741697007437e-02 1.508760438055652457e+02
9.312912631363545746e-02 1.414044100013823879e+02
9.416967521030084054e-02 1.328213357630739040e+02
9.521022410696622362e-02 1.235632300444239888e+02
9.625077300363160671e-02 1.149333622496060627e+02
9.729132190029698979e-02 1.067997655091496938e+02
9.833187079696237287e-02 9.897024336393295130e+01
9.937241969362775595e-02 9.194269473545347182e+01
1.004129685902931390e-01 8.496794758119767721e+01
1.014535174869585221e-01 7.832820557300121322e+01
1.024940663836239052e-01 7.203525269840420719e+01
1.035346152802892883e-01 6.692449956379356024e+01
1.045751641769546714e-01 6.141491746144308195e+01
1.056157130736200545e-01 5.555787084118256303e+01
1.066562619702854375e-01 4.996904783171366660e+01
1.076968108669508206e-01 4.544504904152729097e+01
1.087373597636162037e-01 4.155610520695879018e+01
1.097779086602815868e-01 3.746806080550612705e+01
1.108184575569469699e-01 3.395919137581806524e+01
1.118590064536123529e-01 3.048819198400592967e+01
1.128995553502777360e-01 2.732650314409386638e+01
1.139401042469431191e-01 2.435932064654113560e+01
1.149806531436085022e-01 2.161113454544612367e+01
1.160212020402738853e-01 1.862992932197275309e+01
1.170617509369392684e-01 1.699622385251824852e+01
1.181022998336046514e-01 1.498191871214087811e+01
1.191428487302700345e-01 1.319782972894571671e+01
1.201833976269354176e-01 1.124274560420013458e+01
1.212239465236008007e-01 9.238624111247482062e+00
1.222644954202661838e-01 7.531053231022571737e+00
1.233050443169315669e-01 6.703646714506334092e+00
1.243455932135969499e-01 5.771662076192416890e+00
1.253861421102623330e-01 4.803385867474815996e+00
1.264266910069277161e-01 4.198828712155510345e+00
1.274672399035930992e-01 3.722434846984182144e+00
1.285077888002584823e-01 3.385790082781579002e+00
1.295483376969238654e-01 2.916166456290579134e+00
1.305888865935892484e-01 2.504955348635679258e+00
1.316294354902546315e-01 2.278464665465474326e+00
1.326699843869200146e-01 2.502615062814204094e+00
1.337105332835853977e-01 2.738255460619644310e+00
1.347510821802507808e-01 2.596481353698685268e+00
1.357916310769161639e-01 2.391182270331665194e+00
1.368321799735815469e-01 2.702299009559094856e+00
1.378727288702469300e-01 2.555824586683208111e+00
1.389132777669123131e-01 2.830157910385185716e+00
1.399538266635776962e-01 3.076608527436249574e+00
1.409943755602430793e-01 3.548225654013631214e+00
1.420349244569084624e-01 4.192655330945758152e+00
1.430754733535738454e-01 4.343601070093779271e+00
1.441160222502392285e-01 4.693005657805262132e+00
1.451565711469046116e-01 5.389812592015271520e+00
1.461971200435699947e-01 5.573313440413539155e+00
1.472376689402353778e-01 5.515693224928725158e+00
1.482782178369007609e-01 5.952950223114427786e+00
1.493187667335661439e-01 6.401255353695813000e+00
1.503593156302315270e-01 6.756636189475422327e+00
1.513998645268969101e-01 7.344377941600289006e+00
1.524404134235622932e-01 7.867560219386252385e+00
1.534809623202276763e-01 8.612000813080609163e+00
1.545215112168930593e-01 8.906384448973387435e+00
1.555620601135584424e-01 9.041479517139489275e+00
1.566026090102238255e-01 9.282126520735076269e+00
1.576431579068892086e-01 9.641070032811274615e+00
1.586837068035545917e-01 9.910176738111353245e+00
1.597242557002199748e-01 9.960264121859083275e+00
1.607648045968853578e-01 9.600669521118547323e+00
1.618053534935507409e-01 1.002224849038229593e+01
1.628459023902161240e-01 1.070997246256608904e+01
1.638864512868815071e-01 1.102288337572998245e+01
1.649270001835468902e-01 1.113064805288317416e+01
1.659675490802122733e-01 1.120455378844115657e+01
1.670080979768776563e-01 1.128028938021683558e+01
1.680486468735430672e-01 1.110628103188351901e+01
1.690891957702084503e-01 1.122772713455996296e+01
1.701297446668738333e-01 1.104937643960533222e+01
1.711702935635392164e-01 1.072563028464995227e+01
1.722108424602045995e-01 1.080945659970355521e+01
1.732513913568699826e-01 1.090952959049210236e+01
1.742919402535353657e-01 1.080362433122367705e+01
1.753324891502007488e-01 1.055907374911514296e+01
1.763730380468661318e-01 1.062366403566854700e+01
1.774135869435315149e-01 1.042463001137592471e+01
1.784541358401968980e-01 1.068693904993090271e+01
1.794946847368622811e-01 1.014405360060685624e+01
1.805352336335276642e-01 9.793167317737331956e+00
1.815757825301930473e-01 9.534838999458841613e+00
1.826163314268584303e-01 9.126440868271345153e+00
1.836568803235238134e-01 9.087477883255104416e+00
1.846974292201891965e-01 8.856249532285904280e+00
1.857379781168545796e-01 8.592489742344710635e+00
1.867785270135199627e-01 8.247120541772741120e+00
1.878190759101853458e-01 7.709093785992621406e+00
1.888596248068507288e-01 7.625161809391471479e+00
1.899001737035161119e-01 7.281077660987467226e+00
1.909407226001814950e-01 7.257572380370458376e+00
1.919812714968468781e-01 7.107344444152598584e+00
1.930218203935122612e-01 6.690717621079318889e+00
1.940623692901776443e-01 6.194637410728251581e+00
1.951029181868430273e-01 5.827830411847049419e+00
1.961434670835084104e-01 5.561119285207112739e+00
1.971840159801737935e-01 5.669585512615505252e+00
1.982245648768391766e-01 5.308149236669837734e+00
1.992651137735045597e-01 4.648027478281022695e+00
2.003056626701699428e-01 4.610341387040953975e+00
2.013462115668353813e-01 4.316717074323420889e+00
2.023867604635007644e-01 4.011601022621345436e+00
2.034273093601661475e-01 3.821865012573390175e+00
2.044678582568315306e-01 3.245033551911202352e+00
2.055084071534969137e-01 3.078778338804617931e+00
2.065489560501622968e-01 3.074195307396710319e+00
2.075895049468276798e-01 2.916126805013870893e+00
2.086300538434930629e-01 2.744717398289338917e+00
2.096706027401584460e-01 2.536083170162847011e+00
2.107111516368238291e-01 2.244733185175750378e+00
2.117517005334892122e-01 2.017998611226371253e+00
2.127922494301545953e-01 2.217352821481313185e+00
2.138327983268199783e-01 1.861716328887979444e+00
2.148733472234853614e-01 1.679199403593063522e+00
2.159138961201507445e-01 1.661630835812388796e+00
2.169544450168161276e-01 1.451706053302299182e+00
2.179949939134815107e-01 1.276598681034815996e+00
2.190355428101468938e-01 1.207156767356966753e+00
2.200760917068122768e-01 1.082642300250743261e+00
2.211166406034776599e-01 1.134005065027682946e+00
2.221571895001430430e-01 1.160596545356927578e+00
2.231977383968084261e-01 9.732830392103082318e-01
2.242382872934738092e-01 7.675014995225026837e-01
2.252788361901391923e-01 9.494125094478498283e-01
2.263193850868045753e-01 6.045715992490876545e-01
2.273599339834699584e-01 6.720562063375545847e-01
2.284004828801353415e-01 9.234481568704282495e-01
2.294410317768007246e-01 7.178079540419517457e-01
2.304815806734661077e-01 8.019567013657145083e-01
2.315221295701314908e-01 1.004621974374959592e+00
2.325626784667968738e-01 1.143025793646835098e+00
2.336032273634622569e-01 1.319677524227113707e+00
2.346437762601276400e-01 1.129001656858225289e+00
2.356843251567930231e-01 1.009403706320441074e+00
2.367248740534584062e-01 1.102966731247978061e+00
2.377654229501237892e-01 1.165370207039952533e+00
2.388059718467891723e-01 9.657387761375950674e-01
2.398465207434545554e-01 9.989042251883617496e-01
2.408870696401199385e-01 1.027485529333453940e+00
2.419276185367853216e-01 1.309969226143699927e+00
2.429681674334507047e-01 1.185715909884208941e+00
2.440087163301160877e-01 1.327528059999664833e+00
2.450492652267814708e-01 1.356173713500982814e+00
2.460898141234468539e-01 1.304833368255469139e+00
2.471303630201122370e-01 1.344133669633990280e+00
2.481709119167776201e-01 1.392648684998906816e+00
2.492114608134430032e-01 1.470483749797388384e+00
2.502520097101083585e-01 1.517851160683150624e+00
2.512925586067737416e-01 1.760879309478145416e+00
2.523331075034391247e-01 1.818271959935344739e+00
2.533736564001045077e-01 1.817786611954247178e+00
2.544142052967698908e-01 1.897688908965957211e+00
2.554547541934352739e-01 1.821660080614567079e+00
2.564953030901006570e-01 1.882021404802213027e+00
2.575358519867660401e-01 1.815685582159698441e+00
2.585764008834314231e-01 1.955517110254820778e+00
2.596169497800968062e-01 1.924317087633895085e+00
2.606574986767621893e-01 1.860033096150591092e+00
2.616980475734275724e-01 2.129773552705501061e+00
2.627385964700929555e-01 1.883076532813905857e+00
2.637791453667583386e-01 1.896189731971041681e+00
2.648196942634237216e-01 1.922792052588714995e+00
2.658602431600891047e-01 2.002751941564948623e+00
2.669007920567544878e-01 1.941897572925700644e+00
2.679413409534198709e-01 1.956449227015927050e+00
2.689818898500852540e-01 1.897965453216329479e+00
2.700224387467506371e-01 1.605218063447452437e+00
2.710629876434160201e-01 1.592057029435842708e+00
2.721035365400814032e-01 1.821984315381250497e+00
2.731440854367467863e-01 1.951122329119115761e+00
2.741846343334121694e-01 1.965817023599150559e+00
2.752251832300775525e-01 2.024171505516566327e+00
2.762657321267429356e-01 2.154407320295621986e+00
2.773062810234083186e-01 1.883603472679453716e+00
2.783468299200737017e-01 1.994723809191103925e+00
2.793873788167390848e-01 2.020038018631034049e+00
2.804279277134044679e-01 1.820369890930940926e+00
2.814684766100698510e-01 1.552822869784026949e+00
2.825090255067352341e-01 1.731549960222814377e+00
2.835495744034006171e-01 1.684884220063455729e+00
2.845901233000660002e-01 1.492616786595768019e+00
2.856306721967313833e-01 1.719683991191377714e+00
2.866712210933967664e-01 1.775361041843705578e+00
2.877117699900621495e-01 1.858856764600126610e+00
2.887523188867275326e-01 1.671959620855496098e+00
2.897928677833929156e-01 1.536506561050060782e+00
2.908334166800582987e-01 1.423150546460618671e+00
2.918739655767236818e-01 1.302238332953290723e+00
2.929145144733890649e-01 1.408567590823800231e+00
2.939550633700544480e-01 1.359494425695260134e+00
2.949956122667198311e-01 1.248529275276549555e+00
2.960361611633852141e-01 1.072871333773335323e+00
2.970767100600505972e-01 9.281022367993365663e-01
2.981172589567159803e-01 1.149773368611914037e+00
2.991578078533813634e-01 1.122951255799407022e+00
3.001983567500468020e-01 9.073506316413926243e-01
3.012389056467121851e-01 9.523159857014285024e-01
3.022794545433775681e-01 7.398517695852255827e-01
3.033200034400429512e-01 9.071379203517082601e-01
3.043605523367083343e-01 7.717729679961280453e-01
3.054011012333737174e-01 9.124364688864474715e-01
3.064416501300391005e-01 8.125479249874025811e-01
3.074821990267044836e-01 7.054757697477107570e-01
3.085227479233698666e-01 7.422720233955999447e-01
3.095632968200352497e-01 7.229144192340015707e-01
3.106038457167006328e-01 6.725499277786184393e-01
3.116443946133660159e-01 7.064269169696189010e-01
3.126849435100313990e-01 4.293180728002745639e-01
3.137254924066967821e-01 5.032183929688756052e-01
3.147660413033621651e-01 4.418753458035880044e-01
3.158065902000275482e-01 2.635584205517567113e-01
3.168471390966929313e-01 3.925935103159901018e-01
3.178876879933583144e-01 6.550185497868952211e-01
3.189282368900236975e-01 7.628997732729239090e-01
3.199687857866890806e-01 5.921188983372580594e-01
3.210093346833544636e-01 3.947953432336852586e-01
3.220498835800198467e-01 6.101464996205159252e-01
3.230904324766852298e-01 6.578944104321955422e-01
3.241309813733506129e-01 5.157500471942810805e-01
3.251715302700159960e-01 5.348705104869964089e-01
3.262120791666813790e-01 5.989181462526254052e-01
3.272526280633467621e-01 5.223182745170120711e-01
3.282931769600121452e-01 6.055294561251045593e-01
3.293337258566775283e-01 7.188591074941079739e-01
3.303742747533429114e-01 5.188792986546566510e-01
3.314148236500082945e-01 3.265857521654993434e-01
3.324553725466736775e-01 6.619859157532168581e-01
3.334959214433390606e-01 5.874705288916679535e-01
3.345364703400044437e-01 6.523568804477228866e-01
3.355770192366698268e-01 6.588575708354476035e-01
3.366175681333352099e-01 7.529728254043241975e-01
3.376581170300005930e-01 6.227343075512514758e-01
3.386986659266659760e-01 5.374786473489727712e-01
3.397392148233313591e-01 5.797058859720962687e-01
3.407797637199967422e-01 4.019094683036037452e-01
3.418203126166621253e-01 3.758790669605218682e-01
3.428608615133275084e-01 5.282418001804707330e-01
3.439014104099928915e-01 5.483064694595825017e-01
3.449419593066582745e-01 6.039694923933787152e-01
3.459825082033236576e-01 6.325100955325844154e-01
3.470230570999890407e-01 7.638789766324052266e-01
3.480636059966544238e-01 6.390725718475067652e-01
3.491041548933198069e-01 6.304850440537848044e-01
3.501447037899851900e-01 7.898356689295553679e-01
3.511852526866505730e-01 8.947126565371732454e-01
3.522258015833159561e-01 5.739419460612822377e-01
3.532663504799813392e-01 6.525672376492970272e-01
3.543068993766467223e-01 8.217677233328082309e-01
3.553474482733121054e-01 6.238970875820122330e-01
3.563879971699774885e-01 6.212808453108600304e-01
3.574285460666428715e-01 6.832452510652338162e-01
3.584690949633082546e-01 6.640751922092107407e-01
3.595096438599736377e-01 8.047900640168670350e-01
3.605501927566390208e-01 9.451017535266075242e-01
3.615907416533044039e-01 8.321072349479798902e-01
3.626312905499697870e-01 7.534216229635397610e-01
3.636718394466351700e-01 7.389109602306298541e-01
3.647123883433005531e-01 7.271965288007677941e-01
3.657529372399659362e-01 8.788145759648351429e-01
3.667934861366313193e-01 8.883271371286944884e-01
3.678340350332967024e-01 8.333603359268586530e-01
3.688745839299620854e-01 9.127715577564572413e-01
3.699151328266274685e-01 9.164681119890900618e-01
3.709556817232928516e-01 8.188805769772002918e-01
3.719962306199582347e-01 9.051973915622184563e-01
3.730367795166236178e-01 9.239610744415713839e-01
3.740773284132890009e-01 8.325835844593427737e-01
3.751178773099543839e-01 5.985611319954031728e-01
3.761584262066197670e-01 5.954098131562481910e-01
3.771989751032851501e-01 6.480619435161756314e-01
3.782395239999505332e-01 4.548509982115973571e-01
3.792800728966159163e-01 5.942441545295302774e-01
3.803206217932812994e-01 5.656549663515519910e-01
3.813611706899466824e-01 4.319980546338015870e-01
3.824017195866120655e-01 4.492086214743196138e-01
3.834422684832774486e-01 5.519304868481320625e-01
3.844828173799428317e-01 6.509690909388652358e-01
3.855233662766082148e-01 7.755792120450379912e-01
3.865639151732735979e-01 6.392096205851629520e-01
3.876044640699389809e-01 3.864508557113204290e-01
3.886450129666043640e-01 3.516108186492807874e-01
3.896855618632697471e-01 4.936385468883948135e-01
3.907261107599351302e-01 5.883823156981407010e-01
3.917666596566005133e-01 5.570166598559112003e-01
3.928072085532658964e-01 6.705370612156187349e-01
3.938477574499312794e-01 5.280599322846946109e-01
3.948883063465966625e-01 5.093940478537284378e-01
3.959288552432620456e-01 4.679093518568961940e-01
3.969694041399274287e-01 4.291818308342527644e-01
3.980099530365928118e-01 5.443654917674400906e-01
3.990505019332581949e-01 5.020135298223991072e-01
4.000910508299235779e-01 5.055466623632050016e-01
4.011315997265889610e-01 5.051685564835324271e-01
4.021721486232543441e-01 3.988664622418802708e-01
4.032126975199197272e-01 3.164236561315583174e-01
4.042532464165851103e-01 3.375415264873353749e-01
4.052937953132504934e-01 2.825916223883631062e-01
4.063343442099158764e-01 2.872056727868184112e-01
4.073748931065812595e-01 2.891038878334981632e-01
4.084154420032466426e-01 3.035995904354145125e-01
4.094559908999120257e-01 2.999950063913132681e-01
4.104965397965774088e-01 3.025693462339553719e-01
4.115370886932427918e-01 3.715389243771269889e-01
4.125776375899081749e-01 1.761281941825352249e-01
4.136181864865735580e-01 3.650300746433003951e-01
4.146587353832389411e-01 4.816101629514975002e-01
4.156992842799043242e-01 3.813842524268800105e-01
4.167398331765697073e-01 4.217528280427202958e-01
4.177803820732350903e-01 5.575229548580651340e-01
4.188209309699004734e-01 4.288527960941621586e-01
4.198614798665658565e-01 5.477344798878824861e-01
4.209020287632312396e-01 4.902739394329813649e-01
4.219425776598966227e-01 2.963212371906429610e-01
4.229831265565620058e-01 4.162120122688861557e-02
4.240236754532273888e-01 1.731056625673446092e-01
4.250642243498927719e-01 3.908165701646204582e-01
4.261047732465581550e-01 4.263753193890131854e-01
4.271453221432235381e-01 4.136664456551670810e-01
4.281858710398889212e-01 5.444599027557686099e-01
4.292264199365543043e-01 4.381084735245508455e-01
4.302669688332196873e-01 4.400970563077066799e-01
4.313075177298850704e-01 5.200016345397671103e-01
4.323480666265504535e-01 4.410808814043960524e-01
4.333886155232158366e-01 3.543933213740935173e-01
4.344291644198812197e-01 4.746673030709516183e-01
