# q (1/Angstrom), Intensity (arb)
2.029070354705860696e-02 1.321915200693239967e+03
2.133125244372399004e-02 1.317897933211633472e+03
2.237180134038937659e-02 1.316728510549855400e+03
2.341235023705475968e-02 1.309310529003249712e+03
2.445289913372014276e-02 1.297608594546156382e+03
2.549344803038552584e-02 1.284961739592601589e+03
2.653399692705091240e-02 1.274946418060099404e+03
2.757454582371629548e-02 1.258248610198032793e+03
2.861509472038167856e-02 1.240532663585029240e+03
2.965564361704706164e-02 1.230939530532946492e+03
3.069619251371244473e-02 1.215794815328657251e+03
3.173674141037782781e-02 1.200684800200064956e+03
3.277729030704321089e-02 1.184186086694947107e+03
3.381783920370859398e-02 1.167422789341657108e+03
3.485838810037397706e-02 1.146960213275501246e+03
3.589893699703936014e-02 1.125923395451673741e+03
3.693948589370474322e-02 1.104851018286662793e+03
3.798003479037012631e-02 1.086906837053250456e+03
3.902058368703550939e-02 1.065328598136512483e+03
4.006113258370089247e-02 1.044168413755878646e+03
4.110168148036627556e-02 1.027229186218486575e+03
4.214223037703165864e-02 1.006684600230225669e+03
4.318277927369704866e-02 9.867465542117809036e+02
4.422332817036243174e-02 9.669782651685325163e+02
4.526387706702781483e-02 9.464712578325609229e+02
4.630442596369319791e-02 9.251595904390712803e+02
4.734497486035858099e-02 9.014131009980683302e+02
4.838552375702396408e-02 8.789488159925036825e+02
4.942607265368934716e-02 8.570925594264634810e+02
5.046662155035473024e-02 8.345867372382786016e+02
5.150717044702011332e-02 8.139813072592353365e+02
5.254771934368549641e-02 7.931386559610054974e+02
5.358826824035087949e-02 7.701424036515124953e+02
5.462881713701626257e-02 7.493351029763186943e+02
5.566936603368164566e-02 7.274101636240659445e+02
5.670991493034702874e-02 7.060248942933935723e+02
5.775046382701241182e-02 6.839018125170052826e+02
5.879101272367779490e-02 6.611704384248613451e+02
5.983156162034317799e-02 6.404813565137526439e+02
6.087211051700856107e-02 6.205652645302094470e+02
6.191265941367394415e-02 5.983868783553843969e+02
6.295320831033933417e-02 5.796908979031097715e+02
6.399375720700471726e-02 5.603942309258691239e+02
6.503430610367010034e-02 5.407877861623849185e+02
6.607485500033548342e-02 5.221678767517342976e+02
6.711540389700086651e-02 5.034866876506772542e+02
6.815595279366624959e-02 4.837846538092789501e+02
6.919650169033163267e-02 4.647931438584992634e+02
7.023705058699701576e-02 4.477050945113612102e+02
7.127759948366239884e-02 4.295226844126236756e+02
7.231814838032778192e-02 4.129342145552788566e+02
7.335869727699316500e-02 3.954654497378315909e+02
7.439924617365854809e-02 3.762645766927471414e+02
7.543979507032393117e-02 3.595786344070250493e+02
7.648034396698931425e-02 3.446483083276494312e+02
7.752089286365469734e-02 3.290323422927658044e+02
7.856144176032008042e-02 3.127801201962039954e+02
7.960199065698546350e-02 2.991029604732231064e+02
8.064253955365084658e-02 2.840585076080410545e+02
8.168308845031622967e-02 2.693683048703144891e+02
8.272363734698161275e-02 2.557876924930610869e+02
8.376418624364699583e-02 2.429509257809141332e+02
8.480473514031239279e-02 2.322563795918443361e+02
8.584528403697777588e-02 2.193124104570065356e+02
8.688583293364315896e-02 2.065750598609013480e+02
8.792638183030854204e-02 1.954229729940562095e+02
8.896693072697392513e-02 1.825545469908113034e+02
9.000747962363930821e-02 1.719963357053416928e+02
9.104802852030469129e-02 1.620347220660649157e+02
9.208857741697007437e-02 1.520337300383526440e+02
9.312912631363545746e-02 1.413281511113399347e+02
9.416967521030084054e-02 1.317810687138949106e+02
9.521022410696622362e-02 1.236151591724306655e+02
9.625077300363160671e-02 1.161162643590837291e+02
9.729132190029698979e-02 1.075221643704428089e+02
9.833187079696237287e-02 9.953282600250325629e+01
9.937241969362775595e-02 9.224301469585400071e+01
1.004129685902931390e-01 8.519210529157770395e+01
1.014535174869585221e-01 7.845726414606042454e+01
1.024940663836239052e-01 7.229458036064542625e+01
1.035346152802892883e-01 6.642819819474615883e+01
1.045751641769546714e-01 6.118234600779017285e+01
1.056157130736200545e-01 5.544541153856218330e+01
1.066562619702854375e-01 4.968025158017054821e+01
1.076968108669508206e-01 4.547437434990102645e+01
1.087373597636162037e-01 4.170044165047637108e+01
1.097779086602815868e-01 3.779651633555053536e+01
1.108184575569469699e-01 3.453952803787095149e+01
1.118590064536123529e-01 3.101138059345711184e+01
1.128995553502777360e-01 2.749609458557903707e+01
1.139401042469431191e-01 2.433943230624619147e+01
1.149806531436085022e-01 2.200849281329859153e+01
1.160212020402738853e-01 1.919032395376813227e+01
1.170617509369392684e-01 1.691004246248052567e+01
1.181022998336046514e-01 1.483105086447653775e+01
1.191428487302700345e-01 1.304394087803548885e+01
1.201833976269354176e-01 1.112583673049508448e+01
1.212239465236008007e-01 9.737148077189342388e+00
1.222644954202661838e-01 8.443534044646913372e+00
1.233050443169315669e-01 7.104004003231601416e+00
1.243455932135969499e-01 8.049453594941255119e+00
1.253861421102623330e-01 7.491059404121305221e+00
1.264266910069277161e-01 4.666955666750144616e+00
1.274672399035930992e-01 3.891826542721545934e+00
1.285077888002584823e-01 3.425978344780542528e+00
1.295483376969238654e-01 3.027817025512341331e+00
1.305888865935892484e-01 2.663235064746764635e+00
1.316294354902546315e-01 2.326547978796522642e+00
1.326699843869200146e-01 2.376044319725419740e+00
1.337105332835853977e-01 2.560764087261233612e+00
1.347510821802507808e-01 2.450751068060196047e+00
1.357916310769161639e-01 2.061292522059197552e+00
1.368321799735815469e-01 2.142622890372102518e+00
1.378727288702469300e-01 2.626707411096095512e+00
1.389132777669123131e-01 3.008440021134841658e+00
1.399538266635776962e-01 3.413421159256380122e+00
1.409943755602430793e-01 3.615764782294956348e+00
1.420349244569084624e-01 3.968947249225763585e+00
1.430754733535738454e-01 4.307633573472738675e+00
1.441160222502392285e-01 4.591428598306251274e+00
1.451565711469046116e-01 5.111474015872971677e+00
1.461971200435699947e-01 5.264118698067708380e+00
1.472376689402353778e-01 5.711318876712518033e+00
1.482782178369007609e-01 6.315713988858963290e+00
1.493187667335661439e-01 6.919452053477279208e+00
1.503593156302315270e-01 7.377267045365460518e+00
1.513998645268969101e-01 7.441644127130011555e+00
1.524404134235622932e-01 7.603817885252841080e+00
1.534809623202276763e-01 8.038750027493900774e+00
1.545215112168930593e-01 8.322746698726682268e+00
1.555620601135584424e-01 8.510138886837140149e+00
1.566026090102238255e-01 8.670353956908581239e+00
1.576431579068892086e-01 9.120892567746100354e+00
1.586837068035545917e-01 9.619500284730492012e+00
1.597242557002199748e-01 1.008047847540738928e+01
1.607648045968853578e-01 1.064265452474008455e+01
1.618053534935507409e-01 1.047754742052941168e+01
1.628459023902161240e-01 1.044878309607212685e+01
1.638864512868815071e-01 1.079039956016571722e+01
1.649270001835468902e-01 1.080320608447371100e+01
1.659675490802122733e-01 1.068173276334061228e+01
1.670080979768776563e-01 1.089844272587663454e+01
1.680486468735430672e-01 1.108151734341493011e+01
1.690891957702084503e-01 1.110259174723319475e+01
1.701297446668738333e-01 1.087115105380306090e+01
1.711702935635392164e-01 1.114356823674170371e+01
1.722108424602045995e-01 1.101652182731076479e+01
1.732513913568699826e-01 1.071072715576444168e+01
1.742919402535353657e-01 1.062869207814345529e+01
1.753324891502007488e-01 1.073355010715173918e+01
1.763730380468661318e-01 1.064381061691464225e+01
1.774135869435315149e-01 1.026354665807916078e+01
1.784541358401968980e-01 1.013723905449135643e+01
1.794946847368622811e-01 1.001416364372472145e+01
1.805352336335276642e-01 9.810096910280101667e+00
1.815757825301930473e-01 9.553507569425292445e+00
1.826163314268584303e-01 9.287259521605083279e+00
1.836568803235238134e-01 9.097286026820075477e+00
1.846974292201891965e-01 9.165454325487438325e+00
1.857379781168545796e-01 8.485736953477772460e+00
1.867785270135199627e-01 8.300828971379523580e+00
1.878190759101853458e-01 8.138368273708763923e+00
1.888596248068507288e-01 7.656430679196375877e+00
1.899001737035161119e-01 7.606395266123733734e+00
1.909407226001814950e-01 7.327541678790701951e+00
1.919812714968468781e-01 7.099069027610546812e+00
1.930218203935122612e-01 6.589987237831998357e+00
1.940623692901776443e-01 6.339359395834829769e+00
1.951029181868430273e-01 5.881276031102885327e+00
1.961434670835084104e-01 5.479281379619543202e+00
1.971840159801737935e-01 5.195808159429319062e+00
1.982245648768391766e-01 5.056492631802477433e+00
1.992651137735045597e-01 4.836858612036703420e+00
2.003056626701699428e-01 4.255933637357820487e+00
2.013462115668353813e-01 3.947918507733252369e+00
2.023867604635007644e-01 3.809516575063213395e+00
2.034273093601661475e-01 3.843628768531779372e+00
2.044678582568315306e-01 3.748965116284495025e+00
2.055084071534969137e-01 3.329884771491258277e+00
2.065489560501622968e-01 3.103826355906416978e+00
2.075895049468276798e-01 3.006222778679784824e+00
2.086300538434930629e-01 2.653100210493480660e+00
2.096706027401584460e-01 2.482271235080585114e+00
2.107111516368238291e-01 2.369514574203112289e+00
2.117517005334892122e-01 2.266576430011234322e+00
2.127922494301545953e-01 1.927828657801203605e+00
2.138327983268199783e-01 1.588765001919171027e+00
2.148733472234853614e-01 1.620916118882437473e+00
2.159138961201507445e-01 1.599585284980935995e+00
2.169544450168161276e-01 1.483668990726037862e+00
2.179949939134815107e-01 1.249600021584747367e+00
2.190355428101468938e-01 1.100772076897509777e+00
2.200760917068122768e-01 8.049285285994578487e-01
2.211166406034776599e-01 1.074871880518404765e+00
2.221571895001430430e-01 9.122962302904262799e-01
2.231977383968084261e-01 7.798826801322036317e-01
2.242382872934738092e-01 8.457536057976433597e-01
2.252788361901391923e-01 7.918183167242709430e-01
2.263193850868045753e-01 1.118257625988569259e+00
2.273599339834699584e-01 9.201986869058558227e-01
2.284004828801353415e-01 7.589792127120347232e-01
2.294410317768007246e-01 7.916838044208880376e-01
2.304815806734661077e-01 8.376576738088985508e-01
2.315221295701314908e-01 8.283576545398645408e-01
2.325626784667968738e-01 7.514909800079330182e-01
2.336032273634622569e-01 7.624780584475665535e-01
2.346437762601276400e-01 7.179150735993005128e-01
2.356843251567930231e-01 1.070399835169016711e+00
2.367248740534584062e-01 1.009505972582768862e+00
2.377654229501237892e-01 1.178652059476533509e+00
2.388059718467891723e-01 1.201366331127005083e+00
2.398465207434545554e-01 1.080902242320739504e+00
2.408870696401199385e-01 1.091407546149060437e+00
2.419276185367853216e-01 1.305622125865230743e+00
2.429681674334507047e-01 1.491442795342823757e+00
2.440087163301160877e-01 1.609921556614573035e+00
2.450492652267814708e-01 1.475560285061867205e+00
2.460898141234468539e-01 1.274399220000919541e+00
2.471303630201122370e-01 1.418177735758323621e+00
2.481709119167776201e-01 1.401015667167509804e+00
2.492114608134430032e-01 1.513085800878947396e+00
2.502520097101083585e-01 1.566614766092595090e+00
2.512925586067737416e-01 1.526045410703151362e+00
2.523331075034391247e-01 1.750725762667197927e+00
2.533736564001045077e-01 1.843807603337083378e+00
2.544142052967698908e-01 1.669587502710271565e+00
2.554547541934352739e-01 1.848334185207207270e+00
2.564953030901006570e-01 1.904984314434045700e+00
2.575358519867660401e-01 1.965073958244193619e+00
2.585764008834314231e-01 2.032834521450375576e+00
2.596169497800968062e-01 2.246087544626153232e+00
2.606574986767621893e-01 2.036545059861488483e+00
2.616980475734275724e-01 1.865288757507073569e+00
2.627385964700929555e-01 2.102812222851838442e+00
2.637791453667583386e-01 2.019571139172722241e+00
2.648196942634237216e-01 2.116964923795091380e+00
2.658602431600891047e-01 2.224935796179519087e+00
2.669007920567544878e-01 2.172230150863708076e+00
2.679413409534198709e-01 1.894751131131759081e+00
2.689818898500852540e-01 1.858315432956647584e+00
2.700224387467506371e-01 1.889005109634993573e+00
2.710629876434160201e-01 1.983262471287709161e+00
2.721035365400814032e-01 1.756397601644074769e+00
2.731440854367467863e-01 2.009050810400619724e+00
2.741846343334121694e-01 1.969408698337304031e+00
2.752251832300775525e-01 1.873917378003064016e+00
2.762657321267429356e-01 1.794862042755667630e+00
2.773062810234083186e-01 1.742307963951052585e+00
2.783468299200737017e-01 1.682394026082221217e+00
2.793873788167390848e-01 1.705415345411207539e+00
2.804279277134044679e-01 1.885383896217039279e+00
2.814684766100698510e-01 1.564970684833440373e+00
2.825090255067352341e-01 1.421080895120475418e+00
2.835495744034006171e-01 1.373574173938365561e+00
2.845901233000660002e-01 1.452920790681467622e+00
2.856306721967313833e-01 1.598136339100470593e+00
2.866712210933967664e-01 1.563684741348929208e+00
2.877117699900621495e-01 1.410658914707447309e+00
2.887523188867275326e-01 1.348797073219945020e+00
2.897928677833929156e-01 1.370282026723447899e+00
2.908334166800582987e-01 1.381188505279830281e+00
2.918739655767236818e-01 1.378820354894479294e+00
2.929145144733890649e-01 1.178415392637969461e+00
2.939550633700544480e-01 1.045362998908942131e+00
2.949956122667198311e-01 1.047397979358017039e+00
2.960361611633852141e-01 1.015281753216960681e+00
2.970767100600505972e-01 1.149447430228750733e+00
2.981172589567159803e-01 1.293090090550343518e+00
2.991578078533813634e-01 1.339930629877880364e+00
3.001983567500468020e-01 1.158329866765786420e+00
3.012389056467121851e-01 9.717271464938086467e-01
3.022794545433775681e-01 8.531735113390581660e-01
3.033200034400429512e-01 8.877552260839536302e-01
3.043605523367083343e-01 8.753577019991567454e-01
3.054011012333737174e-01 7.019207595889724871e-01
3.064416501300391005e-01 7.456169828188237148e-01
3.074821990267044836e-01 6.128177003530161926e-01
3.085227479233698666e-01 8.097051173098961385e-01
3.095632968200352497e-01 8.413030731536501605e-01
3.106038457167006328e-01 4.005650595072545173e-01
3.116443946133660159e-01 4.266459139861460415e-01
3.126849435100313990e-01 5.258154419839549121e-01
3.137254924066967821e-01 4.927326038019259613e-01
3.147660413033621651e-01 6.394607336376161300e-01
3.158065902000275482e-01 5.448139476640925238e-01
3.168471390966929313e-01 4.671458874175691278e-01
3.178876879933583144e-01 4.739569911861387652e-01
3.189282368900236975e-01 6.525629827052057408e-01
3.199687857866890806e-01 7.102517415648321730e-01
3.210093346833544636e-01 6.433477018258351166e-01
3.220498835800198467e-01 4.242295432812035472e-01
3.230904324766852298e-01 3.566449626069427836e-01
3.241309813733506129e-01 3.931044794555127453e-01
3.251715302700159960e-01 4.564708265156269817e-01
3.262120791666813790e-01 5.544661446916840930e-01
3.272526280633467621e-01 4.199779635973861502e-01
3.282931769600121452e-01 2.105857464711426985e-01
3.293337258566775283e-01 3.705666079270706348e-01
3.303742747533429114e-01 5.008770232706645231e-01
3.314148236500082945e-01 4.973466379390032444e-01
3.324553725466736775e-01 3.695931242810530648e-01
3.334959214433390606e-01 3.880291328658458383e-01
3.345364703400044437e-01 5.680518046377756036e-01
3.355770192366698268e-01 5.815540287643550244e-01
3.366175681333352099e-01 4.620701433150742332e-01
3.376581170300005930e-01 2.975010547386496285e-01
3.386986659266659760e-01 4.707409498857195729e-01
3.397392148233313591e-01 7.014361702855786973e-01
3.407797637199967422e-01 8.447256041978654650e-01
3.418203126166621253e-01 7.758886577741606061e-01
3.428608615133275084e-01 7.063382576976238170e-01
3.439014104099928915e-01 5.823528143734755247e-01
3.449419593066582745e-01 6.031579319503954650e-01
3.459825082033236576e-01 5.489031377534274725e-01
3.470230570999890407e-01 8.189321865585554860e-01
3.480636059966544238e-01 7.056308470647145725e-01
3.491041548933198069e-01 4.634796962317047075e-01
3.501447037899851900e-01 6.664259972452093450e-01
3.511852526866505730e-01 5.679026451434410205e-01
3.522258015833159561e-01 5.774739656400242893e-01
3.532663504799813392e-01 7.189645677709179949e-01
3.543068993766467223e-01 8.005242422660359125e-01
3.553474482733121054e-01 6.594477571005938898e-01
3.563879971699774885e-01 6.095844801450809314e-01
3.574285460666428715e-01 7.014627909312558529e-01
3.584690949633082546e-01 5.284434110853446498e-01
3.595096438599736377e-01 6.474185404091947760e-01
3.605501927566390208e-01 7.124756310180586638e-01
3.615907416533044039e-01 6.395690046394229000e-01
3.626312905499697870e-01 5.832941745376025722e-01
3.636718394466351700e-01 5.613625790957499362e-01
3.647123883433005531e-01 6.672362461341627693e-01
3.657529372399659362e-01 6.784231139953611489e-01
3.667934861366313193e-01 7.328596151903710165e-01
3.678340350332967024e-01 5.526588295377194981e-01
3.688745839299620854e-01 4.874571143773032134e-01
3.699151328266274685e-01 6.523627686867037312e-01
3.709556817232928516e-01 6.664625750291328643e-01
3.719962306199582347e-01 6.328295149591518509e-01
3.730367795166236178e-01 7.941377144254460063e-01
3.740773284132890009e-01 7.039743337930168821e-01
3.751178773099543839e-01 6.696242735796467116e-01
3.761584262066197670e-01 5.734416266272610585e-01
3.771989751032851501e-01 5.920670638951008868e-01
3.782395239999505332e-01 7.184167629488058537e-01
3.792800728966159163e-01 6.629004952722290511e-01
3.803206217932812994e-01 5.262493379758872436e-01
3.813611706899466824e-01 5.313314008298171132e-01
3.824017195866120655e-01 4.775910277310551066e-01
3.834422684832774486e-01 4.516721221704322886e-01
3.844828173799428317e-01 4.395805458167636459e-01
3.855233662766082148e-01 4.653047426184748758e-01
3.865639151732735979e-01 6.404527085056272995e-01
3.876044640699389809e-01 6.288974616597577949e-01
3.886450129666043640e-01 3.185477130992566686e-01
3.896855618632697471e-01 3.416524437980612561e-01
3.907261107599351302e-01 3.906145305911010723e-01
3.917666596566005133e-01 4.066588636429173675e-01
3.928072085532658964e-01 4.222161799124393156e-01
3.938477574499312794e-01 3.811411938981201786e-01
3.948883063465966625e-01 4.406422800315432653e-01
3.959288552432620456e-01 4.549631609001494326e-01
3.969694041399274287e-01 4.680847268564747310e-01
3.980099530365928118e-01 3.423830709261928007e-01
3.990505019332581949e-01 3.535046694415271418e-01
4.000910508299235779e-01 2.552310581825452118e-01
4.011315997265889610e-01 2.989147416520232525e-01
4.021721486232543441e-01 3.470842025730611624e-01
4.032126975199197272e-01 2.643039633251973441e-01
4.042532464165851103e-01 1.437118463598956453e-01
4.052937953132504934e-01 1.509525938889773045e-01
4.063343442099158764e-01 2.596924937819302670e-01
4.073748931065812595e-01 3.574135340485042889e-01
4.084154420032466426e-01 2.937418322924116865e-01
4.094559908999120257e-01 3.711814555914187963e-01
4.104965397965774088e-01 1.396938825102580495e-01
4.115370886932427918e-01 2.688168095180998307e-02
4.125776375899081749e-01 1.173308561461396948e-01
4.136181864865735580e-01 2.227863813544459504e-01
4.146587353832389411e-01 2.532469294381911595e-01
4.156992842799043242e-01 2.706943316835079827e-01
4.167398331765697073e-01 1.838945142348826778e-01
4.177803820732350903e-01 2.393628401346745704e-01
4.188209309699004734e-01 3.412487670917805360e-01
4.198614798665658565e-01 4.104853482013766097e-01
4.209020287632312396e-01 2.464611080867591397e-01
4.219425776598966227e-01 3.010396996695483551e-01
4.229831265565620058e-01 4.037051873567065741e-01
4.240236754532273888e-01 3.562527324459878741e-01
4.250642243498927719e-01 2.001462902550166234e-01
4.261047732465581550e-01 6.343228900542641213e-02
4.271453221432235381e-01 2.668276095832275985e-01
4.281858710398889212e-01 4.098860273892306338e-01
4.292264199365543043e-01 3.826043033274721950e-01
4.302669688332196873e-01 4.503430202581384378e-01
4.313075177298850704e-01 2.584564022674307182e-01
4.323480666265504535e-01 3.178972817694329933e-01
4.333886155232158366e-01 3.682204923025835797e-01
4.344291644198812197e-01 4.243350105053131927e-01
