# q (1/Angstrom), Intensity (arb)
2.029070354705860696e-02 1.322504371391645464e+03
2.133125244372399004e-02 1.313198932996811891e+03
2.237180134038937659e-02 1.310157643323643242e+03
2.341235023705475968e-02 1.301462284942565248e+03
2.445289913372014276e-02 1.293498521972646131e+03
2.549344803038552584e-02 1.283442131333248653e+03
2.653399692705091240e-02 1.272405234705357543e+03
2.757454582371629548e-02 1.257939718088030304e+03
2.861509472038167856e-02 1.246348824140526176e+03
2.965564361704706164e-02 1.227359891463335543e+03
3.069619251371244473e-02 1.213014638035826465e+03
3.173674141037782781e-02 1.194826134282079920e+03
3.277729030704321089e-02 1.177636404759977722e+03
3.381783920370859398e-02 1.162350970040646189e+03
3.485838810037397706e-02 1.143568613844637639e+03
3.589893699703936014e-02 1.124700014478858520e+03
3.693948589370474322e-02 1.106239297865814478e+03
3.798003479037012631e-02 1.085029677691097277e+03
3.902058368703550939e-02 1.070581771429298669e+03
4.006113258370089247e-02 1.048273079221846274e+03
4.110168148036627556e-02 1.027528986094306674e+03
4.214223037703165864e-02 1.007762930151871046e+03
4.318277927369704866e-02 9.881888487799152472e+02
4.422332817036243174e-02 9.635581287796984498e+02
4.526387706702781483e-02 9.396338045868625386e+02
4.630442596369319791e-02 9.200623833769095654e+02
4.734497486035858099e-02 9.020808344890526769e+02
4.838552375702396408e-02 8.794435981553351667e+02
4.942607265368934716e-02 8.543930904420184334e+02
5.046662155035473024e-02 8.336420309596763900e+02
5.150717044702011332e-02 8.143074074096089134e+02
5.254771934368549641e-02 7.941839653292541925e+02
5.358826824035087949e-02 7.735121248217883476e+02
5.462881713701626257e-02 7.491785364223923125e+02
5.566936603368164566e-02 7.253626307241278255e+02
5.670991493034702874e-02 7.048399187489943643e+02
5.775046382701241182e-02 6.859812831236763486e+02
5.879101272367779490e-02 6.639543202045513226e+02
5.983156162034317799e-02 6.421402535620707113e+02
6.087211051700856107e-02 6.204576982305137562e+02
6.191265941367394415e-02 6.003006391498673793e+02
6.295320831033933417e-02 5.815984093635715908e+02
6.399375720700471726e-02 5.625974860234538255e+02
6.503430610367010034e-02 5.429827010261045643e+02
6.607485500033548342e-02 5.224913001921908062e+02
6.711540389700086651e-02 5.015748483072728732e+02
6.815595279366624959e-02 4.837813297157300667e+02
6.919650169033163267e-02 4.663498276603236832e+02
7.023705058699701576e-02 4.469169908079504125e+02
7.127759948366239884e-02 4.271326768072028131e+02
7.231814838032778192e-02 4.093890080511900464e+02
7.335869727699316500e-02 3.914444966250867992e+02
7.439924617365854809e-02 3.752873329820459958e+02
7.543979507032393117e-02 3.596448367908931800e+02
7.648034396698931425e-02 3.427958054949741040e+02
7.752089286365469734e-02 3.273252513314544103e+02
7.856144176032008042e-02 3.121299486916575461e+02
7.960199065698546350e-02 2.979268887937729460e+02
8.064253955365084658e-02 2.848682946122017370e+02
8.168308845031622967e-02 2.710789291146624009e+02
8.272363734698161275e-02 2.561547725127191484e+02
8.376418624364699583e-02 2.430780800537085895e+02
8.480473514031239279e-02 2.312605398725293071e+02
8.584528403697777588e-02 2.184206812288387596e+02
8.688583293364315896e-02 2.052929483695414774e+02
8.792638183030854204e-02 1.930803003907730897e+02
8.896693072697392513e-02 1.810893850624922834e+02
9.000747962363930821e-02 1.711931240543751187e+02
9.104802852030469129e-02 1.616114464955253709e+02
9.208857741697007437e-02 1.522119652661106102e+02
9.312912631363545746e-02 1.419490216283695077e+02
9.416967521030084054e-02 1.314726307601459894e+02
9.521022410696622362e-02 1.230166223166292099e+02
9.625077300363160671e-02 1.151439335732443112e+02
9.729132190029698979e-02 1.069967891790671217e+02
9.833187079696237287e-02 9.943001507778403436e+01
9.937241969362775595e-02 9.265691713136172325e+01
1.004129685902931390e-01 8.607063035998712053e+01
1.014535174869585221e-01 7.913340415267896333e+01
1.024940663836239052e-01 7.275155945045121086e+01
1.035346152802892883e-01 6.656636913262845212e+01
1.045751641769546714e-01 6.165586057079960369e+01
1.056157130736200545e-01 5.603730295149784979e+01
1.066562619702854375e-01 5.058616586396831849e+01
1.076968108669508206e-01 4.592003864242174416e+01
1.087373597636162037e-01 4.188889270202376025e+01
1.097779086602815868e-01 3.783874125008507860e+01
1.108184575569469699e-01 3.427069614885139259e+01
1.118590064536123529e-01 3.014346996933231893e+01
1.128995553502777360e-01 2.699973154456765911e+01
1.139401042469431191e-01 2.394216934503768712e+01
1.149806531436085022e-01 2.177610250911153500e+01
1.160212020402738853e-01 1.915496506167048096e+01
1.170617509369392684e-01 1.661283032852088226e+01
1.181022998336046514e-01 1.504583143824104496e+01
1.191428487302700345e-01 1.308953897051257442e+01
1.201833976269354176e-01 1.082362508331964079e+01
1.212239465236008007e-01 9.637660228959557429e+00
1.222644954202661838e-01 8.519021342715763723e+00
1.233050443169315669e-01 6.943047480092577217e+00
1.243455932135969499e-01 5.561673121938135012e+00
1.253861421102623330e-01 5.046764984625273343e+00
1.264266910069277161e-01 4.261563651809019859e+00
1.274672399035930992e-01 3.986904960679037657e+00
1.285077888002584823e-01 3.633592124095951448e+00
1.295483376969238654e-01 3.035969819976926942e+00
1.305888865935892484e-01 2.464762157202262216e+00
1.316294354902546315e-01 2.221170721223678868e+00
1.326699843869200146e-01 2.349515610991652181e+00
1.337105332835853977e-01 2.398014523437478118e+00
1.347510821802507808e-01 2.277848897462948941e+00
1.357916310769161639e-01 1.971339931373655929e+00
1.368321799735815469e-01 2.243492234526055285e+00
1.378727288702469300e-01 2.574993904526163391e+00
1.389132777669123131e-01 2.729706971594314524e+00
1.399538266635776962e-01 3.274976904687598278e+00
1.409943755602430793e-01 3.892740824424095081e+00
1.420349244569084624e-01 4.016145363911821420e+00
1.430754733535738454e-01 4.345847506734653365e+00
1.441160222502392285e-01 4.587457230529476959e+00
1.451565711469046116e-01 4.901540539493009163e+00
1.461971200435699947e-01 5.417406245018835165e+00
1.472376689402353778e-01 5.390376393881574302e+00
1.482782178369007609e-01 5.897794601258173230e+00
1.493187667335661439e-01 6.721326299529675197e+00
1.503593156302315270e-01 7.178425552067363213e+00
1.513998645268969101e-01 7.432519871963531699e+00
1.524404134235622932e-01 7.703637800468190022e+00
1.534809623202276763e-01 8.171263324458493571e+00
1.545215112168930593e-01 8.175039594749343053e+00
1.555620601135584424e-01 8.535911500467985746e+00
1.566026090102238255e-01 9.061700625886750515e+00
1.576431579068892086e-01 9.474058902099013579e+00
1.586837068035545917e-01 9.955524828945318205e+00
1.597242557002199748e-01 1.008790079054120525e+01
1.607648045968853578e-01 1.013779702143285277e+01
1.618053534935507409e-01 1.031551094832735416e+01
1.628459023902161240e-01 1.060633695385293507e+01
1.638864512868815071e-01 1.097920335847064877e+01
1.649270001835468902e-01 1.105856612463770361e+01
1.659675490802122733e-01 1.100920241919838460e+01
1.670080979768776563e-01 1.097482857667239387e+01
1.680486468735430672e-01 1.114310130857714398e+01
1.690891957702084503e-01 1.117608581939305523e+01
1.701297446668738333e-01 1.128202057813948755e+01
1.711702935635392164e-01 1.123939039296289977e+01
1.722108424602045995e-01 1.119965779499122149e+01
1.732513913568699826e-01 1.089525499061504377e+01
1.742919402535353657e-01 1.041103925351037063e+01
1.753324891502007488e-01 1.066467618595117983e+01
1.763730380468661318e-01 1.051082684562646108e+01
1.774135869435315149e-01 1.024997605002240775e+01
1.784541358401968980e-01 1.007753196472870627e+01
1.794946847368622811e-01 1.000633105860407923e+01
1.805352336335276642e-01 9.972350108585111172e+00
1.815757825301930473e-01 9.697541328974732977e+00
1.826163314268584303e-01 9.185145278883510400e+00
1.836568803235238134e-01 9.233663962218226828e+00
1.846974292201891965e-01 8.975695609274545461e+00
1.857379781168545796e-01 8.494376962009347665e+00
1.867785270135199627e-01 8.241043543145611494e+00
1.878190759101853458e-01 8.077112904829700568e+00
1.888596248068507288e-01 7.707236351757781989e+00
1.899001737035161119e-01 7.526646901437409554e+00
1.909407226001814950e-01 7.308553133189828799e+00
1.919812714968468781e-01 7.113190716486407439e+00
1.930218203935122612e-01 6.496347478442068279e+00
1.940623692901776443e-01 6.358476794456276338e+00
1.951029181868430273e-01 6.002999054122419409e+00
1.961434670835084104e-01 5.437163975834796048e+00
1.971840159801737935e-01 5.231967826481167094e+00
1.982245648768391766e-01 4.916756673670320765e+00
1.992651137735045597e-01 4.776008120534765311e+00
2.003056626701699428e-01 4.531540650617110089e+00
2.013462115668353813e-01 4.069706640575248002e+00
2.023867604635007644e-01 3.936710486595391245e+00
2.034273093601661475e-01 4.023468459000721253e+00
2.044678582568315306e-01 3.719052584568654396e+00
2.055084071534969137e-01 3.499469478498983932e+00
2.065489560501622968e-01 3.259749312114763597e+00
2.075895049468276798e-01 2.909011743801620753e+00
2.086300538434930629e-01 2.701342517482689942e+00
2.096706027401584460e-01 2.425260504761983071e+00
2.107111516368238291e-01 2.413423058286841894e+00
2.117517005334892122e-01 2.284918127148333866e+00
2.127922494301545953e-01 1.804340241328144856e+00
2.138327983268199783e-01 1.504464105175923549e+00
2.148733472234853614e-01 1.643825585401870626e+00
2.159138961201507445e-01 1.643941420670355313e+00
2.169544450168161276e-01 1.685151749176572622e+00
2.179949939134815107e-01 1.570489817972884339e+00
2.190355428101468938e-01 1.350172615169210388e+00
2.200760917068122768e-01 9.451478928121126444e-01
2.211166406034776599e-01 7.766875709709601949e-01
2.221571895001430430e-01 9.227623684191073039e-01
2.231977383968084261e-01 1.121296708907635775e+00
2.242382872934738092e-01 9.722870906576517314e-01
2.252788361901391923e-01 9.658909353420810362e-01
2.263193850868045753e-01 9.740475000354678059e-01
2.273599339834699584e-01 9.688925504853678206e-01
2.284004828801353415e-01 6.748839710672562830e-01
2.294410317768007246e-01 4.943262837531854359e-01
2.304815806734661077e-01 8.159722524053449888e-01
2.315221295701314908e-01 8.748679664041674187e-01
2.325626784667968738e-01 7.944367733083765870e-01
2.336032273634622569e-01 7.125422322847114742e-01
2.346437762601276400e-01 6.996458636006650522e-01
2.356843251567930231e-01 9.959979437716555140e-01
2.367248740534584062e-01 9.148072531568267607e-01
2.377654229501237892e-01 1.021264625179330920e+00
2.388059718467891723e-01 1.240302431833342212e+00
2.398465207434545554e-01 1.139590462369511670e+00
2.408870696401199385e-01 1.307971474676147494e+00
2.419276185367853216e-01 1.534050215767923220e+00
2.429681674334507047e-01 1.455195256900950085e+00
2.440087163301160877e-01 1.381920296444821616e+00
2.450492652267814708e-01 1.419249595304481915e+00
2.460898141234468539e-01 1.374061434684264782e+00
2.471303630201122370e-01 1.422107801458157184e+00
2.481709119167776201e-01 1.424678901392280039e+00
2.492114608134430032e-01 1.489374088216951719e+00
2.502520097101083585e-01 1.657698594387344571e+00
2.512925586067737416e-01 1.796035710152359854e+00
2.523331075034391247e-01 1.977004272039021515e+00
2.533736564001045077e-01 2.035354473228583316e+00
2.544142052967698908e-01 1.893537928343249632e+00
2.554547541934352739e-01 2.052135431908226337e+00
2.564953030901006570e-01 1.956497968493746242e+00
2.575358519867660401e-01 1.810960363175592391e+00
2.585764008834314231e-01 1.786883765578419769e+00
2.596169497800968062e-01 2.124763278446426540e+00
2.606574986767621893e-01 1.914973003013784592e+00
2.616980475734275724e-01 1.876664381027584483e+00
2.627385964700929555e-01 1.786397834661915596e+00
2.637791453667583386e-01 1.745310084270862205e+00
2.648196942634237216e-01 1.975428865722136607e+00
2.658602431600891047e-01 2.334642215564734613e+00
2.669007920567544878e-01 2.066180777470382424e+00
2.679413409534198709e-01 1.721418009936972027e+00
2.689818898500852540e-01 1.809497976230868943e+00
2.700224387467506371e-01 2.051463557675418770e+00
2.710629876434160201e-01 1.972429464559915857e+00
2.721035365400814032e-01 1.763667008896497634e+00
2.731440854367467863e-01 1.900773325736935249e+00
2.741846343334121694e-01 1.961036830835087841e+00
2.752251832300775525e-01 1.603416360580432354e+00
2.762657321267429356e-01 1.606988820147648767e+00
2.773062810234083186e-01 1.647080515245413324e+00
2.783468299200737017e-01 1.675734066190585736e+00
2.793873788167390848e-01 1.782699833669102674e+00
2.804279277134044679e-01 1.766318984943058723e+00
2.814684766100698510e-01 1.704862243514632780e+00
2.825090255067352341e-01 1.601744621817285719e+00
2.835495744034006171e-01 1.472647750651269405e+00
2.845901233000660002e-01 1.376017680776556062e+00
2.856306721967313833e-01 1.417870818669136668e+00
2.866712210933967664e-01 1.563196433577310529e+00
2.877117699900621495e-01 1.635005893715124614e+00
2.887523188867275326e-01 1.410448672766428047e+00
2.897928677833929156e-01 1.172646810333855427e+00
2.908334166800582987e-01 1.289293877540355737e+00
2.918739655767236818e-01 1.392393316831636696e+00
2.929145144733890649e-01 1.086141491060296005e+00
2.939550633700544480e-01 1.115056535328452725e+00
2.949956122667198311e-01 1.120576703202424085e+00
2.960361611633852141e-01 1.134183000831807675e+00
2.970767100600505972e-01 1.075918753419323082e+00
2.981172589567159803e-01 1.043138893230754149e+00
2.991578078533813634e-01 9.304575665792640393e-01
3.001983567500468020e-01 8.745136984730130791e-01
3.012389056467121851e-01 9.275066350697258599e-01
3.022794545433775681e-01 7.584114752895203537e-01
3.033200034400429512e-01 6.688876769939753331e-01
3.043605523367083343e-01 6.596439981000976616e-01
3.054011012333737174e-01 6.533776412292020552e-01
3.064416501300391005e-01 6.807083808265410596e-01
3.074821990267044836e-01 5.711299895179458019e-01
3.085227479233698666e-01 6.376626765793673712e-01
3.095632968200352497e-01 6.653151290800245476e-01
3.106038457167006328e-01 6.595469272780647429e-01
3.116443946133660159e-01 6.874423108636591451e-01
3.126849435100313990e-01 4.900326132523709077e-01
3.137254924066967821e-01 5.409935479262450997e-01
3.147660413033621651e-01 7.988795394829573127e-01
3.158065902000275482e-01 6.625044053306901048e-01
3.168471390966929313e-01 6.163213876462485530e-01
3.178876879933583144e-01 5.143245906832518699e-01
3.189282368900236975e-01 5.721381200281783208e-01
3.199687857866890806e-01 4.441880300077762911e-01
3.210093346833544636e-01 4.074019176383103513e-01
3.220498835800198467e-01 4.609044380301234867e-01
3.230904324766852298e-01 4.245010435030494023e-01
3.241309813733506129e-01 5.325080892797302567e-01
3.251715302700159960e-01 5.979456676530467973e-01
3.262120791666813790e-01 6.410317451050424609e-01
3.272526280633467621e-01 6.713238137695540786e-01
3.282931769600121452e-01 4.430053809531315778e-01
3.293337258566775283e-01 4.109116912255785792e-01
3.303742747533429114e-01 5.570282149656549109e-01
3.314148236500082945e-01 3.593933030509077753e-01
3.324553725466736775e-01 3.806985550052957024e-01
3.334959214433390606e-01 2.587292014503042026e-01
3.345364703400044437e-01 4.788096851287235722e-01
3.355770192366698268e-01 4.527851347379545643e-01
3.366175681333352099e-01 4.149738963756881560e-01
3.376581170300005930e-01 4.026863763377654948e-01
3.386986659266659760e-01 6.866041098903643558e-01
3.397392148233313591e-01 7.498244912825704489e-01
3.407797637199967422e-01 6.624636688180736144e-01
3.418203126166621253e-01 6.935180036733790132e-01
3.428608615133275084e-01 7.653232834295629061e-01
3.439014104099928915e-01 6.465626275599909434e-01
3.449419593066582745e-01 6.565351189491046568e-01
3.459825082033236576e-01 6.540203323086970499e-01
3.470230570999890407e-01 7.166547908222824503e-01
3.480636059966544238e-01 5.994341946169079449e-01
3.491041548933198069e-01 5.282215119397477565e-01
3.501447037899851900e-01 6.711567149032902080e-01
3.511852526866505730e-01 7.122610450236521729e-01
3.522258015833159561e-01 6.531055630357514019e-01
3.532663504799813392e-01 6.887581634942918640e-01
3.543068993766467223e-01 7.399909340846555494e-01
3.553474482733121054e-01 5.564390419704423607e-01
3.563879971699774885e-01 5.510303385405315169e-01
3.574285460666428715e-01 8.619328637091996370e-01
3.584690949633082546e-01 8.333881017497049015e-01
3.595096438599736377e-01 7.651109061551153445e-01
3.605501927566390208e-01 5.541034294441189445e-01
3.615907416533044039e-01 7.005633802054376247e-01
3.626312905499697870e-01 5.552860778565893440e-01
3.636718394466351700e-01 5.207711758161543969e-01
3.647123883433005531e-01 6.369307153982610714e-01
3.657529372399659362e-01 5.297437669512170544e-01
3.667934861366313193e-01 5.815470615683153710e-01
3.678340350332967024e-01 4.971675354020739235e-01
3.688745839299620854e-01 4.580048866113592965e-01
3.699151328266274685e-01 7.278117317832055733e-01
3.709556817232928516e-01 6.251947666613872912e-01
3.719962306199582347e-01 6.502134428268639965e-01
3.730367795166236178e-01 7.008202400921099695e-01
3.740773284132890009e-01 4.697292054464057287e-01
3.751178773099543839e-01 5.924300821800798644e-01
3.761584262066197670e-01 7.115392723205502534e-01
3.771989751032851501e-01 7.161093156664115611e-01
3.782395239999505332e-01 7.544878895911999450e-01
3.792800728966159163e-01 7.318152486108964183e-01
3.803206217932812994e-01 5.859378607891265744e-01
3.813611706899466824e-01 4.205067699881652743e-01
3.824017195866120655e-01 4.385174002526355252e-01
3.834422684832774486e-01 4.961359798701145962e-01
3.844828173799428317e-01 5.565355850068591792e-01
3.855233662766082148e-01 4.351886410981222753e-01
3.865639151732735979e-01 4.653248404923431281e-01
3.876044640699389809e-01 5.935257119964383321e-01
3.886450129666043640e-01 3.994468659094749796e-01
3.896855618632697471e-01 3.165254083607500490e-01
3.907261107599351302e-01 3.317159305315620088e-01
3.917666596566005133e-01 4.075140968806003627e-01
3.928072085532658964e-01 4.458142508274640647e-01
3.938477574499312794e-01 2.933901770623243976e-01
3.948883063465966625e-01 4.315438181436839216e-01
3.959288552432620456e-01 2.961581958198316045e-01
3.969694041399274287e-01 1.130635616920727671e-01
3.980099530365928118e-01 1.454245930479594051e-01
3.990505019332581949e-01 2.835682645328674312e-01
4.000910508299235779e-01 3.170298447450043966e-01
4.011315997265889610e-01 3.822909581022564396e-01
4.021721486232543441e-01 4.455420501953106793e-01
4.032126975199197272e-01 4.109350492064791638e-01
4.042532464165851103e-01 3.064210201882779927e-01
4.052937953132504934e-01 1.383001568512405299e-01
4.063343442099158764e-01 2.033557456340808756e-01
4.073748931065812595e-01 3.459503497678362294e-01
4.084154420032466426e-01 3.953170572809234784e-01
4.094559908999120257e-01 4.237566530241352325e-01
4.104965397965774088e-01 2.001654695380388205e-01
4.115370886932427918e-01 8.424746928307413896e-02
4.125776375899081749e-01 1.363305699278711813e-01
4.136181864865735580e-01 2.706843464602606275e-01
4.146587353832389411e-01 3.006334591034161008e-01
4.156992842799043242e-01 2.607047840390990245e-01
4.167398331765697073e-01 3.229642514886350568e-01
4.177803820732350903e-01 5.093969721496556247e-01
4.188209309699004734e-01 3.625227504181438576e-01
4.198614798665658565e-01 1.846250010036136757e-01
4.209020287632312396e-01 1.166624976602719244e-01
4.219425776598966227e-01 1.177373978553504230e-01
4.229831265565620058e-01 1.617873881120353019e-01
4.240236754532273888e-01 2.574164092977611062e-01
4.250642243498927719e-01 2.826354302537907870e-01
4.261047732465581550e-01 9.782783495251479167e-02
4.271453221432235381e-01 9.170923290480814671e-02
4.281858710398889212e-01 2.185948247352555995e-01
4.292264199365543043e-01 1.819388452063073203e-01
4.302669688332196873e-01 2.511225667027972008e-01
4.313075177298850704e-01 2.520394683755107224e-01
4.323480666265504535e-01 2.294433734920175993e-01
4.333886155232158366e-01 2.841792050501581457e-01
4.344291644198812197e-01 4.181339663540803997e-01
