# q (1/Angstrom), Intensity (arb)
2.029070354705860696e-02 1.358164197808509925e+03
2.133125244372399004e-02 1.356313784918398596e+03
2.237180134038937659e-02 1.344614699977301598e+03
2.341235023705475968e-02 1.336501743879748346e+03
2.445289913372014276e-02 1.331678175098462134e+03
2.549344803038552584e-02 1.318553524231105030e+03
2.653399692705091240e-02 1.307959424782079623e+03
2.757454582371629548e-02 1.291815781359641960e+03
2.861509472038167856e-02 1.276890270473649707e+03
2.965564361704706164e-02 1.263141094865624382e+03
3.069619251371244473e-02 1.247171100106972062e+03
3.173674141037782781e-02 1.227251931896558972e+03
3.277729030704321089e-02 1.213925381684531203e+03
3.381783920370859398e-02 1.196689115093053715e+03
3.485838810037397706e-02 1.176753028890018868e+03
3.589893699703936014e-02 1.157192383590509735e+03
3.693948589370474322e-02 1.137335287642947378e+03
3.798003479037012631e-02 1.116866122796006039e+03
3.902058368703550939e-02 1.098843945751298406e+03
4.006113258370089247e-02 1.073560412850156808e+03
4.110168148036627556e-02 1.053389228374325285e+03
4.214223037703165864e-02 1.030883438219444315e+03
4.318277927369704866e-02 1.007940378777284081e+03
4.422332817036243174e-02 9.858867005069308789e+02
4.526387706702781483e-02 9.638830729475928365e+02
4.630442596369319791e-02 9.434637119333629016e+02
4.734497486035858099e-02 9.202415148958946247e+02
4.838552375702396408e-02 8.957961479214749261e+02
4.942607265368934716e-02 8.766139380068890432e+02
5.046662155035473024e-02 8.520446895410814250e+02
5.150717044702011332e-02 8.265015345481566555e+02
5.254771934368549641e-02 8.050175063148587924e+02
5.358826824035087949e-02 7.848547670949922122e+02
5.462881713701626257e-02 7.591385326656434245e+02
5.566936603368164566e-02 7.360014147498659440e+02
5.670991493034702874e-02 7.167036549552731231e+02
5.775046382701241182e-02 6.945787035645194010e+02
5.879101272367779490e-02 6.716147393993167043e+02
5.983156162034317799e-02 6.503446358693981892e+02
6.087211051700856107e-02 6.300344104403465053e+02
6.191265941367394415e-02 6.099141692113367981e+02
6.295320831033933417e-02 5.893343501892710492e+02
6.399375720700471726e-02 5.699658644319890755e+02
6.503430610367010034e-02 5.488125265549496135e+02
6.607485500033548342e-02 5.284873676062446748e+02
6.711540389700086651e-02 5.101379514865919305e+02
6.815595279366624959e-02 4.915517974016448193e+02
6.919650169033163267e-02 4.698441373515063333e+02
7.023705058699701576e-02 4.506487465855919368e+02
7.127759948366239884e-02 4.321892233674473118e+02
7.231814838032778192e-02 4.139296263955944823e+02
7.335869727699316500e-02 3.959661492591341130e+02
7.439924617365854809e-02 3.792222813645483939e+02
7.543979507032393117e-02 3.619124658254277733e+02
7.648034396698931425e-02 3.457145506002923980e+02
7.752089286365469734e-02 3.305970841499909625e+02
7.856144176032008042e-02 3.142569699854680039e+02
7.960199065698546350e-02 2.988531798921781615e+02
8.064253955365084658e-02 2.855666287319843946e+02
8.168308845031622967e-02 2.710875685452216999e+02
8.272363734698161275e-02 2.564526428467759160e+02
8.376418624364699583e-02 2.419856033276716403e+02
8.480473514031239279e-02 2.298623375395660560e+02
8.584528403697777588e-02 2.174156892560069423e+02
8.688583293364315896e-02 2.049844372696483674e+02
8.792638183030854204e-02 1.930240895496297355e+02
8.896693072697392513e-02 1.825133663957041108e+02
9.000747962363930821e-02 1.712301619657976914e+02
9.104802852030469129e-02 1.611189914979138962e+02
9.208857741697007437e-02 1.508362555641726885e+02
9.312912631363545746e-02 1.408319908238809717e+02
9.416967521030084054e-02 1.301836136079879793e+02
9.521022410696622362e-02 1.229978623766083246e+02
9.625077300363160671e-02 1.147194356280415519e+02
9.729132190029698979e-02 1.054363989114488902e+02
9.833187079696237287e-02 9.755894480670741586e+01
9.937241969362775595e-02 9.033801955915444637e+01
1.004129685902931390e-01 8.334591609660752454e+01
1.014535174869585221e-01 7.649234053028681046e+01
1.024940663836239052e-01 7.068540566632698585e+01
1.035346152802892883e-01 6.482436049547271750e+01
1.045751641769546714e-01 5.971411973305383469e+01
1.056157130736200545e-01 5.478106223416986609e+01
1.066562619702854375e-01 4.969602229100495094e+01
1.076968108669508206e-01 4.427331287087707068e+01
1.087373597636162037e-01 4.029960110492161363e+01
1.097779086602815868e-01 3.620414901666885754e+01
1.108184575569469699e-01 3.275590535267996017e+01
1.118590064536123529e-01 2.971672029279756799e+01
1.128995553502777360e-01 2.631760507108693048e+01
1.139401042469431191e-01 2.272929445167616791e+01
1.149806531436085022e-01 2.002227388093820082e+01
1.160212020402738853e-01 1.760535748172480908e+01
1.170617509369392684e-01 1.519058279452455906e+01
1.181022998336046514e-01 1.352671004433778279e+01
1.191428487302700345e-01 1.172495358316476199e+01
1.201833976269354176e-01 9.955752074768135174e+00
1.212239465236008007e-01 8.464585606132985163e+00
1.222644954202661838e-01 7.185938395805656853e+00
1.233050443169315669e-01 6.034702070873457558e+00
1.243455932135969499e-01 5.401103404370395822e+00
1.253861421102623330e-01 4.169056504275189923e+00
1.264266910069277161e-01 3.405228462353186103e+00
1.274672399035930992e-01 2.771157757258400522e+00
1.285077888002584823e-01 2.323713218138976799e+00
1.295483376969238654e-01 2.536928202304927993e+00
1.305888865935892484e-01 2.451524558734860193e+00
1.316294354902546315e-01 2.077147513783863531e+00
1.326699843869200146e-01 2.097713523506385513e+00
1.337105332835853977e-01 1.786483856003400206e+00
1.347510821802507808e-01 1.763966456033074337e+00
1.357916310769161639e-01 1.763192150185830087e+00
1.368321799735815469e-01 1.716928206089399112e+00
1.378727288702469300e-01 2.040219726829889169e+00
1.389132777669123131e-01 2.723174527093284780e+00
1.399538266635776962e-01 3.083729250094734198e+00
1.409943755602430793e-01 3.246751088502833227e+00
1.420349244569084624e-01 3.608175274930744081e+00
1.430754733535738454e-01 4.031933286603823774e+00
1.441160222502392285e-01 4.219798695213462736e+00
1.451565711469046116e-01 4.404371684205642623e+00
1.461971200435699947e-01 4.941435201508447506e+00
1.472376689402353778e-01 5.460957213734829452e+00
1.482782178369007609e-01 6.099728626674497889e+00
1.493187667335661439e-01 6.052694237371682107e+00
1.503593156302315270e-01 5.684643435439554082e+00
1.513998645268969101e-01 6.283850382460265394e+00
1.524404134235622932e-01 6.726732307984114811e+00
1.534809623202276763e-01 6.811430723605674586e+00
1.545215112168930593e-01 7.869830058091885405e+00
1.555620601135584424e-01 8.926317203605186990e+00
1.566026090102238255e-01 8.838044545750669556e+00
1.576431579068892086e-01 8.874172260805053725e+00
1.586837068035545917e-01 9.211986291717238373e+00
1.597242557002199748e-01 9.058318164562507491e+00
1.607648045968853578e-01 9.496074858651461170e+00
1.618053534935507409e-01 1.015925304756664360e+01
1.628459023902161240e-01 1.027756940044829292e+01
1.638864512868815071e-01 1.023631558378677653e+01
1.649270001835468902e-01 1.019504058355144593e+01
1.659675490802122733e-01 1.038316778915205418e+01
1.670080979768776563e-01 1.034323081558093804e+01
1.680486468735430672e-01 1.028752314218913710e+01
1.690891957702084503e-01 1.070734736920770303e+01
1.701297446668738333e-01 1.049240426164432449e+01
1.711702935635392164e-01 1.032221371869409410e+01
1.722108424602045995e-01 1.037876184787262446e+01
1.732513913568699826e-01 1.010150221909263024e+01
1.742919402535353657e-01 9.759306707986262097e+00
1.753324891502007488e-01 9.867647922325787135e+00
1.763730380468661318e-01 9.955983799625307995e+00
1.774135869435315149e-01 9.900936386174322479e+00
1.784541358401968980e-01 9.751161039856050650e+00
1.794946847368622811e-01 9.348552473238299854e+00
1.805352336335276642e-01 9.072065780120318834e+00
1.815757825301930473e-01 8.820603455605457555e+00
1.826163314268584303e-01 8.551022248453406860e+00
1.836568803235238134e-01 8.456642787344620160e+00
1.846974292201891965e-01 8.128124013275261461e+00
1.857379781168545796e-01 7.888228707488451619e+00
1.867785270135199627e-01 7.621762551893475290e+00
1.878190759101853458e-01 7.428249576466981807e+00
1.888596248068507288e-01 7.216120373111458264e+00
1.899001737035161119e-01 6.646418082537280725e+00
1.909407226001814950e-01 6.475841087164027954e+00
1.919812714968468781e-01 6.193069394816994588e+00
1.930218203935122612e-01 5.959582017536295240e+00
1.940623692901776443e-01 5.676892486616342381e+00
1.951029181868430273e-01 5.173306865116522602e+00
1.961434670835084104e-01 4.824198760684826226e+00
1.971840159801737935e-01 4.780123797115610529e+00
1.982245648768391766e-01 4.511292473411781856e+00
1.992651137735045597e-01 4.216933197437722214e+00
2.003056626701699428e-01 4.213585656952261616e+00
2.013462115668353813e-01 3.848958008312841628e+00
2.023867604635007644e-01 3.401150960739251161e+00
2.034273093601661475e-01 3.241909886222540393e+00
2.044678582568315306e-01 3.130294429403310374e+00
2.055084071534969137e-01 2.751584822265911612e+00
2.065489560501622968e-01 2.208488730617030882e+00
2.075895049468276798e-01 2.184174129093250372e+00
2.086300538434930629e-01 1.939288620966735266e+00
2.096706027401584460e-01 1.688604643028643437e+00
2.107111516368238291e-01 1.741509993015021962e+00
2.117517005334892122e-01 1.414868394671390917e+00
2.127922494301545953e-01 1.210335226006314713e+00
2.138327983268199783e-01 1.181408313965459200e+00
2.148733472234853614e-01 1.028858930974664077e+00
2.159138961201507445e-01 9.150697150781681444e-01
2.169544450168161276e-01 8.875567661333896297e-01
2.179949939134815107e-01 8.159535367251500304e-01
2.190355428101468938e-01 5.693152621504573574e-01
2.200760917068122768e-01 8.256453724626027224e-01
2.211166406034776599e-01 6.759571346545136805e-01
2.221571895001430430e-01 3.482640228526214798e-01
2.231977383968084261e-01 2.124974400686596709e-01
2.242382872934738092e-01 4.004169688237020353e-01
2.252788361901391923e-01 5.177862683113758635e-01
2.263193850868045753e-01 1.005547577100287526e-01
2.273599339834699584e-01 0.000000000000000000e+00
2.284004828801353415e-01 2.377457305676600186e-01
2.294410317768007246e-01 4.942884898421873174e-01
2.304815806734661077e-01 5.707856936502082590e-01
2.315221295701314908e-01 5.467022903148404112e-01
2.325626784667968738e-01 4.988573301435650365e-01
2.336032273634622569e-01 4.021916337439463973e-01
2.346437762601276400e-01 4.337454476489241983e-01
2.356843251567930231e-01 4.832939972557745989e-01
2.367248740534584062e-01 6.068537037840009418e-01
2.377654229501237892e-01 7.214164384943870800e-01
2.388059718467891723e-01 6.387112499690488221e-01
2.398465207434545554e-01 5.383869337530917676e-01
2.408870696401199385e-01 3.350358320108810517e-01
2.419276185367853216e-01 8.132502634759468663e-01
2.429681674334507047e-01 8.360544967586065468e-01
2.440087163301160877e-01 1.008017825356692043e+00
2.450492652267814708e-01 1.022325772655982234e+00
2.460898141234468539e-01 7.317608249839260282e-01
2.471303630201122370e-01 8.499852203573894371e-01
2.481709119167776201e-01 1.155631948860577296e+00
2.492114608134430032e-01 1.079021933529126898e+00
2.502520097101083585e-01 1.246633757080690685e+00
2.512925586067737416e-01 1.247293480736164639e+00
2.523331075034391247e-01 1.397387342334202032e+00
2.533736564001045077e-01 1.131617682550373871e+00
2.544142052967698908e-01 1.439976031184194483e+00
2.554547541934352739e-01 1.800335594910333015e+00
2.564953030901006570e-01 1.802364651718349364e+00
2.575358519867660401e-01 1.633561672962663636e+00
2.585764008834314231e-01 1.164622906663058899e+00
2.596169497800968062e-01 1.442977309105607731e+00
2.606574986767621893e-01 1.513932027363221522e+00
2.616980475734275724e-01 1.447311371059136320e+00
2.627385964700929555e-01 1.728067311618655566e+00
2.637791453667583386e-01 1.689084749950012565e+00
2.648196942634237216e-01 1.448885678070769956e+00
2.658602431600891047e-01 1.546580350137041648e+00
2.669007920567544878e-01 1.462584203454543541e+00
2.679413409534198709e-01 1.293414768348373656e+00
2.689818898500852540e-01 1.429113605217462890e+00
2.700224387467506371e-01 1.525122415812209198e+00
2.710629876434160201e-01 1.604461019342494410e+00
2.721035365400814032e-01 1.693902426870455002e+00
2.731440854367467863e-01 1.689007564703519648e+00
2.741846343334121694e-01 1.457300529686275326e+00
2.752251832300775525e-01 1.713740017472453303e+00
2.762657321267429356e-01 1.419090634110364846e+00
2.773062810234083186e-01 1.337600059373240668e+00
2.783468299200737017e-01 1.394716050037150268e+00
2.793873788167390848e-01 1.278355651734749188e+00
2.804279277134044679e-01 1.339456145531308096e+00
2.814684766100698510e-01 1.418431899644573946e+00
2.825090255067352341e-01 1.226036775143303004e+00
2.835495744034006171e-01 9.238147007515422615e-01
2.845901233000660002e-01 1.017862496047658993e+00
2.856306721967313833e-01 1.028106644108468970e+00
2.866712210933967664e-01 6.884662179962752759e-01
2.877117699900621495e-01 6.939510526442305149e-01
2.887523188867275326e-01 9.932385675777162248e-01
2.897928677833929156e-01 8.028780866499616309e-01
2.908334166800582987e-01 7.099243545909068587e-01
2.918739655767236818e-01 8.540496230302245806e-01
2.929145144733890649e-01 9.335143683650954927e-01
2.939550633700544480e-01 8.869047637833418207e-01
2.949956122667198311e-01 8.503856145931116828e-01
2.960361611633852141e-01 7.213878840017287075e-01
2.970767100600505972e-01 6.428714525600973673e-01
2.981172589567159803e-01 5.907404199769494824e-01
2.991578078533813634e-01 6.087772853668447226e-01
3.001983567500468020e-01 6.008760120453722209e-01
3.012389056467121851e-01 6.191463294067283130e-01
3.022794545433775681e-01 6.403173209146828526e-01
3.033200034400429512e-01 5.159001578769455421e-01
3.043605523367083343e-01 2.936454324317097075e-01
3.054011012333737174e-01 2.060514992507620491e-01
3.064416501300391005e-01 2.345598426208788112e-01
3.074821990267044836e-01 4.490002975415876563e-01
3.085227479233698666e-01 5.491709100547410571e-01
3.095632968200352497e-01 6.600446563709034820e-01
3.106038457167006328e-01 4.137262295289012570e-01
3.116443946133660159e-01 3.605776909270730357e-01
3.126849435100313990e-01 3.527701443895097100e-01
3.137254924066967821e-01 5.056603959661103431e-01
3.147660413033621651e-01 4.099409498304069643e-01
3.158065902000275482e-01 6.644741462553582778e-02
3.168471390966929313e-01 3.153548885177848149e-01
3.178876879933583144e-01 3.127692251084681629e-01
3.189282368900236975e-01 3.994322964795813391e-01
3.199687857866890806e-01 3.354214235633854457e-01
3.210093346833544636e-01 2.551761245617072404e-01
3.220498835800198467e-01 3.647442519466075339e-01
3.230904324766852298e-01 3.197114472308015820e-01
3.241309813733506129e-01 3.353377440928220210e-01
3.251715302700159960e-01 1.651618987636780389e-01
3.262120791666813790e-01 2.742872695262335014e-01
3.272526280633467621e-01 3.305326522393308153e-01
3.282931769600121452e-01 3.937764307613491610e-01
3.293337258566775283e-01 2.488462877994770395e-01
3.303742747533429114e-01 3.010683357042154284e-01
3.314148236500082945e-01 3.556786977405330674e-01
3.324553725466736775e-01 3.715119716174299924e-01
3.334959214433390606e-01 3.495535940330860569e-01
3.345364703400044437e-01 3.492776224173468336e-01
3.355770192366698268e-01 5.730422051403216699e-01
3.366175681333352099e-01 5.876224242358922822e-01
3.376581170300005930e-01 4.318408092842815904e-01
3.386986659266659760e-01 3.374495062948028590e-01
3.397392148233313591e-01 3.760305812471926856e-01
3.407797637199967422e-01 6.532182528446206504e-01
3.418203126166621253e-01 5.522142117015569340e-01
3.428608615133275084e-01 3.874374937686759779e-01
3.439014104099928915e-01 4.103392750180390181e-01
3.449419593066582745e-01 3.413077595485560778e-01
3.459825082033236576e-01 3.844005295889196816e-01
3.470230570999890407e-01 2.849860124953593754e-01
3.480636059966544238e-01 5.659283583672767293e-01
3.491041548933198069e-01 5.678152597714287708e-01
3.501447037899851900e-01 5.808025457338565900e-01
3.511852526866505730e-01 5.749133902424006237e-01
3.522258015833159561e-01 4.953591474704381881e-01
3.532663504799813392e-01 5.936828586402675967e-01
3.543068993766467223e-01 8.377517707735933072e-01
3.553474482733121054e-01 7.823951944139153625e-01
3.563879971699774885e-01 4.955659885768781692e-01
3.574285460666428715e-01 3.016326914741611631e-01
3.584690949633082546e-01 5.305312073775780846e-01
3.595096438599736377e-01 6.466726945646961155e-01
3.605501927566390208e-01 5.854037481801732667e-01
3.615907416533044039e-01 5.614128946846221879e-01
3.626312905499697870e-01 4.374562327990396682e-01
3.636718394466351700e-01 7.027540923967521280e-01
3.647123883433005531e-01 6.063742282992414800e-01
3.657529372399659362e-01 6.561694201865009290e-01
3.667934861366313193e-01 6.926096026777592840e-01
3.678340350332967024e-01 6.642766156532644573e-01
3.688745839299620854e-01 5.678050181726312928e-01
3.699151328266274685e-01 4.349523580925946931e-01
3.709556817232928516e-01 5.077856439732535421e-01
3.719962306199582347e-01 3.660913968451637857e-01
3.730367795166236178e-01 6.247011369257933211e-01
3.740773284132890009e-01 4.809781444005558626e-01
3.751178773099543839e-01 5.695703476959508293e-01
3.761584262066197670e-01 5.364832045873271227e-01
3.771989751032851501e-01 4.464652814747296361e-01
3.782395239999505332e-01 5.525165230244439840e-01
3.792800728966159163e-01 6.487159116720455643e-01
3.803206217932812994e-01 4.102691196377534766e-01
3.813611706899466824e-01 3.849950334136700292e-01
3.824017195866120655e-01 4.150592961850954055e-01
3.834422684832774486e-01 4.429884326383870530e-01
3.844828173799428317e-01 4.139298404188842539e-01
3.855233662766082148e-01 4.047119283083802088e-01
3.865639151732735979e-01 6.331444897013227546e-01
3.876044640699389809e-01 5.414964153653265555e-01
3.886450129666043640e-01 4.345295532642623471e-01
3.896855618632697471e-01 5.975798991741001487e-01
3.907261107599351302e-01 5.684307375712229771e-01
3.917666596566005133e-01 5.001490319767292192e-01
3.928072085532658964e-01 4.591062231911529068e-01
3.938477574499312794e-01 3.312625291003286065e-01
3.948883063465966625e-01 2.475892986723984279e-01
3.959288552432620456e-01 2.812908179423594390e-01
3.969694041399274287e-01 3.023064838221216633e-01
3.980099530365928118e-01 2.169926425993153885e-01
3.990505019332581949e-01 1.678947838818878324e-01
4.000910508299235779e-01 3.228622827120410932e-01
4.011315997265889610e-01 3.478927449014115325e-01
4.021721486232543441e-01 2.796666140100967368e-01
4.032126975199197272e-01 3.167392703126878928e-01
4.042532464165851103e-01 1.901555599310995603e-01
4.052937953132504934e-01 1.889241177101119717e-01
4.063343442099158764e-01 3.056586512806696021e-01
4.073748931065812595e-01 2.654086884001536362e-01
4.084154420032466426e-01 3.056649296018711937e-01
4.094559908999120257e-01 3.749055085131978160e-01
4.104965397965774088e-01 3.371588390373858601e-01
4.115370886932427918e-01 4.910195483012529394e-01
4.125776375899081749e-01 3.750351225121200116e-01
4.136181864865735580e-01 2.889735611635408929e-01
4.146587353832389411e-01 2.562267103299511462e-01
4.156992842799043242e-01 2.385001986419510445e-01
4.167398331765697073e-01 2.688827625196665849e-01
4.177803820732350903e-01 3.406537832421392409e-01
4.188209309699004734e-01 2.602348306732835681e-01
4.198614798665658565e-01 1.027854162297394680e-01
4.209020287632312396e-01 2.125961586590427999e-01
4.219425776598966227e-01 3.382935906858257624e-01
4.229831265565620058e-01 2.741350257587242822e-01
4.240236754532273888e-01 1.795033725529471269e-01
4.250642243498927719e-01 2.467066125396968346e-01
4.261047732465581550e-01 2.933816074715309696e-01
4.271453221432235381e-01 3.393306083570983844e-01
4.281858710398889212e-01 2.705650784165882783e-01
4.292264199365543043e-01 3.073910555499104191e-01
4.302669688332196873e-01 2.793938367292696512e-01
4.313075177298850704e-01 1.139997570135911076e-01
4.323480666265504535e-01 3.510538110231564701e-01
4.333886155232158366e-01 4.312334945696960631e-01
4.344291644198812197e-01 3.872883931442210326e-01
