# q (1/Angstrom), Intensity (arb)
2.029070354705860696e-02 1.426366716578037767e+03
2.133125244372399004e-02 1.424835774223077578e+03
2.237180134038937659e-02 1.417231704668990915e+03
2.341235023705475968e-02 1.410308929282263989e+03
2.445289913372014276e-02 1.400375721571279882e+03
2.549344803038552584e-02 1.393011835533004842e+03
2.653399692705091240e-02 1.385370939263881610e+03
2.757454582371629548e-02 1.369388247044937543e+03
2.861509472038167856e-02 1.345199676150092500e+03
2.965564361704706164e-02 1.327976073317166993e+03
3.069619251371244473e-02 1.319110507290587975e+03
3.173674141037782781e-02 1.300491124976791980e+03
3.277729030704321089e-02 1.280417538849999801e+03
3.381783920370859398e-02 1.258887523563572813e+03
3.485838810037397706e-02 1.235330297416944404e+03
3.589893699703936014e-02 1.213841523106139221e+03
3.693948589370474322e-02 1.196149211388873482e+03
3.798003479037012631e-02 1.178494780620906113e+03
3.902058368703550939e-02 1.158635458450637998e+03
4.006113258370089247e-02 1.134160575766209149e+03
4.110168148036627556e-02 1.111676306675835804e+03
4.214223037703165864e-02 1.086990735297721358e+03
4.318277927369704866e-02 1.062717153033115437e+03
4.422332817036243174e-02 1.041141896386945746e+03
4.526387706702781483e-02 1.013665259824367240e+03
4.630442596369319791e-02 9.895557494962674809e+02
4.734497486035858099e-02 9.703555584493709603e+02
4.838552375702396408e-02 9.467723831061202873e+02
4.942607265368934716e-02 9.228946250355603524e+02
5.046662155035473024e-02 8.978740913062076743e+02
5.150717044702011332e-02 8.742462005399593181e+02
5.254771934368549641e-02 8.520078545330868565e+02
5.358826824035087949e-02 8.281671303054209829e+02
5.462881713701626257e-02 8.049286350943392563e+02
5.566936603368164566e-02 7.816780051195722763e+02
5.670991493034702874e-02 7.587112784998416828e+02
5.775046382701241182e-02 7.362422345890868201e+02
5.879101272367779490e-02 7.146307912895181289e+02
5.983156162034317799e-02 6.922492923255259711e+02
6.087211051700856107e-02 6.681512502423549904e+02
6.191265941367394415e-02 6.454679693813318409e+02
6.295320831033933417e-02 6.242463168672911706e+02
6.399375720700471726e-02 6.016663279604446188e+02
6.503430610367010034e-02 5.814204320845678922e+02
6.607485500033548342e-02 5.597915144582757421e+02
6.711540389700086651e-02 5.408506758606697531e+02
6.815595279366624959e-02 5.210008693753813986e+02
6.919650169033163267e-02 4.990736273662902249e+02
7.023705058699701576e-02 4.773645780852844496e+02
7.127759948366239884e-02 4.590193489719135869e+02
7.231814838032778192e-02 4.398931987792483937e+02
7.335869727699316500e-02 4.203389285292405475e+02
7.439924617365854809e-02 4.032001388599488223e+02
7.543979507032393117e-02 3.852421375735520996e+02
7.648034396698931425e-02 3.667746407055786904e+02
7.752089286365469734e-02 3.508843421140666123e+02
7.856144176032008042e-02 3.366155902765922292e+02
7.960199065698546350e-02 3.217063072021663857e+02
8.064253955365084658e-02 3.028383216277716770e+02
8.168308845031622967e-02 2.873172539122045919e+02
8.272363734698161275e-02 2.727632940149780438e+02
8.376418624364699583e-02 2.584112713193080708e+02
8.480473514031239279e-02 2.441879927095131393e+02
8.584528403697777588e-02 2.324735546676888021e+02
8.688583293364315896e-02 2.196583738785472519e+02
8.792638183030854204e-02 2.064737787598689067e+02
8.896693072697392513e-02 1.933893264272535930e+02
9.000747962363930821e-02 1.818988589475899857e+02
9.104802852030469129e-02 1.707356311057712901e+02
9.208857741697007437e-02 1.595259290180011931e+02
9.312912631363545746e-02 1.493842184710250933e+02
9.416967521030084054e-02 1.393444677633700337e+02
9.521022410696622362e-02 1.305394458502002237e+02
9.625077300363160671e-02 1.213839504014412114e+02
9.729132190029698979e-02 1.133997778753066541e+02
9.833187079696237287e-02 1.057567439240138469e+02
9.937241969362775595e-02 9.792660577220641471e+01
1.004129685902931390e-01 9.018664520287964592e+01
1.014535174869585221e-01 8.285492011833514425e+01
1.024940663836239052e-01 7.623315929469829655e+01
1.035346152802892883e-01 7.014600778712394913e+01
1.045751641769546714e-01 6.440624361338296922e+01
1.056157130736200545e-01 5.840815034767001634e+01
1.066562619702854375e-01 5.255549249758141173e+01
1.076968108669508206e-01 4.781389125025836506e+01
1.087373597636162037e-01 4.339784252797032593e+01
1.097779086602815868e-01 3.968318814031209030e+01
1.108184575569469699e-01 3.524308154225347067e+01
1.118590064536123529e-01 3.155643088706558785e+01
1.128995553502777360e-01 2.797926964752494428e+01
1.139401042469431191e-01 2.449568658761117135e+01
1.149806531436085022e-01 2.163352159827826071e+01
1.160212020402738853e-01 1.926667088559163332e+01
1.170617509369392684e-01 1.722056783350865317e+01
1.181022998336046514e-01 1.539255953167923963e+01
1.191428487302700345e-01 1.326186526337433946e+01
1.201833976269354176e-01 1.132695787975085722e+01
1.212239465236008007e-01 9.743774203743004847e+00
1.222644954202661838e-01 8.348101674558101593e+00
1.233050443169315669e-01 7.380708455556323599e+00
1.243455932135969499e-01 6.245519212117869756e+00
1.253861421102623330e-01 5.171075899802634268e+00
1.264266910069277161e-01 4.674005138241671631e+00
1.274672399035930992e-01 3.872135277525597274e+00
1.285077888002584823e-01 2.990545698880584524e+00
1.295483376969238654e-01 2.620660856577540443e+00
1.305888865935892484e-01 2.483312677434017957e+00
1.316294354902546315e-01 2.085161306342467213e+00
1.326699843869200146e-01 2.106391515804837411e+00
1.337105332835853977e-01 2.065967601970985612e+00
1.347510821802507808e-01 1.960239756575706593e+00
1.357916310769161639e-01 1.786320263145782405e+00
1.368321799735815469e-01 2.439966494186904811e+00
1.378727288702469300e-01 2.696164884333946077e+00
1.389132777669123131e-01 2.815269413101763263e+00
1.399538266635776962e-01 3.082117182931035870e+00
1.409943755602430793e-01 3.324515268341848184e+00
1.420349244569084624e-01 4.091399345160322554e+00
1.430754733535738454e-01 4.460667496258448494e+00
1.441160222502392285e-01 4.748725387939565223e+00
1.451565711469046116e-01 5.415273376091164437e+00
1.461971200435699947e-01 5.566034983816354753e+00
1.472376689402353778e-01 5.985540193559689470e+00
1.482782178369007609e-01 6.510720776270826349e+00
1.493187667335661439e-01 6.944324893565049450e+00
1.503593156302315270e-01 7.096782730795478500e+00
1.513998645268969101e-01 7.431197733568012609e+00
1.524404134235622932e-01 8.365837604160557106e+00
1.534809623202276763e-01 8.656278543070992981e+00
1.545215112168930593e-01 8.838913612358037852e+00
1.555620601135584424e-01 9.393428796115120605e+00
1.566026090102238255e-01 9.280040031885238960e+00
1.576431579068892086e-01 9.719382245603686243e+00
1.586837068035545917e-01 1.013963315845331792e+01
1.597242557002199748e-01 1.018000020053595378e+01
1.607648045968853578e-01 1.042896701117766511e+01
1.618053534935507409e-01 1.120745915418109462e+01
1.628459023902161240e-01 1.143092994691177822e+01
1.638864512868815071e-01 1.128035173521179502e+01
1.649270001835468902e-01 1.104295689620714782e+01
1.659675490802122733e-01 1.136015524837934620e+01
1.670080979768776563e-01 1.172392991310165655e+01
1.680486468735430672e-01 1.156160603876510251e+01
1.690891957702084503e-01 1.137051510233751017e+01
1.701297446668738333e-01 1.139756707986656536e+01
1.711702935635392164e-01 1.167976000097943512e+01
1.722108424602045995e-01 1.148206605692978854e+01
1.732513913568699826e-01 1.116142164743344267e+01
1.742919402535353657e-01 1.125261133115996515e+01
1.753324891502007488e-01 1.130020888213614327e+01
1.763730380468661318e-01 1.101362023537401313e+01
1.774135869435315149e-01 1.079386087447480591e+01
1.784541358401968980e-01 1.034150291476603556e+01
1.794946847368622811e-01 1.031815289107112221e+01
1.805352336335276642e-01 1.036659939568695066e+01
1.815757825301930473e-01 9.797909703536426207e+00
1.826163314268584303e-01 9.588367348460884898e+00
1.836568803235238134e-01 9.386568490396484776e+00
1.846974292201891965e-01 8.960709840610100230e+00
1.857379781168545796e-01 9.028233420042738544e+00
1.867785270135199627e-01 8.787063143619512573e+00
1.878190759101853458e-01 8.487896880821566015e+00
1.888596248068507288e-01 7.804295654285763106e+00
1.899001737035161119e-01 7.465240796961492009e+00
1.909407226001814950e-01 7.264053140891221005e+00
1.919812714968468781e-01 6.799768532146540423e+00
1.930218203935122612e-01 6.638951500366150782e+00
1.940623692901776443e-01 6.153308003226957368e+00
1.951029181868430273e-01 6.026446095339458964e+00
1.961434670835084104e-01 6.210086077377159341e+00
1.971840159801737935e-01 5.706135041422719212e+00
1.982245648768391766e-01 5.425485385277344363e+00
1.992651137735045597e-01 5.144493370693115963e+00
2.003056626701699428e-01 4.266504706258583468e+00
2.013462115668353813e-01 3.772550943477984475e+00
2.023867604635007644e-01 3.945753675575261354e+00
2.034273093601661475e-01 3.754369563406836363e+00
2.044678582568315306e-01 3.361166088625029857e+00
2.055084071534969137e-01 3.189923627957860219e+00
2.065489560501622968e-01 2.892727221587652053e+00
2.075895049468276798e-01 2.794202476525047274e+00
2.086300538434930629e-01 2.572820145761884447e+00
2.096706027401584460e-01 2.168257944593889874e+00
2.107111516368238291e-01 1.773005145267511296e+00
2.117517005334892122e-01 1.718952417464713278e+00
2.127922494301545953e-01 1.790543677672907563e+00
2.138327983268199783e-01 1.906166550281103156e+00
2.148733472234853614e-01 1.658824446057192148e+00
2.159138961201507445e-01 1.270671401881816820e+00
2.169544450168161276e-01 1.157888336843328148e+00
2.179949939134815107e-01 1.072903273543900582e+00
2.190355428101468938e-01 9.723378000593072557e-01
2.200760917068122768e-01 9.952960032336370944e-01
2.211166406034776599e-01 7.781525168230736256e-01
2.221571895001430430e-01 7.920636142065085039e-01
2.231977383968084261e-01 9.108416828006404842e-01
2.242382872934738092e-01 6.668526183577583311e-01
2.252788361901391923e-01 5.811295309983499635e-01
2.263193850868045753e-01 7.992813317091318481e-01
2.273599339834699584e-01 6.866405817553804525e-01
2.284004828801353415e-01 7.800891814091279741e-01
2.294410317768007246e-01 9.991612092854325056e-01
2.304815806734661077e-01 7.977335573797361690e-01
2.315221295701314908e-01 4.874571766378323900e-01
2.325626784667968738e-01 5.152230273793847459e-01
2.336032273634622569e-01 6.863034351801786670e-01
2.346437762601276400e-01 5.891125632465445960e-01
2.356843251567930231e-01 8.016258559918760795e-01
2.367248740534584062e-01 7.550232397957472585e-01
2.377654229501237892e-01 6.306465822110176589e-01
2.388059718467891723e-01 7.297432552682039386e-01
2.398465207434545554e-01 8.978454461411189413e-01
2.408870696401199385e-01 8.810942759629618592e-01
2.419276185367853216e-01 9.852028293655195057e-01
2.429681674334507047e-01 1.116708660800124875e+00
2.440087163301160877e-01 1.216113550012142497e+00
2.450492652267814708e-01 1.645096936644623753e+00
2.460898141234468539e-01 1.547765491802710613e+00
2.471303630201122370e-01 1.609522988845817792e+00
2.481709119167776201e-01 1.453288204363786917e+00
2.492114608134430032e-01 1.470024022696804877e+00
2.502520097101083585e-01 1.768858299018759794e+00
2.512925586067737416e-01 1.839390465536173025e+00
2.523331075034391247e-01 1.763756350392274186e+00
2.533736564001045077e-01 1.460141263999076955e+00
2.544142052967698908e-01 1.338871272668459511e+00
2.554547541934352739e-01 1.562814307879833109e+00
2.564953030901006570e-01 1.769564963223434262e+00
2.575358519867660401e-01 1.546209420218993102e+00
2.585764008834314231e-01 1.976511743709398417e+00
2.596169497800968062e-01 2.024547581938591634e+00
2.606574986767621893e-01 1.835289317380492946e+00
2.616980475734275724e-01 1.735778050801620509e+00
2.627385964700929555e-01 1.773892004383235133e+00
2.637791453667583386e-01 1.790019792504814689e+00
2.648196942634237216e-01 1.828754339764561365e+00
2.658602431600891047e-01 2.069230457458463235e+00
2.669007920567544878e-01 2.084344880972938796e+00
2.679413409534198709e-01 1.878381096279987617e+00
2.689818898500852540e-01 1.748176576368152269e+00
2.700224387467506371e-01 1.484047992087649703e+00
2.710629876434160201e-01 1.694075699763061493e+00
2.721035365400814032e-01 1.676812401058271007e+00
2.731440854367467863e-01 1.621611114474575288e+00
2.741846343334121694e-01 1.569479369064755048e+00
2.752251832300775525e-01 1.818077217061851769e+00
2.762657321267429356e-01 1.710412081335750401e+00
2.773062810234083186e-01 1.654634731537630188e+00
2.783468299200737017e-01 1.613364086538982889e+00
2.793873788167390848e-01 1.640472716473244219e+00
2.804279277134044679e-01 1.553059013803078869e+00
2.814684766100698510e-01 1.544238123914347227e+00
2.825090255067352341e-01 1.680765082848392211e+00
2.835495744034006171e-01 1.626745308456317929e+00
2.845901233000660002e-01 1.609961915318322667e+00
2.856306721967313833e-01 1.573307609224801951e+00
2.866712210933967664e-01 1.247826866114369437e+00
2.877117699900621495e-01 1.196495875985782220e+00
2.887523188867275326e-01 1.105527829023937869e+00
2.897928677833929156e-01 1.144649842275960339e+00
2.908334166800582987e-01 1.213881190409058064e+00
2.918739655767236818e-01 9.698094671220900409e-01
2.929145144733890649e-01 9.017636469391483445e-01
2.939550633700544480e-01 7.878719807042600110e-01
2.949956122667198311e-01 6.134210014003365075e-01
2.960361611633852141e-01 7.695641282665448557e-01
2.970767100600505972e-01 8.680258687114630334e-01
2.981172589567159803e-01 8.643033025484179177e-01
2.991578078533813634e-01 8.227179198235248236e-01
3.001983567500468020e-01 7.618673339261086142e-01
3.012389056467121851e-01 8.873394810575376823e-01
3.022794545433775681e-01 7.760298382738994860e-01
3.033200034400429512e-01 5.269459230530522120e-01
3.043605523367083343e-01 4.610138152715208548e-01
3.054011012333737174e-01 6.221982580380469585e-01
3.064416501300391005e-01 7.733747571822355837e-01
3.074821990267044836e-01 7.741764952957161938e-01
3.085227479233698666e-01 5.562378746064489121e-01
3.095632968200352497e-01 5.715790846945587589e-01
3.106038457167006328e-01 5.572019978787459138e-01
3.116443946133660159e-01 5.671376268718333336e-01
3.126849435100313990e-01 6.134994627374261711e-01
3.137254924066967821e-01 4.329366353007344514e-01
3.147660413033621651e-01 3.885021060019973049e-01
3.158065902000275482e-01 3.766347992391949617e-01
3.168471390966929313e-01 4.083654893144874620e-01
3.178876879933583144e-01 5.091477059367015556e-01
3.189282368900236975e-01 5.964091796258017553e-01
3.199687857866890806e-01 5.573952053863493461e-01
3.210093346833544636e-01 3.977427515044631434e-01
3.220498835800198467e-01 3.516211810192650944e-01
3.230904324766852298e-01 3.583555203354755747e-01
3.241309813733506129e-01 3.499488666582877272e-01
3.251715302700159960e-01 4.444983424812640749e-01
3.262120791666813790e-01 3.472222336377832619e-01
3.272526280633467621e-01 0.000000000000000000e+00
3.282931769600121452e-01 1.370783784289315577e-01
3.293337258566775283e-01 2.883779972221276466e-01
3.303742747533429114e-01 5.428821824655720718e-01
3.314148236500082945e-01 6.219443477658863628e-01
3.324553725466736775e-01 7.434471512529441384e-01
3.334959214433390606e-01 6.652503029609029284e-01
3.345364703400044437e-01 5.807552217819136331e-01
3.355770192366698268e-01 5.800067111818734134e-01
3.366175681333352099e-01 3.987807536381424711e-01
3.376581170300005930e-01 2.733727223957806984e-01
3.386986659266659760e-01 4.791768612716609255e-01
3.397392148233313591e-01 6.633255472723398327e-01
3.407797637199967422e-01 6.097851634629698481e-01
3.418203126166621253e-01 4.838754376292584425e-01
3.428608615133275084e-01 5.031119062170716916e-01
3.439014104099928915e-01 6.421416348481692182e-01
3.449419593066582745e-01 7.602741577578022714e-01
3.459825082033236576e-01 7.194829605330035349e-01
3.470230570999890407e-01 7.162093927721961961e-01
3.480636059966544238e-01 5.632865986175872308e-01
3.491041548933198069e-01 6.249287360089184062e-01
3.501447037899851900e-01 7.054384013839971601e-01
3.511852526866505730e-01 5.231192062285074940e-01
3.522258015833159561e-01 4.273814827920965342e-01
3.532663504799813392e-01 4.486990383913962432e-01
3.543068993766467223e-01 4.996462818104205894e-01
3.553474482733121054e-01 7.570003775958333847e-01
3.563879971699774885e-01 8.492749446799585655e-01
3.574285460666428715e-01 5.904016076236899835e-01
3.584690949633082546e-01 7.336348000888577303e-01
3.595096438599736377e-01 7.656579044830635894e-01
3.605501927566390208e-01 6.928491750623386736e-01
3.615907416533044039e-01 6.858121151719949182e-01
3.626312905499697870e-01 8.447931585414032440e-01
3.636718394466351700e-01 6.755436873784894658e-01
3.647123883433005531e-01 6.017055005211346952e-01
3.657529372399659362e-01 6.027667778482737049e-01
3.667934861366313193e-01 4.685945447548647280e-01
3.678340350332967024e-01 4.225647437421429231e-01
3.688745839299620854e-01 4.326007033504382093e-01
3.699151328266274685e-01 5.785050213768840877e-01
3.709556817232928516e-01 7.434250508142241642e-01
3.719962306199582347e-01 7.524100462507128384e-01
3.730367795166236178e-01 6.841356600070938043e-01
3.740773284132890009e-01 7.592743880929297973e-01
3.751178773099543839e-01 6.816335918408391592e-01
3.761584262066197670e-01 6.293678516532317246e-01
3.771989751032851501e-01 5.631940888714694893e-01
3.782395239999505332e-01 4.142285868371615720e-01
3.792800728966159163e-01 4.889827505980903766e-01
3.803206217932812994e-01 4.669642170331904651e-01
3.813611706899466824e-01 6.135873122789128331e-01
3.824017195866120655e-01 3.900272250240419680e-01
3.834422684832774486e-01 2.788514685722489617e-01
3.844828173799428317e-01 4.030837314358386436e-01
3.855233662766082148e-01 5.172222096330507668e-01
3.865639151732735979e-01 4.114252841360723778e-01
3.876044640699389809e-01 4.426505576167656386e-01
3.886450129666043640e-01 3.728027684178556456e-01
3.896855618632697471e-01 3.166596354339645814e-01
3.907261107599351302e-01 3.607490176212451161e-01
3.917666596566005133e-01 5.326892976940165170e-01
3.928072085532658964e-01 3.111910355445921539e-01
3.938477574499312794e-01 3.048610732636234388e-01
3.948883063465966625e-01 6.217546549661570054e-01
3.959288552432620456e-01 5.046903997052858415e-01
3.969694041399274287e-01 5.164923338890226034e-01
3.980099530365928118e-01 4.088943544836851629e-01
3.990505019332581949e-01 3.324794076725581249e-01
4.000910508299235779e-01 3.473600253850612773e-01
4.011315997265889610e-01 5.267586886968196325e-01
4.021721486232543441e-01 4.061594346904335850e-01
4.032126975199197272e-01 4.512927626589373631e-01
4.042532464165851103e-01 4.514516187249206780e-01
4.052937953132504934e-01 3.511761588227244602e-01
4.063343442099158764e-01 4.483053405803723024e-01
4.073748931065812595e-01 3.732892105015785944e-01
4.084154420032466426e-01 4.336509402290538162e-01
4.094559908999120257e-01 5.319781358705348850e-01
4.104965397965774088e-01 3.703247409133432200e-01
4.115370886932427918e-01 9.634697528550617562e-02
4.125776375899081749e-01 1.449589153896901905e-01
4.136181864865735580e-01 3.036266279495016818e-01
4.146587353832389411e-01 3.231534528124448968e-01
4.156992842799043242e-01 2.477730035260670149e-01
4.167398331765697073e-01 1.709128516837559175e-01
4.177803820732350903e-01 1.591166778408314997e-01
4.188209309699004734e-01 2.322799942389970340e-01
4.198614798665658565e-01 3.954046382962559392e-01
4.209020287632312396e-01 3.930779922494522793e-01
4.219425776598966227e-01 4.369528673489355697e-01
4.229831265565620058e-01 3.065238475216460756e-01
4.240236754532273888e-01 3.976563106390074154e-01
4.250642243498927719e-01 3.312191626096385733e-01
4.261047732465581550e-01 3.107758481074789358e-01
4.271453221432235381e-01 4.319445207105125917e-01
4.281858710398889212e-01 9.801416305012367047e-02
4.292264199365543043e-01 2.071513344696853665e-01
4.302669688332196873e-01 2.651624796870599710e-01
4.313075177298850704e-01 3.562693848829212584e-01
4.323480666265504535e-01 3.496298338335357414e-01
4.333886155232158366e-01 3.749946657595870647e-01
4.344291644198812197e-01 4.563156600962550158e-01
