# q (1/Angstrom), Intensity (arb)
2.029070354705860696e-02 1.291474763005681325e+03
2.133125244372399004e-02 1.281962478304147908e+03
2.237180134038937659e-02 1.277780418733167380e+03
2.341235023705475968e-02 1.275731149088315306e+03
2.445289913372014276e-02 1.263851144299008638e+03
2.549344803038552584e-02 1.247676387168982956e+03
2.653399692705091240e-02 1.230851094064325025e+03
2.757454582371629548e-02 1.219344056011654857e+03
2.861509472038167856e-02 1.206046459508461112e+03
2.965564361704706164e-02 1.194857133135506501e+03
3.069619251371244473e-02 1.180883311532732705e+03
3.173674141037782781e-02 1.165878284607571914e+03
3.277729030704321089e-02 1.148626095642098335e+03
3.381783920370859398e-02 1.127800959781483925e+03
3.485838810037397706e-02 1.109139198464647961e+03
3.589893699703936014e-02 1.089966463816864234e+03
3.693948589370474322e-02 1.069245188618089742e+03
3.798003479037012631e-02 1.050162635177015545e+03
3.902058368703550939e-02 1.031780620577442050e+03
4.006113258370089247e-02 1.015387938965284775e+03
4.110168148036627556e-02 9.932232226350836299e+02
4.214223037703165864e-02 9.732500843757006805e+02
4.318277927369704866e-02 9.563116383834420731e+02
4.422332817036243174e-02 9.329717806400269637e+02
4.526387706702781483e-02 9.085822584128018207e+02
4.630442596369319791e-02 8.897846023783732790e+02
4.734497486035858099e-02 8.683561242936867757e+02
4.838552375702396408e-02 8.466481087144213689e+02
4.942607265368934716e-02 8.254696201702319058e+02
5.046662155035473024e-02 8.042547857021227173e+02
5.150717044702011332e-02 7.849922223750406829e+02
5.254771934368549641e-02 7.615432859398187020e+02
5.358826824035087949e-02 7.412240796736414268e+02
5.462881713701626257e-02 7.205611333869381951e+02
5.566936603368164566e-02 6.980643388146207826e+02
5.670991493034702874e-02 6.760444777117858166e+02
5.775046382701241182e-02 6.561849782743696551e+02
5.879101272367779490e-02 6.369405306689350255e+02
5.983156162034317799e-02 6.147124655862145346e+02
6.087211051700856107e-02 5.958731539832783710e+02
6.191265941367394415e-02 5.775493528849364111e+02
6.295320831033933417e-02 5.563458500864346661e+02
6.399375720700471726e-02 5.353349342669927182e+02
6.503430610367010034e-02 5.160518062963626562e+02
6.607485500033548342e-02 4.984155898871993031e+02
6.711540389700086651e-02 4.806691896270883149e+02
6.815595279366624959e-02 4.621801840371541061e+02
6.919650169033163267e-02 4.442828439647446430e+02
7.023705058699701576e-02 4.271218567909972990e+02
7.127759948366239884e-02 4.101203507703310152e+02
7.231814838032778192e-02 3.925661495188036838e+02
7.335869727699316500e-02 3.727196575420573481e+02
7.439924617365854809e-02 3.573430755153136715e+02
7.543979507032393117e-02 3.420699389434981299e+02
7.648034396698931425e-02 3.277920992790722039e+02
7.752089286365469734e-02 3.110545394756064752e+02
7.856144176032008042e-02 2.963674091205014633e+02
7.960199065698546350e-02 2.829343498886200905e+02
8.064253955365084658e-02 2.693068918769099582e+02
8.168308845031622967e-02 2.547952371440608488e+02
8.272363734698161275e-02 2.425778203537962554e+02
8.376418624364699583e-02 2.301333140021527583e+02
8.480473514031239279e-02 2.175864519022654235e+02
8.584528403697777588e-02 2.062914532487779411e+02
8.688583293364315896e-02 1.948401050612489200e+02
8.792638183030854204e-02 1.821891339648760777e+02
8.896693072697392513e-02 1.710775298204809758e+02
9.000747962363930821e-02 1.609904383195330695e+02
9.104802852030469129e-02 1.516056978279886494e+02
9.208857741697007437e-02 1.433936054370739157e+02
9.312912631363545746e-02 1.338185369211543048e+02
9.416967521030084054e-02 1.247140832292302548e+02
9.521022410696622362e-02 1.149176958412656120e+02
9.625077300363160671e-02 1.068932001447113009e+02
9.729132190029698979e-02 9.931077442307159231e+01
9.833187079696237287e-02 9.299177796015524677e+01
9.937241969362775595e-02 8.571012396905518926e+01
1.004129685902931390e-01 7.879186409469858177e+01
1.014535174869585221e-01 7.354577884201327720e+01
1.024940663836239052e-01 6.745952407467774492e+01
1.035346152802892883e-01 6.124076194484837998e+01
1.045751641769546714e-01 5.598155266016110687e+01
1.056157130736200545e-01 5.142739330176938495e+01
1.066562619702854375e-01 4.619760180179097375e+01
1.076968108669508206e-01 4.231689329119270582e+01
1.087373597636162037e-01 3.840614482722410372e+01
1.097779086602815868e-01 3.450608519160619636e+01
1.108184575569469699e-01 3.077706361328610285e+01
1.118590064536123529e-01 2.768393704450004122e+01
1.128995553502777360e-01 2.438672653469690488e+01
1.139401042469431191e-01 2.110999356912968494e+01
1.149806531436085022e-01 1.921184024617268449e+01
1.160212020402738853e-01 1.714670115540432249e+01
1.170617509369392684e-01 1.437494544625473480e+01
1.181022998336046514e-01 1.282326243019258527e+01
1.191428487302700345e-01 1.123687127983323819e+01
1.201833976269354176e-01 9.395518184721133537e+00
1.212239465236008007e-01 8.407511738125606371e+00
1.222644954202661838e-01 7.005335508906256337e+00
1.233050443169315669e-01 5.505186233820460018e+00
1.243455932135969499e-01 4.430264400890756349e+00
1.253861421102623330e-01 3.871502232034131907e+00
1.264266910069277161e-01 3.335601477962846673e+00
1.274672399035930992e-01 2.894971189153459079e+00
1.285077888002584823e-01 2.675474440467759507e+00
1.295483376969238654e-01 2.124854034881842324e+00
1.305888865935892484e-01 1.516357252224814545e+00
1.316294354902546315e-01 1.854559422987691164e+00
1.326699843869200146e-01 2.199209251899482354e+00
1.337105332835853977e-01 1.656890410278137438e+00
1.347510821802507808e-01 1.586638209650338638e+00
1.357916310769161639e-01 1.745531261277292856e+00
1.368321799735815469e-01 1.708920355019763804e+00
1.378727288702469300e-01 1.914133914247784674e+00
1.389132777669123131e-01 2.291695910984664408e+00
1.399538266635776962e-01 2.520889426001453160e+00
1.409943755602430793e-01 3.143916262344795598e+00
1.420349244569084624e-01 3.176752499319562162e+00
1.430754733535738454e-01 3.298459966880812999e+00
1.441160222502392285e-01 3.714818542322234407e+00
1.451565711469046116e-01 4.179284211476279154e+00
1.461971200435699947e-01 4.972676103689693150e+00
1.472376689402353778e-01 5.307748771725506742e+00
1.482782178369007609e-01 5.582714045165829475e+00
1.493187667335661439e-01 5.614442060853441774e+00
1.503593156302315270e-01 6.329979213412350703e+00
1.513998645268969101e-01 7.020713278291310644e+00
1.524404134235622932e-01 7.239640227071191703e+00
1.534809623202276763e-01 7.436587980517820995e+00
1.545215112168930593e-01 7.776351942308984633e+00
1.555620601135584424e-01 7.937260849308110267e+00
1.566026090102238255e-01 7.798737234530058515e+00
1.576431579068892086e-01 8.419245559571393756e+00
1.586837068035545917e-01 8.873942378998243896e+00
1.597242557002199748e-01 9.473005261275112332e+00
1.607648045968853578e-01 9.739720944134560909e+00
1.618053534935507409e-01 1.016807049960846143e+01
1.628459023902161240e-01 9.634295478257165257e+00
1.638864512868815071e-01 1.030463000268577645e+01
1.649270001835468902e-01 1.014421841886348830e+01
1.659675490802122733e-01 9.844306137982030691e+00
1.670080979768776563e-01 9.601922787439939100e+00
1.680486468735430672e-01 9.523742360976918064e+00
1.690891957702084503e-01 1.007793168414342233e+01
1.701297446668738333e-01 9.935763992474512918e+00
1.711702935635392164e-01 9.656563752961019986e+00
1.722108424602045995e-01 9.418397830565744755e+00
1.732513913568699826e-01 9.661114220174617628e+00
1.742919402535353657e-01 9.964243255615528483e+00
1.753324891502007488e-01 9.546972048866287253e+00
1.763730380468661318e-01 9.240189938584116192e+00
1.774135869435315149e-01 9.182039324835898242e+00
1.784541358401968980e-01 8.719102834799812740e+00
1.794946847368622811e-01 8.960178686860565733e+00
1.805352336335276642e-01 8.844397556824468154e+00
1.815757825301930473e-01 8.603132214394491939e+00
1.826163314268584303e-01 8.110955519451060525e+00
1.836568803235238134e-01 7.772789269282441182e+00
1.846974292201891965e-01 7.788222694832668935e+00
1.857379781168545796e-01 7.492307010731884986e+00
1.867785270135199627e-01 7.459131981498309472e+00
1.878190759101853458e-01 7.559735514210252916e+00
1.888596248068507288e-01 6.929809689775687787e+00
1.899001737035161119e-01 6.397657063334854399e+00
1.909407226001814950e-01 6.341407200225177121e+00
1.919812714968468781e-01 5.878577847338412710e+00
1.930218203935122612e-01 5.760413208429298493e+00
1.940623692901776443e-01 5.069552183747290997e+00
1.951029181868430273e-01 4.891810128744232600e+00
1.961434670835084104e-01 4.929171160462800572e+00
1.971840159801737935e-01 4.631464286124469254e+00
1.982245648768391766e-01 3.885601923344410125e+00
1.992651137735045597e-01 3.440147506395845767e+00
2.003056626701699428e-01 3.424492492120890574e+00
2.013462115668353813e-01 3.470655219840679706e+00
2.023867604635007644e-01 3.338827209936809481e+00
2.034273093601661475e-01 3.311553609579547697e+00
2.044678582568315306e-01 2.843440086608858053e+00
2.055084071534969137e-01 2.649743261656304583e+00
2.065489560501622968e-01 2.171710191746257124e+00
2.075895049468276798e-01 2.036011830204515149e+00
2.086300538434930629e-01 1.879497515153694565e+00
2.096706027401584460e-01 1.876423221483868531e+00
2.107111516368238291e-01 1.764926011300367747e+00
2.117517005334892122e-01 1.585258496630459035e+00
2.127922494301545953e-01 1.187221739264913367e+00
2.138327983268199783e-01 1.216027272345584720e+00
2.148733472234853614e-01 1.206258694740107273e+00
2.159138961201507445e-01 9.709723995785637385e-01
2.169544450168161276e-01 1.144905132568375450e+00
2.179949939134815107e-01 8.796698396887308036e-01
2.190355428101468938e-01 6.881509084664116926e-01
2.200760917068122768e-01 5.571528537347454346e-01
2.211166406034776599e-01 8.166969895431819282e-01
2.221571895001430430e-01 7.855534958484824415e-01
2.231977383968084261e-01 6.845690180808574610e-01
2.242382872934738092e-01 7.752248766002978186e-01
2.252788361901391923e-01 7.443801012851771759e-01
2.263193850868045753e-01 8.926173820307141682e-01
2.273599339834699584e-01 5.518799624887229527e-01
2.284004828801353415e-01 3.160323761095540362e-01
2.294410317768007246e-01 5.187051282376984318e-01
2.304815806734661077e-01 5.298852271969245464e-01
2.315221295701314908e-01 4.356878250460205493e-01
2.325626784667968738e-01 5.285296158221015617e-01
2.336032273634622569e-01 9.984586932760919353e-02
2.346437762601276400e-01 2.575462521445359698e-01
2.356843251567930231e-01 8.250840704328048503e-01
2.367248740534584062e-01 6.549371516559787665e-01
2.377654229501237892e-01 5.926287504354377234e-01
2.388059718467891723e-01 6.179076293816372356e-01
2.398465207434545554e-01 5.648815008648782054e-01
2.408870696401199385e-01 6.539573838686969509e-01
2.419276185367853216e-01 6.848772249882522090e-01
2.429681674334507047e-01 7.122920638990386522e-01
2.440087163301160877e-01 8.157053869166368543e-01
2.450492652267814708e-01 8.386771885949997341e-01
2.460898141234468539e-01 8.223044507116696877e-01
2.471303630201122370e-01 1.107475261665772592e+00
2.481709119167776201e-01 1.382779384414437374e+00
2.492114608134430032e-01 1.242202234329507604e+00
2.502520097101083585e-01 1.275977421613639251e+00
2.512925586067737416e-01 1.217311666420080485e+00
2.523331075034391247e-01 1.097274289671304359e+00
2.533736564001045077e-01 1.200575474572453061e+00
2.544142052967698908e-01 1.481298863480375871e+00
2.554547541934352739e-01 1.503910546910354640e+00
2.564953030901006570e-01 1.655434617899533833e+00
2.575358519867660401e-01 1.521389131369392800e+00
2.585764008834314231e-01 1.679637805278105134e+00
2.596169497800968062e-01 1.431520842182361974e+00
2.606574986767621893e-01 1.279888299891709380e+00
2.616980475734275724e-01 1.398220408943714688e+00
2.627385964700929555e-01 1.550793695849947085e+00
2.637791453667583386e-01 1.447039172211496805e+00
2.648196942634237216e-01 1.627031503377700972e+00
2.658602431600891047e-01 1.614309151742734372e+00
2.669007920567544878e-01 1.688966152107784779e+00
2.679413409534198709e-01 1.793699431498986030e+00
2.689818898500852540e-01 1.652721497218827551e+00
2.700224387467506371e-01 1.594798914662437284e+00
2.710629876434160201e-01 1.234931300891087602e+00
2.721035365400814032e-01 1.574413297268538514e+00
2.731440854367467863e-01 1.971028255236117133e+00
2.741846343334121694e-01 1.805399568203810645e+00
2.752251832300775525e-01 1.670499527207400803e+00
2.762657321267429356e-01 1.523007986629167476e+00
2.773062810234083186e-01 1.533790987441225440e+00
2.783468299200737017e-01 1.378734231050678716e+00
2.793873788167390848e-01 1.335641807285760763e+00
2.804279277134044679e-01 1.152733729343239588e+00
2.814684766100698510e-01 1.226921346579583627e+00
2.825090255067352341e-01 1.323243423113787287e+00
2.835495744034006171e-01 1.202940668330541030e+00
2.845901233000660002e-01 7.461828400239802761e-01
2.856306721967313833e-01 7.514627416380079694e-01
2.866712210933967664e-01 9.238775475731948461e-01
2.877117699900621495e-01 1.000762874476549769e+00
2.887523188867275326e-01 8.151520514736887435e-01
2.897928677833929156e-01 8.796176778837541121e-01
2.908334166800582987e-01 1.034566390584643614e+00
2.918739655767236818e-01 9.283564975560203436e-01
2.929145144733890649e-01 7.340724950544874616e-01
2.939550633700544480e-01 9.230949946449626964e-01
2.949956122667198311e-01 1.014553681736629187e+00
2.960361611633852141e-01 9.247917769344589090e-01
2.970767100600505972e-01 7.583062288237165660e-01
2.981172589567159803e-01 7.548267506932440085e-01
2.991578078533813634e-01 5.107729698786833694e-01
3.001983567500468020e-01 4.555307236749861488e-01
3.012389056467121851e-01 4.416595018156677099e-01
3.022794545433775681e-01 4.947877716550692639e-01
3.033200034400429512e-01 6.116505568344550170e-01
3.043605523367083343e-01 2.537005102389748856e-01
3.054011012333737174e-01 4.701977767082112791e-01
3.064416501300391005e-01 5.316143173768850261e-01
3.074821990267044836e-01 3.461742135580578861e-01
3.085227479233698666e-01 4.931164195165003150e-01
3.095632968200352497e-01 3.357557354548852402e-01
3.106038457167006328e-01 2.206767323360807609e-01
3.116443946133660159e-01 4.425397840949081285e-01
3.126849435100313990e-01 4.954286212377496668e-01
3.137254924066967821e-01 4.022534923075085089e-01
3.147660413033621651e-01 3.129210849276589101e-01
3.158065902000275482e-01 2.468647148974305594e-01
3.168471390966929313e-01 2.457874928653076552e-01
3.178876879933583144e-01 3.040097139025661477e-01
3.189282368900236975e-01 9.633275466141100196e-02
3.199687857866890806e-01 1.856039040352825964e-01
3.210093346833544636e-01 1.590739175317956722e-01
3.220498835800198467e-01 1.541263223389499615e-01
3.230904324766852298e-01 3.669242140810347053e-01
3.241309813733506129e-01 5.466827509354743597e-01
3.251715302700159960e-01 3.366714185764969614e-01
3.262120791666813790e-01 4.237924496416063391e-01
3.272526280633467621e-01 6.462776080652687938e-02
3.282931769600121452e-01 2.263958429938952577e-01
3.293337258566775283e-01 2.238513964808568346e-01
3.303742747533429114e-01 2.130852596975714164e-01
3.314148236500082945e-01 3.925753846812298775e-01
3.324553725466736775e-01 4.518113835972208392e-01
3.334959214433390606e-01 4.352223747187586866e-01
3.345364703400044437e-01 4.695139978707487671e-01
3.355770192366698268e-01 5.811860399010910783e-01
3.366175681333352099e-01 5.654458922184382175e-01
3.376581170300005930e-01 4.157703721114849316e-01
3.386986659266659760e-01 3.358266832346288311e-01
3.397392148233313591e-01 3.807171688447539282e-01
3.407797637199967422e-01 4.577753677909228713e-01
3.418203126166621253e-01 3.667653191676265578e-01
3.428608615133275084e-01 2.965872738516495133e-01
3.439014104099928915e-01 4.044935885342724191e-01
3.449419593066582745e-01 6.646949287349457336e-01
3.459825082033236576e-01 9.168006402519388587e-01
3.470230570999890407e-01 7.170631585844837730e-01
3.480636059966544238e-01 5.537359829510322129e-01
3.491041548933198069e-01 5.726612214063990791e-01
3.501447037899851900e-01 7.223936995997988220e-01
3.511852526866505730e-01 7.634914780294366210e-01
3.522258015833159561e-01 7.983820999648756356e-01
3.532663504799813392e-01 6.535663903416768505e-01
3.543068993766467223e-01 2.485027231162995065e-01
3.553474482733121054e-01 2.298229753697320632e-01
3.563879971699774885e-01 2.498818519236678526e-01
3.574285460666428715e-01 4.660510057619511315e-01
3.584690949633082546e-01 2.952503780827875346e-01
3.595096438599736377e-01 2.959851850613937074e-01
3.605501927566390208e-01 6.154921389353553707e-01
3.615907416533044039e-01 6.219208827143383189e-01
3.626312905499697870e-01 5.485455834199726155e-01
3.636718394466351700e-01 7.026910598499682692e-01
3.647123883433005531e-01 6.846233379423800613e-01
3.657529372399659362e-01 6.192637458941305795e-01
3.667934861366313193e-01 5.205890978397320623e-01
3.678340350332967024e-01 5.003743622545258063e-01
3.688745839299620854e-01 6.741944269029040981e-01
3.699151328266274685e-01 6.683958945731909296e-01
3.709556817232928516e-01 6.061151839608385217e-01
3.719962306199582347e-01 6.314822654855092310e-01
3.730367795166236178e-01 4.829055884038311319e-01
3.740773284132890009e-01 5.790223404407619512e-01
3.751178773099543839e-01 6.534855192225457188e-01
3.761584262066197670e-01 7.082672473665603263e-01
3.771989751032851501e-01 6.017438993952950455e-01
3.782395239999505332e-01 5.670406317146614583e-01
3.792800728966159163e-01 4.894863092527295123e-01
3.803206217932812994e-01 3.695947862253454730e-01
3.813611706899466824e-01 3.363770554382590205e-01
3.824017195866120655e-01 5.429041291708074368e-01
3.834422684832774486e-01 4.140810629373170570e-01
3.844828173799428317e-01 3.574130009933824681e-01
3.855233662766082148e-01 5.078859461764402283e-01
3.865639151732735979e-01 6.945786685029453622e-01
3.876044640699389809e-01 6.226519304355200291e-01
3.886450129666043640e-01 4.853730914340097513e-01
3.896855618632697471e-01 5.777202325150838647e-01
3.907261107599351302e-01 3.950261645708756930e-01
3.917666596566005133e-01 4.775199103749763196e-01
3.928072085532658964e-01 2.862517732915854651e-01
3.938477574499312794e-01 2.373477018715739462e-01
3.948883063465966625e-01 3.208627773151739859e-01
3.959288552432620456e-01 2.879428626287356963e-01
3.969694041399274287e-01 1.263842890235267191e-01
3.980099530365928118e-01 1.760190618354435799e-01
3.990505019332581949e-01 3.358003171631729344e-01
4.000910508299235779e-01 5.759381223085817680e-01
4.011315997265889610e-01 4.680274447779382285e-01
4.021721486232543441e-01 2.372268286201411058e-01
4.032126975199197272e-01 1.577774723801717016e-01
4.042532464165851103e-01 0.000000000000000000e+00
4.052937953132504934e-01 2.190959455901193564e-01
4.063343442099158764e-01 3.755768771321079669e-01
4.073748931065812595e-01 2.880499037677672902e-01
4.084154420032466426e-01 3.501950681438366075e-01
4.094559908999120257e-01 4.811105501882444457e-01
4.104965397965774088e-01 3.790618758264692190e-01
4.115370886932427918e-01 2.801150043874329754e-01
4.125776375899081749e-01 3.728113742606922187e-01
4.136181864865735580e-01 3.553200599360515355e-01
4.146587353832389411e-01 1.082028222456301592e-01
4.156992842799043242e-01 2.303230922582208962e-01
4.167398331765697073e-01 3.430845269048496959e-01
4.177803820732350903e-01 3.580601266595486720e-01
4.188209309699004734e-01 3.929676370568628840e-01
4.198614798665658565e-01 4.401450299626361584e-01
4.209020287632312396e-01 4.401417404825593849e-01
4.219425776598966227e-01 4.256163794135296996e-01
4.229831265565620058e-01 3.168495482188546930e-01
4.240236754532273888e-01 3.093575476971714977e-01
4.250642243498927719e-01 3.041424269662158508e-01
4.261047732465581550e-01 3.735031938558641684e-01
4.271453221432235381e-01 3.860401595190232626e-01
4.281858710398889212e-01 3.832824418346127970e-01
4.292264199365543043e-01 4.717639847260457486e-01
4.302669688332196873e-01 2.081726010732687371e-01
4.313075177298850704e-01 2.503761490057669903e-01
4.323480666265504535e-01 3.670572791089945497e-01
4.333886155232158366e-01 3.416941851393531238e-01
4.344291644198812197e-01 3.460964558828898419e-01
