# q (1/Angstrom), Intensity (arb)
2.029070354705860696e-02 1.321353049095782126e+03
2.133125244372399004e-02 1.317157418181478533e+03
2.237180134038937659e-02 1.312929787319344769e+03
2.341235023705475968e-02 1.306132688724170748e+03
2.445289913372014276e-02 1.295194922873128235e+03
2.549344803038552584e-02 1.284185789514359840e+03
2.653399692705091240e-02 1.274683885315067073e+03
2.757454582371629548e-02 1.257130020525382179e+03
2.861509472038167856e-02 1.241381644271018558e+03
2.965564361704706164e-02 1.228974652983408305e+03
3.069619251371244473e-02 1.214972011363821139e+03
3.173674141037782781e-02 1.196512187948341307e+03
3.277729030704321089e-02 1.179972523237355517e+03
3.381783920370859398e-02 1.160358255003185150e+03
3.485838810037397706e-02 1.142589110362529254e+03
3.589893699703936014e-02 1.128734345175372482e+03
3.693948589370474322e-02 1.109284037086825037e+03
3.798003479037012631e-02 1.089400952941401783e+03
3.902058368703550939e-02 1.071863896011059751e+03
4.006113258370089247e-02 1.046559241770351946e+03
4.110168148036627556e-02 1.020922630438809392e+03
4.214223037703165864e-02 1.002054990543167719e+03
4.318277927369704866e-02 9.801672732012716551e+02
4.422332817036243174e-02 9.555296841596690456e+02
4.526387706702781483e-02 9.325323331114113898e+02
4.630442596369319791e-02 9.131589846245910849e+02
4.734497486035858099e-02 8.926452652769859242e+02
4.838552375702396408e-02 8.702349406065092126e+02
4.942607265368934716e-02 8.513284667099485432e+02
5.046662155035473024e-02 8.301258322546326553e+02
5.150717044702011332e-02 8.038374330910953631e+02
5.254771934368549641e-02 7.815337322632116184e+02
5.358826824035087949e-02 7.607857744124046349e+02
5.462881713701626257e-02 7.393278074165540374e+02
5.566936603368164566e-02 7.190319180630331175e+02
5.670991493034702874e-02 6.977428549489370653e+02
5.775046382701241182e-02 6.778035159551631068e+02
5.879101272367779490e-02 6.554294484528026032e+02
5.983156162034317799e-02 6.321119075658518796e+02
6.087211051700856107e-02 6.111906478761063681e+02
6.191265941367394415e-02 5.912005735594086673e+02
6.295320831033933417e-02 5.709147023262511311e+02
6.399375720700471726e-02 5.508665064162527187e+02
6.503430610367010034e-02 5.312209715061577526e+02
6.607485500033548342e-02 5.128611828473035530e+02
6.711540389700086651e-02 4.954032302806817825e+02
6.815595279366624959e-02 4.760631248481799958e+02
6.919650169033163267e-02 4.551065301252875201e+02
7.023705058699701576e-02 4.380462086156105102e+02
7.127759948366239884e-02 4.194607320468613807e+02
7.231814838032778192e-02 4.028037160682512194e+02
7.335869727699316500e-02 3.856026193816659884e+02
7.439924617365854809e-02 3.688823829598328530e+02
7.543979507032393117e-02 3.521982197228871883e+02
7.648034396698931425e-02 3.335714792235219193e+02
7.752089286365469734e-02 3.189023707676885238e+02
7.856144176032008042e-02 3.047110547103062572e+02
7.960199065698546350e-02 2.912911489553075626e+02
8.064253955365084658e-02 2.774657830489145454e+02
8.168308845031622967e-02 2.635009665275310340e+02
8.272363734698161275e-02 2.486431439663817855e+02
8.376418624364699583e-02 2.357021542422999119e+02
8.480473514031239279e-02 2.222975292541122769e+02
8.584528403697777588e-02 2.107256695981990902e+02
8.688583293364315896e-02 1.989949945605202402e+02
8.792638183030854204e-02 1.885373361594762116e+02
8.896693072697392513e-02 1.777915450784081486e+02
9.000747962363930821e-02 1.669769791189191892e+02
9.104802852030469129e-02 1.558203408998600707e+02
9.208857741697007437e-02 1.458619199911317992e+02
9.312912631363545746e-02 1.359147113876559558e+02
9.416967521030084054e-02 1.274954230354220215e+02
9.521022410696622362e-02 1.192525957035958299e+02
9.625077300363160671e-02 1.095280339125688727e+02
9.729132190029698979e-02 1.017706956728607679e+02
9.833187079696237287e-02 9.469449641819326757e+01
9.937241969362775595e-02 8.790466852551936938e+01
1.004129685902931390e-01 8.148733397671901457e+01
1.014535174869585221e-01 7.466483993203547698e+01
1.024940663836239052e-01 6.769310103727816852e+01
1.035346152802892883e-01 6.279435438721642981e+01
1.045751641769546714e-01 5.834364778614744296e+01
1.056157130736200545e-01 5.315120170135324429e+01
1.066562619702854375e-01 4.892291048944396437e+01
1.076968108669508206e-01 4.383246056693023007e+01
1.087373597636162037e-01 3.946358020729377358e+01
1.097779086602815868e-01 3.575495075903068454e+01
1.108184575569469699e-01 3.191035663079235718e+01
1.118590064536123529e-01 2.874149818085593466e+01
1.128995553502777360e-01 2.534057317681983790e+01
1.139401042469431191e-01 2.181033564131658409e+01
1.149806531436085022e-01 1.961545495545463069e+01
1.160212020402738853e-01 1.696648287075761630e+01
1.170617509369392684e-01 1.446088666827530744e+01
1.181022998336046514e-01 1.255268389506206006e+01
1.191428487302700345e-01 1.119304824948317645e+01
1.201833976269354176e-01 1.021027797905152568e+01
1.212239465236008007e-01 8.258219306879162502e+00
1.222644954202661838e-01 6.983912296177898327e+00
1.233050443169315669e-01 6.100083630935728252e+00
1.243455932135969499e-01 4.737537813544413723e+00
1.253861421102623330e-01 4.146398244769990526e+00
1.264266910069277161e-01 3.527623864374426432e+00
1.274672399035930992e-01 2.738993533185933416e+00
1.285077888002584823e-01 2.383724779706938079e+00
1.295483376969238654e-01 1.555092999725474101e+00
1.305888865935892484e-01 1.593983695472182660e+00
1.316294354902546315e-01 1.791757870563635890e+00
1.326699843869200146e-01 1.616987667243499516e+00
1.337105332835853977e-01 1.368763082964662203e+00
1.347510821802507808e-01 1.243302392341469442e+00
1.357916310769161639e-01 1.271443031513435074e+00
1.368321799735815469e-01 1.947510955780913378e+00
1.378727288702469300e-01 2.338538763965253509e+00
1.389132777669123131e-01 2.569312922343051753e+00
1.399538266635776962e-01 2.440680985639495759e+00
1.409943755602430793e-01 3.224975436880576751e+00
1.420349244569084624e-01 3.263211527983685301e+00
1.430754733535738454e-01 3.489509952654884728e+00
1.441160222502392285e-01 3.815607526385718984e+00
1.451565711469046116e-01 4.335831011586783745e+00
1.461971200435699947e-01 4.798716898641771422e+00
1.472376689402353778e-01 5.579406268554500059e+00
1.482782178369007609e-01 5.939036210190742793e+00
1.493187667335661439e-01 6.211651417419709276e+00
1.503593156302315270e-01 6.269228792820811691e+00
1.513998645268969101e-01 6.783642324175168881e+00
1.524404134235622932e-01 6.989001169437045746e+00
1.534809623202276763e-01 7.390579640808965678e+00
1.545215112168930593e-01 7.925187530573538197e+00
1.555620601135584424e-01 8.217307841774228905e+00
1.566026090102238255e-01 8.665124182400802511e+00
1.576431579068892086e-01 8.445208469918007665e+00
1.586837068035545917e-01 8.239360532056132058e+00
1.597242557002199748e-01 8.805219998829301176e+00
1.607648045968853578e-01 9.609972677383744610e+00
1.618053534935507409e-01 9.767394326147339711e+00
1.628459023902161240e-01 9.609948665960502012e+00
1.638864512868815071e-01 9.768486246786466154e+00
1.649270001835468902e-01 9.464449824771875797e+00
1.659675490802122733e-01 9.822103085559973579e+00
1.670080979768776563e-01 1.019437497687752625e+01
1.680486468735430672e-01 1.005730229182368163e+01
1.690891957702084503e-01 9.962031839182863280e+00
1.701297446668738333e-01 1.006094623012151601e+01
1.711702935635392164e-01 9.842770943648702087e+00
1.722108424602045995e-01 9.968263593259074185e+00
1.732513913568699826e-01 1.024931238154662339e+01
1.742919402535353657e-01 9.737215948887410377e+00
1.753324891502007488e-01 9.389453441225448671e+00
1.763730380468661318e-01 9.429201243224291318e+00
1.774135869435315149e-01 9.353623400151150236e+00
1.784541358401968980e-01 9.701250571244145249e+00
1.794946847368622811e-01 9.189245249520020309e+00
1.805352336335276642e-01 8.708665075615499518e+00
1.815757825301930473e-01 8.392794211582526032e+00
1.826163314268584303e-01 8.335468920789388392e+00
1.836568803235238134e-01 7.976250609636302613e+00
1.846974292201891965e-01 7.451013469097432562e+00
1.857379781168545796e-01 7.343001046525188258e+00
1.867785270135199627e-01 6.920302829746894702e+00
1.878190759101853458e-01 7.078830653001823237e+00
1.888596248068507288e-01 6.973964653796741686e+00
1.899001737035161119e-01 6.331156845294060531e+00
1.909407226001814950e-01 6.087911042488592273e+00
1.919812714968468781e-01 5.716171750424337006e+00
1.930218203935122612e-01 5.538942616300246868e+00
1.940623692901776443e-01 5.232726344704708765e+00
1.951029181868430273e-01 4.712265812368798379e+00
1.961434670835084104e-01 4.576299409671506169e+00
1.971840159801737935e-01 4.712764608227452356e+00
1.982245648768391766e-01 4.086932406471603940e+00
1.992651137735045597e-01 3.361644801067264154e+00
2.003056626701699428e-01 3.345802358288352707e+00
2.013462115668353813e-01 3.275296067561136226e+00
2.023867604635007644e-01 3.486227837392789297e+00
2.034273093601661475e-01 3.251241787991034471e+00
2.044678582568315306e-01 2.764142964630458721e+00
2.055084071534969137e-01 2.329639768894679719e+00
2.065489560501622968e-01 2.079910095643434431e+00
2.075895049468276798e-01 1.678024500894771620e+00
2.086300538434930629e-01 1.793719262962184757e+00
2.096706027401584460e-01 1.627799982110907706e+00
2.107111516368238291e-01 1.210681688473115969e+00
2.117517005334892122e-01 1.177022221963838433e+00
2.127922494301545953e-01 1.031455730938510840e+00
2.138327983268199783e-01 9.554771706043965196e-01
2.148733472234853614e-01 1.050694433626340185e+00
2.159138961201507445e-01 8.809326606102558799e-01
2.169544450168161276e-01 8.971765619831373328e-01
2.179949939134815107e-01 8.065222468145556434e-01
2.190355428101468938e-01 7.368650849923454871e-01
2.200760917068122768e-01 5.160556615354110477e-01
2.211166406034776599e-01 4.127593744975541767e-01
2.221571895001430430e-01 1.661668512340312986e-01
2.231977383968084261e-01 1.226191211355178723e-01
2.242382872934738092e-01 1.040968916758870932e-01
2.252788361901391923e-01 1.798745823592788895e-01
2.263193850868045753e-01 4.446709967208235526e-01
2.273599339834699584e-01 4.014242440483108965e-01
2.284004828801353415e-01 3.299512804446251835e-01
2.294410317768007246e-01 6.711305911078078168e-01
2.304815806734661077e-01 2.631243474125177784e-01
2.315221295701314908e-01 4.707403411035855356e-01
2.325626784667968738e-01 3.435851311048203627e-01
2.336032273634622569e-01 2.563017240032401389e-01
2.346437762601276400e-01 4.920209853790247223e-01
2.356843251567930231e-01 6.878736279032757750e-01
2.367248740534584062e-01 5.915342963583434255e-01
2.377654229501237892e-01 6.841303024603000438e-01
2.388059718467891723e-01 8.396776254211744117e-01
2.398465207434545554e-01 6.314597613547476840e-01
2.408870696401199385e-01 6.090078657286213115e-01
2.419276185367853216e-01 7.897359953147145006e-01
2.429681674334507047e-01 9.566237166572513217e-01
2.440087163301160877e-01 7.794435179470902142e-01
2.450492652267814708e-01 9.266535831490898545e-01
2.460898141234468539e-01 9.370526890683343879e-01
2.471303630201122370e-01 8.879365229528879411e-01
2.481709119167776201e-01 1.024723950569541131e+00
2.492114608134430032e-01 1.201609038723034928e+00
2.502520097101083585e-01 9.668349661908273163e-01
2.512925586067737416e-01 1.140788395309517256e+00
2.523331075034391247e-01 1.343120200201258996e+00
2.533736564001045077e-01 1.365968860643484106e+00
2.544142052967698908e-01 1.188776823464095855e+00
2.554547541934352739e-01 1.339228139765506143e+00
2.564953030901006570e-01 1.473881667665757789e+00
2.575358519867660401e-01 1.511727645732371172e+00
2.585764008834314231e-01 1.427093119486944062e+00
2.596169497800968062e-01 1.503447554676043296e+00
2.606574986767621893e-01 1.413035109173581105e+00
2.616980475734275724e-01 1.371178900380883192e+00
2.627385964700929555e-01 1.346654879577901198e+00
2.637791453667583386e-01 1.261821257375331129e+00
2.648196942634237216e-01 1.309860174613433514e+00
2.658602431600891047e-01 1.364878111469760569e+00
2.669007920567544878e-01 1.581760256964802380e+00
2.679413409534198709e-01 1.612934151532421367e+00
2.689818898500852540e-01 1.707024305313591839e+00
2.700224387467506371e-01 1.624959379834532314e+00
2.710629876434160201e-01 1.618655392321471709e+00
2.721035365400814032e-01 1.488193033038349711e+00
2.731440854367467863e-01 1.367096554223191873e+00
2.741846343334121694e-01 1.313967296662777784e+00
2.752251832300775525e-01 1.216687976327317955e+00
2.762657321267429356e-01 1.253129378499867386e+00
2.773062810234083186e-01 1.386502018810041648e+00
2.783468299200737017e-01 1.218760849772053234e+00
2.793873788167390848e-01 1.034699846781489185e+00
2.804279277134044679e-01 1.040904624885477858e+00
2.814684766100698510e-01 1.091280782232683322e+00
2.825090255067352341e-01 1.051907472027270529e+00
2.835495744034006171e-01 1.156893331138959979e+00
2.845901233000660002e-01 1.103568434098157525e+00
2.856306721967313833e-01 1.160750454416739075e+00
2.866712210933967664e-01 1.011663399923616424e+00
2.877117699900621495e-01 8.513800580458301681e-01
2.887523188867275326e-01 8.066974762554117717e-01
2.897928677833929156e-01 7.098364545894391142e-01
2.908334166800582987e-01 8.417656759319314119e-01
2.918739655767236818e-01 9.893218316526599665e-01
2.929145144733890649e-01 7.619141872490722278e-01
2.939550633700544480e-01 5.617157445224165713e-01
2.949956122667198311e-01 3.004506086155167566e-01
2.960361611633852141e-01 3.158915186047828172e-01
2.970767100600505972e-01 2.155418592401794342e-01
2.981172589567159803e-01 4.215577584356928753e-01
2.991578078533813634e-01 5.562295458831130190e-01
3.001983567500468020e-01 3.797447675994831684e-01
3.012389056467121851e-01 3.887308306988010997e-01
3.022794545433775681e-01 6.843283919093394729e-01
3.033200034400429512e-01 3.848783888664399910e-01
3.043605523367083343e-01 2.957783825005435574e-01
3.054011012333737174e-01 3.773685930626662355e-01
3.064416501300391005e-01 2.324134552506507134e-01
3.074821990267044836e-01 4.410806339262123288e-01
3.085227479233698666e-01 3.600475708924477658e-01
3.095632968200352497e-01 4.919727095828783092e-01
3.106038457167006328e-01 4.614293066971271173e-01
3.116443946133660159e-01 1.744670674881163563e-01
3.126849435100313990e-01 3.240046324335814631e-01
3.137254924066967821e-01 2.687160489129709617e-01
3.147660413033621651e-01 2.434076694600371127e-01
3.158065902000275482e-01 4.293496308412834139e-01
3.168471390966929313e-01 3.850520404347790304e-01
3.178876879933583144e-01 1.212720741317809825e-01
3.189282368900236975e-01 5.313771500138741999e-02
3.199687857866890806e-01 1.992463679043581237e-01
3.210093346833544636e-01 3.968249737255646892e-01
3.220498835800198467e-01 3.398633950047376118e-01
3.230904324766852298e-01 3.166377647529117212e-01
3.241309813733506129e-01 0.000000000000000000e+00
3.251715302700159960e-01 1.200866535647371336e-01
3.262120791666813790e-01 1.515475215655257557e-01
3.272526280633467621e-01 1.589354913724427831e-01
3.282931769600121452e-01 4.763223890092760371e-02
3.293337258566775283e-01 4.707061577311222322e-01
3.303742747533429114e-01 4.032603664701390755e-01
3.314148236500082945e-01 2.487699265507572477e-01
3.324553725466736775e-01 2.476646329305225436e-01
3.334959214433390606e-01 2.127712910378498634e-01
3.345364703400044437e-01 1.010504790295811972e-01
3.355770192366698268e-01 2.669854467116827834e-01
3.366175681333352099e-01 4.003991920157794482e-01
3.376581170300005930e-01 5.185555992400665559e-01
3.386986659266659760e-01 4.332291955703801989e-01
3.397392148233313591e-01 3.137045836770120388e-01
3.407797637199967422e-01 3.003944023381599493e-01
3.418203126166621253e-01 2.898743393156664183e-01
3.428608615133275084e-01 2.305670952057070622e-01
3.439014104099928915e-01 2.257155119876301796e-01
3.449419593066582745e-01 1.946905182340081808e-01
3.459825082033236576e-01 3.748217105400222238e-01
3.470230570999890407e-01 3.717234953271493225e-01
3.480636059966544238e-01 3.905867027750211662e-01
3.491041548933198069e-01 6.003862328809290716e-01
3.501447037899851900e-01 4.978351687866506836e-01
3.511852526866505730e-01 6.149458376893583988e-01
3.522258015833159561e-01 5.445883402998141776e-01
3.532663504799813392e-01 7.257726981924150778e-01
3.543068993766467223e-01 7.357852061995728832e-01
3.553474482733121054e-01 6.944003558377893626e-01
3.563879971699774885e-01 6.899618692916682505e-01
3.574285460666428715e-01 6.353920875513381361e-01
3.584690949633082546e-01 4.829822550478013454e-01
3.595096438599736377e-01 3.684949545347002697e-01
3.605501927566390208e-01 2.901453697919258445e-01
3.615907416533044039e-01 4.310171381477445607e-01
3.626312905499697870e-01 6.370275889368350875e-01
3.636718394466351700e-01 5.989349686342677614e-01
3.647123883433005531e-01 4.075960846027442130e-01
3.657529372399659362e-01 5.262114285538253000e-01
3.667934861366313193e-01 4.442562962586222852e-01
3.678340350332967024e-01 1.309246221802951027e-01
3.688745839299620854e-01 2.821822593191356532e-01
3.699151328266274685e-01 2.512449563765137839e-01
3.709556817232928516e-01 2.581822899583627873e-01
3.719962306199582347e-01 2.915518269629053805e-01
3.730367795166236178e-01 3.259813918962031210e-01
3.740773284132890009e-01 5.572470205966801871e-01
3.751178773099543839e-01 5.422866410306532714e-01
3.761584262066197670e-01 7.561810467278746728e-01
3.771989751032851501e-01 7.489878476591229628e-01
3.782395239999505332e-01 4.808536284473667877e-01
3.792800728966159163e-01 2.120495991731026209e-01
3.803206217932812994e-01 3.916121155232659135e-01
3.813611706899466824e-01 4.441794603223137017e-01
3.824017195866120655e-01 4.875297604929968998e-01
3.834422684832774486e-01 3.738816942761857831e-01
3.844828173799428317e-01 3.155559455996836959e-02
3.855233662766082148e-01 2.741178527108552032e-01
3.865639151732735979e-01 3.876673741424419006e-01
3.876044640699389809e-01 3.985861522753069153e-01
3.886450129666043640e-01 3.528870760458886480e-01
3.896855618632697471e-01 3.172356077542950459e-01
3.907261107599351302e-01 2.324168971398776762e-01
3.917666596566005133e-01 4.550895717044483035e-01
3.928072085532658964e-01 3.411377618889446239e-01
3.938477574499312794e-01 2.675095613560749541e-01
3.948883063465966625e-01 1.020071060949661046e-01
3.959288552432620456e-01 5.025410420617149043e-02
3.969694041399274287e-01 2.308702770762636192e-01
3.980099530365928118e-01 2.163670431370832148e-01
3.990505019332581949e-01 2.086153609081087268e-01
4.000910508299235779e-01 3.070445040743585707e-01
4.011315997265889610e-01 3.388095812140825558e-01
4.021721486232543441e-01 3.278789829188291094e-01
4.032126975199197272e-01 2.796206162593328770e-01
4.042532464165851103e-01 1.480350358949635847e-01
4.052937953132504934e-01 2.359799365995307596e-01
4.063343442099158764e-01 2.075958145933185506e-01
4.073748931065812595e-01 2.131173857378598768e-02
4.084154420032466426e-01 6.589847711919105677e-02
4.094559908999120257e-01 4.840384762609062363e-03
4.104965397965774088e-01 7.231772492349364256e-02
4.115370886932427918e-01 1.490635853401585109e-01
4.125776375899081749e-01 4.153100048586111370e-02
4.136181864865735580e-01 2.143236111212125650e-01
4.146587353832389411e-01 3.318774067415439788e-01
4.156992842799043242e-01 2.827049615781440650e-01
4.167398331765697073e-01 2.196416080380458880e-01
4.177803820732350903e-01 2.412027703270780421e-01
4.188209309699004734e-01 3.349324944620022393e-01
4.198614798665658565e-01 2.679570925466201459e-01
4.209020287632312396e-01 2.364016802798545314e-01
4.219425776598966227e-01 1.140343913637877904e-01
4.229831265565620058e-01 3.566494005759288655e-01
4.240236754532273888e-01 4.293630714003136006e-01
4.250642243498927719e-01 2.527107187048933667e-01
4.261047732465581550e-01 9.439107866962004323e-02
4.271453221432235381e-01 2.308288925650536783e-01
4.281858710398889212e-01 2.728396953923386548e-01
4.292264199365543043e-01 3.710865430604322057e-01
4.302669688332196873e-01 3.915371856984286580e-01
4.313075177298850704e-01 1.815951836643989736e-01
4.323480666265504535e-01 1.303483080758276458e-01
4.333886155232158366e-01 1.657682011737513506e-01
4.344291644198812197e-01 2.152849933030864804e-02
