# q (1/Angstrom), Intensity (arb)
2.029070354705860696e-02 1.369078472299576333e+03
2.133125244372399004e-02 1.362514375803717257e+03
2.237180134038937659e-02 1.354285519027779628e+03
2.341235023705475968e-02 1.345485436302501512e+03
2.445289913372014276e-02 1.334507799949658647e+03
2.549344803038552584e-02 1.324552714480899340e+03
2.653399692705091240e-02 1.310747493587224426e+03
2.757454582371629548e-02 1.293771348935227252e+03
2.861509472038167856e-02 1.277878837017455908e+03
2.965564361704706164e-02 1.263124498409207490e+03
3.069619251371244473e-02 1.245857728618485680e+03
3.173674141037782781e-02 1.226998410078973393e+03
3.277729030704321089e-02 1.213846045189276765e+03
3.381783920370859398e-02 1.194044652733170096e+03
3.485838810037397706e-02 1.172114192283603415e+03
3.589893699703936014e-02 1.153660228422942509e+03
3.693948589370474322e-02 1.135862311264520031e+03
3.798003479037012631e-02 1.116619805115420377e+03
3.902058368703550939e-02 1.093118042420698885e+03
4.006113258370089247e-02 1.073688434559406232e+03
4.110168148036627556e-02 1.049853271477981934e+03
4.214223037703165864e-02 1.028296807213966076e+03
4.318277927369704866e-02 1.009744796640132563e+03
4.422332817036243174e-02 9.901436651044195969e+02
4.526387706702781483e-02 9.627681186475294908e+02
4.630442596369319791e-02 9.418872116315285439e+02
4.734497486035858099e-02 9.209169175798175502e+02
4.838552375702396408e-02 8.978746187573166253e+02
4.942607265368934716e-02 8.739794231109505063e+02
5.046662155035473024e-02 8.497767618902347522e+02
5.150717044702011332e-02 8.290516105542359355e+02
5.254771934368549641e-02 8.062753601653903388e+02
5.358826824035087949e-02 7.856625682368567141e+02
5.462881713701626257e-02 7.635951491340358643e+02
5.566936603368164566e-02 7.382216927560901922e+02
5.670991493034702874e-02 7.162176756139363079e+02
5.775046382701241182e-02 6.944733670032910595e+02
5.879101272367779490e-02 6.724135119238004563e+02
5.983156162034317799e-02 6.518060314910695752e+02
6.087211051700856107e-02 6.294878128378397832e+02
6.191265941367394415e-02 6.106255408570993950e+02
6.295320831033933417e-02 5.909411898371486132e+02
6.399375720700471726e-02 5.698021837405134420e+02
6.503430610367010034e-02 5.483350531288463117e+02
6.607485500033548342e-02 5.274806167964543420e+02
6.711540389700086651e-02 5.086588509652525545e+02
6.815595279366624959e-02 4.873911249313029543e+02
6.919650169033163267e-02 4.691276795963400446e+02
7.023705058699701576e-02 4.510417994629581244e+02
7.127759948366239884e-02 4.333128716926980815e+02
7.231814838032778192e-02 4.156058652774401025e+02
7.335869727699316500e-02 3.964086295120178534e+02
7.439924617365854809e-02 3.796230287520879187e+02
7.543979507032393117e-02 3.627062600814348343e+02
7.648034396698931425e-02 3.480039166741742633e+02
7.752089286365469734e-02 3.298216600828870355e+02
7.856144176032008042e-02 3.139778985833093543e+02
7.960199065698546350e-02 3.007743347552159321e+02
8.064253955365084658e-02 2.856173348468397535e+02
8.168308845031622967e-02 2.711867828134650722e+02
8.272363734698161275e-02 2.577767381421153345e+02
8.376418624364699583e-02 2.451180575322964046e+02
8.480473514031239279e-02 2.316632375217782567e+02
8.584528403697777588e-02 2.179224748511025496e+02
8.688583293364315896e-02 2.051260453656940399e+02
8.792638183030854204e-02 1.937241780405627765e+02
8.896693072697392513e-02 1.821258887287300183e+02
9.000747962363930821e-02 1.718318490398976337e+02
9.104802852030469129e-02 1.613704882737890500e+02
9.208857741697007437e-02 1.506713606530112770e+02
9.312912631363545746e-02 1.410512104990438900e+02
9.416967521030084054e-02 1.314100433725824644e+02
9.521022410696622362e-02 1.231323300373925065e+02
9.625077300363160671e-02 1.152679864560026317e+02
9.729132190029698979e-02 1.056849824637439212e+02
9.833187079696237287e-02 9.656452790691146504e+01
9.937241969362775595e-02 9.016561467322708268e+01
1.004129685902931390e-01 8.376647897490570926e+01
1.014535174869585221e-01 7.790372533419275669e+01
1.024940663836239052e-01 7.167111558290872608e+01
1.035346152802892883e-01 6.498427427138958024e+01
1.045751641769546714e-01 5.949976750834835570e+01
1.056157130736200545e-01 5.452380014338609016e+01
1.066562619702854375e-01 4.999799694835892439e+01
1.076968108669508206e-01 4.472744504303468460e+01
1.087373597636162037e-01 4.022446178685159168e+01
1.097779086602815868e-01 3.636489906772509784e+01
1.108184575569469699e-01 3.205816619423490010e+01
1.118590064536123529e-01 2.869324188991274127e+01
1.128995553502777360e-01 2.590498822496044795e+01
1.139401042469431191e-01 2.319450137067583029e+01
1.149806531436085022e-01 1.994027878166965451e+01
1.160212020402738853e-01 1.776790518167777577e+01
1.170617509369392684e-01 1.554765532460609023e+01
1.181022998336046514e-01 1.370432497197494826e+01
1.191428487302700345e-01 1.204853022192705936e+01
1.201833976269354176e-01 1.015567627404988116e+01
1.212239465236008007e-01 8.310005637805488732e+00
1.222644954202661838e-01 6.878811926214240202e+00
1.233050443169315669e-01 6.351029699980962562e+00
1.243455932135969499e-01 5.573514904281857696e+00
1.253861421102623330e-01 4.696082002924129029e+00
1.264266910069277161e-01 3.921464675443274928e+00
1.274672399035930992e-01 3.250454910028210520e+00
1.285077888002584823e-01 2.547431856526870320e+00
1.295483376969238654e-01 2.067914047031059965e+00
1.305888865935892484e-01 1.974888910988852331e+00
1.316294354902546315e-01 1.860125212424527774e+00
1.326699843869200146e-01 1.681488017856175077e+00
1.337105332835853977e-01 1.899296529761635099e+00
1.347510821802507808e-01 2.235123465140091525e+00
1.357916310769161639e-01 2.399931324509985586e+00
1.368321799735815469e-01 2.231594107758851919e+00
1.378727288702469300e-01 2.660480717868608735e+00
1.389132777669123131e-01 2.966819925267955682e+00
1.399538266635776962e-01 3.172904186279865257e+00
1.409943755602430793e-01 3.318580630544012422e+00
1.420349244569084624e-01 3.513949651652609418e+00
1.430754733535738454e-01 3.819717242495649145e+00
1.441160222502392285e-01 3.884487349366850140e+00
1.451565711469046116e-01 4.811006789063632993e+00
1.461971200435699947e-01 5.014398184118853408e+00
1.472376689402353778e-01 5.285433378386983350e+00
1.482782178369007609e-01 6.286477232602194931e+00
1.493187667335661439e-01 6.885300876146963844e+00
1.503593156302315270e-01 6.914897441770584408e+00
1.513998645268969101e-01 7.550894166286276743e+00
1.524404134235622932e-01 7.674576105163431805e+00
1.534809623202276763e-01 7.632024968903969864e+00
1.545215112168930593e-01 8.080516845013796967e+00
1.555620601135584424e-01 8.732381973160777022e+00
1.566026090102238255e-01 9.385348010008328856e+00
1.576431579068892086e-01 9.516513803995444221e+00
1.586837068035545917e-01 9.326781684003584871e+00
1.597242557002199748e-01 9.754760974575006571e+00
1.607648045968853578e-01 1.006545640575508571e+01
1.618053534935507409e-01 1.043030356856094443e+01
1.628459023902161240e-01 1.016535826552325261e+01
1.638864512868815071e-01 1.028663737691773150e+01
1.649270001835468902e-01 1.069663819349474920e+01
1.659675490802122733e-01 1.056960749041941483e+01
1.670080979768776563e-01 1.062200905802809814e+01
1.680486468735430672e-01 1.050399147809692124e+01
1.690891957702084503e-01 1.017664047645437364e+01
1.701297446668738333e-01 1.021210603338154499e+01
1.711702935635392164e-01 9.898888453667609610e+00
1.722108424602045995e-01 9.510151913270902924e+00
1.732513913568699826e-01 9.754153260894355526e+00
1.742919402535353657e-01 1.010688300893448144e+01
1.753324891502007488e-01 1.013815218956946751e+01
1.763730380468661318e-01 9.946423491472209832e+00
1.774135869435315149e-01 1.006628450687628629e+01
1.784541358401968980e-01 9.699251526449920391e+00
1.794946847368622811e-01 9.458953338101757424e+00
1.805352336335276642e-01 9.761628401435693547e+00
1.815757825301930473e-01 9.242929676002766826e+00
1.826163314268584303e-01 8.811125440591801805e+00
1.836568803235238134e-01 8.249672143082257492e+00
1.846974292201891965e-01 7.781337505065252458e+00
1.857379781168545796e-01 7.573942567954247806e+00
1.867785270135199627e-01 7.262187535512403258e+00
1.878190759101853458e-01 6.993439866532312976e+00
1.888596248068507288e-01 6.760601459075736841e+00
1.899001737035161119e-01 6.632655783076010891e+00
1.909407226001814950e-01 6.466051010414581413e+00
1.919812714968468781e-01 6.293769475567650318e+00
1.930218203935122612e-01 6.089691957212561846e+00
1.940623692901776443e-01 5.839073005746104883e+00
1.951029181868430273e-01 5.545627743462485881e+00
1.961434670835084104e-01 5.285915996055670973e+00
1.971840159801737935e-01 4.776459893225762698e+00
1.982245648768391766e-01 4.464225301919164224e+00
1.992651137735045597e-01 3.985962854553854129e+00
2.003056626701699428e-01 3.686496955367545070e+00
2.013462115668353813e-01 3.651147007371463360e+00
2.023867604635007644e-01 3.196580479373299255e+00
2.034273093601661475e-01 3.077738563578556352e+00
2.044678582568315306e-01 2.919713421058165892e+00
2.055084071534969137e-01 2.534084947965506984e+00
2.065489560501622968e-01 2.470070009959851376e+00
2.075895049468276798e-01 2.534133182557795294e+00
2.086300538434930629e-01 2.610842693640584855e+00
2.096706027401584460e-01 1.889456780013546222e+00
2.107111516368238291e-01 1.642306883077843338e+00
2.117517005334892122e-01 1.953587507431794990e+00
2.127922494301545953e-01 1.780720742058850448e+00
2.138327983268199783e-01 1.266914000471437873e+00
2.148733472234853614e-01 1.358052169054104752e+00
2.159138961201507445e-01 1.140793106375873833e+00
2.169544450168161276e-01 8.571367135057954556e-01
2.179949939134815107e-01 7.378386815388040532e-01
2.190355428101468938e-01 8.193013867474974177e-01
2.200760917068122768e-01 7.926197370615284399e-01
2.211166406034776599e-01 5.764458168211312739e-01
2.221571895001430430e-01 4.215426634603858247e-01
2.231977383968084261e-01 4.042114799512290801e-01
2.242382872934738092e-01 4.232985155394111132e-01
2.252788361901391923e-01 4.544473714589614133e-01
2.263193850868045753e-01 4.930459771336401786e-01
2.273599339834699584e-01 7.346870856184892773e-01
2.284004828801353415e-01 6.763248221858262355e-01
2.294410317768007246e-01 4.374558406215314221e-01
2.304815806734661077e-01 5.677711909522429323e-01
2.315221295701314908e-01 2.443302195098020491e-01
2.325626784667968738e-01 2.699126605427544234e-01
2.336032273634622569e-01 4.772326462689058246e-01
2.346437762601276400e-01 7.220502944159541414e-01
2.356843251567930231e-01 9.271806309164176696e-01
2.367248740534584062e-01 8.928322993449562262e-01
2.377654229501237892e-01 6.354895161823286287e-01
2.388059718467891723e-01 7.087613344817995653e-01
2.398465207434545554e-01 5.393811678542412835e-01
2.408870696401199385e-01 7.924428527380982246e-01
2.419276185367853216e-01 9.876869023434196038e-01
2.429681674334507047e-01 1.136676296092254290e+00
2.440087163301160877e-01 7.381362778674080971e-01
2.450492652267814708e-01 6.992178481013056057e-01
2.460898141234468539e-01 7.728593643642085453e-01
2.471303630201122370e-01 1.337558235993242306e+00
2.481709119167776201e-01 1.111882504808296090e+00
2.492114608134430032e-01 1.021719034925379077e+00
2.502520097101083585e-01 1.098609524833648265e+00
2.512925586067737416e-01 1.252845809151356349e+00
2.523331075034391247e-01 1.239803827634347044e+00
2.533736564001045077e-01 1.350700930795493804e+00
2.544142052967698908e-01 1.433276394403524279e+00
2.554547541934352739e-01 1.354294385587422767e+00
2.564953030901006570e-01 1.479054697155412157e+00
2.575358519867660401e-01 1.558816546630840350e+00
2.585764008834314231e-01 1.713039332777626100e+00
2.596169497800968062e-01 1.917659794343332891e+00
2.606574986767621893e-01 2.007747339131935149e+00
2.616980475734275724e-01 1.616371768844818035e+00
2.627385964700929555e-01 1.509842990644489902e+00
2.637791453667583386e-01 1.813996800394757969e+00
2.648196942634237216e-01 1.708894041378830053e+00
2.658602431600891047e-01 1.517887887148489767e+00
2.669007920567544878e-01 1.491153793728248189e+00
2.679413409534198709e-01 1.362222196429996757e+00
2.689818898500852540e-01 1.400961659414026172e+00
2.700224387467506371e-01 1.591716399597089548e+00
2.710629876434160201e-01 1.455544583139129600e+00
2.721035365400814032e-01 1.446361634341535307e+00
2.731440854367467863e-01 1.687319903161878187e+00
2.741846343334121694e-01 1.652680032369826080e+00
2.752251832300775525e-01 1.443292217853567649e+00
2.762657321267429356e-01 1.503844258420745206e+00
2.773062810234083186e-01 1.509126973581281561e+00
2.783468299200737017e-01 1.408069775580809591e+00
2.793873788167390848e-01 1.616124360230831059e+00
2.804279277134044679e-01 1.529662690560314786e+00
2.814684766100698510e-01 1.160166688206604846e+00
2.825090255067352341e-01 1.183227045218089302e+00
2.835495744034006171e-01 1.336022743459327700e+00
2.845901233000660002e-01 1.765428147798804304e+00
2.856306721967313833e-01 2.093457123565695355e+00
2.866712210933967664e-01 1.432047066206688868e+00
2.877117699900621495e-01 1.090082331334514265e+00
2.887523188867275326e-01 1.285839748525329895e+00
2.897928677833929156e-01 1.205512017617685672e+00
2.908334166800582987e-01 1.096687677241000358e+00
2.918739655767236818e-01 6.448827259899019282e-01
2.929145144733890649e-01 5.268323943749315674e-01
2.939550633700544480e-01 8.786263912775815754e-01
2.949956122667198311e-01 8.119817549120860178e-01
2.960361611633852141e-01 6.504056452782265296e-01
2.970767100600505972e-01 5.707383084116983696e-01
2.981172589567159803e-01 7.172993847343285267e-01
2.991578078533813634e-01 6.305702961847181598e-01
3.001983567500468020e-01 6.687123498968112756e-01
3.012389056467121851e-01 5.374069928997293744e-01
3.022794545433775681e-01 3.177087378593164146e-01
3.033200034400429512e-01 5.371193430268270674e-01
3.043605523367083343e-01 5.189469227303291632e-01
3.054011012333737174e-01 5.568468163038247098e-01
3.064416501300391005e-01 4.283553508775987950e-01
3.074821990267044836e-01 5.546640640526163679e-01
3.085227479233698666e-01 6.302154107638457958e-01
3.095632968200352497e-01 6.031519742438646858e-01
3.106038457167006328e-01 4.483061094265039515e-01
3.116443946133660159e-01 5.295013660276879364e-01
3.126849435100313990e-01 4.836437926354157923e-01
3.137254924066967821e-01 4.185057875996562871e-01
3.147660413033621651e-01 4.904685402052066934e-01
3.158065902000275482e-01 3.379386209402355234e-01
3.168471390966929313e-01 3.767239663824106799e-01
3.178876879933583144e-01 4.269897124414399059e-01
3.189282368900236975e-01 5.343859875211940391e-01
3.199687857866890806e-01 3.379278582936429132e-01
3.210093346833544636e-01 3.224357226080982741e-01
3.220498835800198467e-01 4.009019317678124139e-01
3.230904324766852298e-01 1.606291628562033225e-01
3.241309813733506129e-01 8.445581073134178496e-02
3.251715302700159960e-01 1.655242973168213894e-03
3.262120791666813790e-01 0.000000000000000000e+00
3.272526280633467621e-01 1.292580875265301188e-01
3.282931769600121452e-01 2.754892017594343656e-01
3.293337258566775283e-01 3.825732998210931157e-01
3.303742747533429114e-01 5.660217789011277034e-01
3.314148236500082945e-01 4.825248171650216022e-01
3.324553725466736775e-01 3.967143779572381845e-01
3.334959214433390606e-01 1.762135677921108368e-01
3.345364703400044437e-01 4.815909534698796790e-01
3.355770192366698268e-01 6.002054840587476292e-01
3.366175681333352099e-01 6.259174916348939632e-01
3.376581170300005930e-01 6.233852982006631294e-01
3.386986659266659760e-01 5.341908462408078151e-01
3.397392148233313591e-01 5.583451944759190155e-01
3.407797637199967422e-01 4.119430447110765670e-01
3.418203126166621253e-01 4.239823246359364362e-01
3.428608615133275084e-01 6.359678168251754471e-01
3.439014104099928915e-01 6.010114431912718658e-01
3.449419593066582745e-01 7.072710499170078435e-01
3.459825082033236576e-01 7.146378088038574106e-01
3.470230570999890407e-01 3.488052465645630207e-01
3.480636059966544238e-01 4.458468386813194684e-01
3.491041548933198069e-01 6.119513831547997995e-01
3.501447037899851900e-01 7.954812996739519804e-01
3.511852526866505730e-01 4.464840959707458978e-01
3.522258015833159561e-01 4.159228884539665216e-01
3.532663504799813392e-01 6.387428470184133289e-01
3.543068993766467223e-01 7.062905952994960046e-01
3.553474482733121054e-01 6.118331641208207827e-01
3.563879971699774885e-01 6.015455388172092910e-01
3.574285460666428715e-01 4.187332607852845001e-01
3.584690949633082546e-01 6.511432321402139678e-01
3.595096438599736377e-01 6.144839163973365714e-01
3.605501927566390208e-01 3.674916574635140876e-01
3.615907416533044039e-01 6.164252252545061594e-01
3.626312905499697870e-01 5.283846752389038670e-01
3.636718394466351700e-01 5.717918682278018139e-01
3.647123883433005531e-01 6.318826813447238067e-01
3.657529372399659362e-01 5.847023476954724686e-01
3.667934861366313193e-01 6.109852280374141742e-01
3.678340350332967024e-01 5.674263979917775202e-01
3.688745839299620854e-01 4.249513390990777850e-01
3.699151328266274685e-01 6.828238906363957028e-01
3.709556817232928516e-01 9.382590294216726079e-01
3.719962306199582347e-01 7.024211454539539545e-01
3.730367795166236178e-01 3.808591900547355635e-01
3.740773284132890009e-01 4.511676001445259487e-01
3.751178773099543839e-01 6.179544236625318376e-01
3.761584262066197670e-01 4.956414847029826376e-01
3.771989751032851501e-01 6.388278324216400961e-01
3.782395239999505332e-01 5.860761611454279318e-01
3.792800728966159163e-01 6.330973347481148039e-01
3.803206217932812994e-01 7.110161679781157318e-01
3.813611706899466824e-01 6.264049690908599644e-01
3.824017195866120655e-01 5.491845886866606463e-01
3.834422684832774486e-01 4.988716071841707844e-01
3.844828173799428317e-01 6.123915946680043021e-01
3.855233662766082148e-01 6.407932285462649702e-01
3.865639151732735979e-01 7.526583426810091737e-01
3.876044640699389809e-01 5.876802120161208620e-01
3.886450129666043640e-01 3.231543478764180577e-01
3.896855618632697471e-01 1.686001658370415157e-01
3.907261107599351302e-01 3.800205565960439458e-01
3.917666596566005133e-01 4.329500789561926410e-01
3.928072085532658964e-01 2.600577895997062683e-01
3.938477574499312794e-01 4.880781264298192923e-01
3.948883063465966625e-01 5.897125507409270995e-01
3.959288552432620456e-01 5.862492948180708652e-01
3.969694041399274287e-01 5.596269754720424316e-01
3.980099530365928118e-01 6.239321835849658271e-01
3.990505019332581949e-01 3.619606843185252387e-01
4.000910508299235779e-01 2.541360348549517312e-01
4.011315997265889610e-01 3.068777944797922430e-01
4.021721486232543441e-01 3.052775081293361836e-01
4.032126975199197272e-01 3.759242408124201518e-01
4.042532464165851103e-01 5.680079500096866241e-01
4.052937953132504934e-01 4.364775364108872679e-01
4.063343442099158764e-01 2.701553351541328141e-01
4.073748931065812595e-01 5.156983040446156963e-01
4.084154420032466426e-01 6.591829115667664496e-01
4.094559908999120257e-01 5.558218339528586682e-01
4.104965397965774088e-01 2.360187500379105074e-01
4.115370886932427918e-01 3.319955910034089186e-01
4.125776375899081749e-01 4.627329701979299159e-01
4.136181864865735580e-01 3.341651858084873083e-01
4.146587353832389411e-01 1.917805428915784205e-01
4.156992842799043242e-01 3.390346212652524116e-01
4.167398331765697073e-01 3.656819525988090902e-01
4.177803820732350903e-01 2.772232357656285728e-01
4.188209309699004734e-01 2.676686727459625104e-01
4.198614798665658565e-01 3.617990382547553452e-01
4.209020287632312396e-01 2.755802540367362496e-01
4.219425776598966227e-01 5.175404307706905627e-01
4.229831265565620058e-01 6.744562139582832572e-01
4.240236754532273888e-01 4.638098746313303877e-01
4.250642243498927719e-01 2.647514480522161762e-01
4.261047732465581550e-01 2.469007025356972918e-01
4.271453221432235381e-01 3.893167646714026375e-01
4.281858710398889212e-01 2.994748250945882262e-01
4.292264199365543043e-01 3.919210917323923127e-01
4.302669688332196873e-01 4.761402805282450856e-01
4.313075177298850704e-01 4.588075521122902956e-01
4.323480666265504535e-01 4.567151870071022302e-01
4.333886155232158366e-01 5.640464717282043239e-01
4.344291644198812197e-01 4.598833985070918118e-01
