# q (1/Angstrom), Intensity (arb)
2.029070354705860696e-02 1.264623039400060406e+03
2.133125244372399004e-02 1.262308605223009181e+03
2.237180134038937659e-02 1.255923401876673324e+03
2.341235023705475968e-02 1.251696296966463933e+03
2.445289913372014276e-02 1.242099361562956346e+03
2.549344803038552584e-02 1.235762575384591628e+03
2.653399692705091240e-02 1.224321300923548506e+03
2.757454582371629548e-02 1.208606743730370226e+03
2.861509472038167856e-02 1.189410065046947921e+03
2.965564361704706164e-02 1.175180322570114186e+03
3.069619251371244473e-02 1.167190953910974713e+03
3.173674141037782781e-02 1.153706502889298690e+03
3.277729030704321089e-02 1.134692084602430214e+03
3.381783920370859398e-02 1.117757335955091094e+03
3.485838810037397706e-02 1.101084281416228578e+03
3.589893699703936014e-02 1.080459784263509391e+03
3.693948589370474322e-02 1.060862063728952080e+03
3.798003479037012631e-02 1.037623243679590132e+03
3.902058368703550939e-02 1.025206263652358302e+03
4.006113258370089247e-02 1.003542514013897517e+03
4.110168148036627556e-02 9.791138928405042634e+02
4.214223037703165864e-02 9.596267286889144543e+02
4.318277927369704866e-02 9.418104823777201773e+02
4.422332817036243174e-02 9.241986500480334144e+02
4.526387706702781483e-02 9.021187380525716435e+02
4.630442596369319791e-02 8.785176302390375440e+02
4.734497486035858099e-02 8.549089830584732681e+02
4.838552375702396408e-02 8.338318869938836997e+02
4.942607265368934716e-02 8.140675112859654519e+02
5.046662155035473024e-02 7.926308963792674831e+02
5.150717044702011332e-02 7.732719611818962449e+02
5.254771934368549641e-02 7.527792437281584625e+02
5.358826824035087949e-02 7.307357339218775678e+02
5.462881713701626257e-02 7.094353829093131480e+02
5.566936603368164566e-02 6.920087394371303162e+02
5.670991493034702874e-02 6.719029975304230220e+02
5.775046382701241182e-02 6.518166041003186137e+02
5.879101272367779490e-02 6.311683269980650266e+02
5.983156162034317799e-02 6.088720270370655498e+02
6.087211051700856107e-02 5.889998751646971868e+02
6.191265941367394415e-02 5.703074283926941916e+02
6.295320831033933417e-02 5.505568628356098770e+02
6.399375720700471726e-02 5.308010228466010858e+02
6.503430610367010034e-02 5.105082729673615063e+02
6.607485500033548342e-02 4.928278699175364181e+02
6.711540389700086651e-02 4.740958121483826631e+02
6.815595279366624959e-02 4.543951407248109149e+02
6.919650169033163267e-02 4.372420289380201552e+02
7.023705058699701576e-02 4.208712860787015870e+02
7.127759948366239884e-02 4.043771823078827765e+02
7.231814838032778192e-02 3.884400023188853197e+02
7.335869727699316500e-02 3.713890782460843525e+02
7.439924617365854809e-02 3.561634121033042675e+02
7.543979507032393117e-02 3.399079928541781328e+02
7.648034396698931425e-02 3.232545444726592336e+02
7.752089286365469734e-02 3.082933340724092659e+02
7.856144176032008042e-02 2.926100003819941548e+02
7.960199065698546350e-02 2.786539147521700670e+02
8.064253955365084658e-02 2.654789161530084129e+02
8.168308845031622967e-02 2.521651334731313341e+02
8.272363734698161275e-02 2.401396426377316118e+02
8.376418624364699583e-02 2.270866153628238919e+02
8.480473514031239279e-02 2.131200311793835738e+02
8.584528403697777588e-02 2.021426661232583797e+02
8.688583293364315896e-02 1.909347026585534479e+02
8.792638183030854204e-02 1.803274457152834600e+02
8.896693072697392513e-02 1.692257684384811114e+02
9.000747962363930821e-02 1.591855928093665966e+02
9.104802852030469129e-02 1.499245483723218229e+02
9.208857741697007437e-02 1.403015410672303744e+02
9.312912631363545746e-02 1.304822067082636465e+02
9.416967521030084054e-02 1.216119917489643569e+02
9.521022410696622362e-02 1.148255255476259151e+02
9.625077300363160671e-02 1.056605534237648669e+02
9.729132190029698979e-02 9.774744366682025998e+01
9.833187079696237287e-02 9.168860054498547640e+01
9.937241969362775595e-02 8.484152682045549909e+01
1.004129685902931390e-01 7.731109334288933610e+01
1.014535174869585221e-01 7.131783698046046993e+01
1.024940663836239052e-01 6.561900705790228017e+01
1.035346152802892883e-01 5.981972928201032857e+01
1.045751641769546714e-01 5.496820045193770454e+01
1.056157130736200545e-01 5.058987947626968662e+01
1.066562619702854375e-01 4.607139182830169233e+01
1.076968108669508206e-01 4.216727256496731968e+01
1.087373597636162037e-01 3.775168419471346937e+01
1.097779086602815868e-01 3.430838548312694058e+01
1.108184575569469699e-01 3.120231733723306888e+01
1.118590064536123529e-01 2.812363532467770710e+01
1.128995553502777360e-01 2.432758884150825196e+01
1.139401042469431191e-01 2.101772175743681714e+01
1.149806531436085022e-01 1.865218835474340864e+01
1.160212020402738853e-01 1.661504205372743570e+01
1.170617509369392684e-01 1.467003291982488378e+01
1.181022998336046514e-01 1.254738095911373108e+01
1.191428487302700345e-01 1.049148092335991578e+01
1.201833976269354176e-01 9.368455320280823173e+00
1.212239465236008007e-01 8.498230971301140357e+00
1.222644954202661838e-01 7.310961645855336144e+00
1.233050443169315669e-01 6.057847955877122104e+00
1.243455932135969499e-01 5.073268600099680725e+00
1.253861421102623330e-01 3.957513667649308786e+00
1.264266910069277161e-01 3.339917905694889555e+00
1.274672399035930992e-01 3.240209888927211068e+00
1.285077888002584823e-01 2.475346317892928028e+00
1.295483376969238654e-01 1.765977401233698174e+00
1.305888865935892484e-01 1.565422819337868532e+00
1.316294354902546315e-01 1.731298821116283193e+00
1.326699843869200146e-01 1.516814856164984349e+00
1.337105332835853977e-01 1.424284149549478684e+00
1.347510821802507808e-01 1.903055265819247666e+00
1.357916310769161639e-01 2.049500753033008493e+00
1.368321799735815469e-01 2.268225636235150944e+00
1.378727288702469300e-01 2.096367611911325923e+00
1.389132777669123131e-01 2.296013272917200254e+00
1.399538266635776962e-01 2.779700767860703081e+00
1.409943755602430793e-01 3.538580716628260348e+00
1.420349244569084624e-01 3.500674863961450001e+00
1.430754733535738454e-01 3.428735245767377648e+00
1.441160222502392285e-01 3.690478062540954340e+00
1.451565711469046116e-01 4.497916229926097742e+00
1.461971200435699947e-01 5.099485946233819789e+00
1.472376689402353778e-01 5.149098834213432951e+00
1.482782178369007609e-01 5.509687258974658164e+00
1.493187667335661439e-01 5.868055235636809641e+00
1.503593156302315270e-01 6.169573976135410476e+00
1.513998645268969101e-01 6.542557043129804129e+00
1.524404134235622932e-01 6.877736455099160651e+00
1.534809623202276763e-01 7.374027039354523083e+00
1.545215112168930593e-01 8.035603366803179881e+00
1.555620601135584424e-01 8.168629313870503950e+00
1.566026090102238255e-01 8.428240824436514345e+00
1.576431579068892086e-01 8.354903905315978818e+00
1.586837068035545917e-01 8.404890466950810435e+00
1.597242557002199748e-01 8.835525431929198703e+00
1.607648045968853578e-01 9.162056128916042042e+00
1.618053534935507409e-01 9.056649448526016499e+00
1.628459023902161240e-01 8.972903623225015224e+00
1.638864512868815071e-01 9.411273267992740443e+00
1.649270001835468902e-01 9.450960886367745672e+00
1.659675490802122733e-01 9.651391875672672427e+00
1.670080979768776563e-01 9.627886259683180015e+00
1.680486468735430672e-01 1.009758534206000036e+01
1.690891957702084503e-01 1.019681427026479525e+01
1.701297446668738333e-01 9.783456691427062424e+00
1.711702935635392164e-01 9.489339087747580948e+00
1.722108424602045995e-01 9.582538072989059685e+00
1.732513913568699826e-01 9.881564598180816006e+00
1.742919402535353657e-01 9.271132646324836912e+00
1.753324891502007488e-01 8.949094784727684271e+00
1.763730380468661318e-01 9.119231389096178475e+00
1.774135869435315149e-01 9.021944563736802536e+00
1.784541358401968980e-01 9.293401811472918439e+00
1.794946847368622811e-01 8.910091847262712861e+00
1.805352336335276642e-01 8.348044353371612658e+00
1.815757825301930473e-01 7.944906179022929393e+00
1.826163314268584303e-01 7.781575984528629419e+00
1.836568803235238134e-01 7.524471270790300537e+00
1.846974292201891965e-01 7.189313144111537213e+00
1.857379781168545796e-01 7.260615328084341513e+00
1.867785270135199627e-01 7.011081234810141893e+00
1.878190759101853458e-01 6.918188252414346096e+00
1.888596248068507288e-01 6.458664037919533030e+00
1.899001737035161119e-01 6.064268703543490346e+00
1.909407226001814950e-01 6.132649069482376092e+00
1.919812714968468781e-01 5.697490122157809367e+00
1.930218203935122612e-01 5.357304031043071291e+00
1.940623692901776443e-01 5.222642959832768383e+00
1.951029181868430273e-01 5.116544466557904514e+00
1.961434670835084104e-01 4.855765902366641740e+00
1.971840159801737935e-01 4.392441823348633534e+00
1.982245648768391766e-01 3.586665680032453452e+00
1.992651137735045597e-01 3.387382645776391143e+00
2.003056626701699428e-01 3.417713907806884777e+00
2.013462115668353813e-01 3.165139734823100071e+00
2.023867604635007644e-01 3.285700096557008010e+00
2.034273093601661475e-01 3.340816656608907920e+00
2.044678582568315306e-01 2.907662030946845277e+00
2.055084071534969137e-01 2.377017930398586998e+00
2.065489560501622968e-01 2.195844964408188105e+00
2.075895049468276798e-01 1.804432911333044842e+00
2.086300538434930629e-01 1.772225361884466110e+00
2.096706027401584460e-01 1.844083717007691803e+00
2.107111516368238291e-01 1.608202432382107361e+00
2.117517005334892122e-01 1.665008416138952896e+00
2.127922494301545953e-01 1.279283641771044699e+00
2.138327983268199783e-01 1.268492006970525665e+00
2.148733472234853614e-01 1.123657647537839921e+00
2.159138961201507445e-01 9.250052070806020765e-01
2.169544450168161276e-01 1.100834298547528789e+00
2.179949939134815107e-01 9.154080214743558486e-01
2.190355428101468938e-01 6.479625342513486430e-01
2.200760917068122768e-01 5.655364292004279037e-01
2.211166406034776599e-01 5.085179034208593407e-01
2.221571895001430430e-01 4.282925129580164025e-01
2.231977383968084261e-01 4.364197160194578373e-01
2.242382872934738092e-01 5.506616311199259428e-01
2.252788361901391923e-01 6.090360496938522772e-01
2.263193850868045753e-01 6.332632853099298131e-01
2.273599339834699584e-01 8.090928521271223417e-01
2.284004828801353415e-01 7.430256594381567936e-01
2.294410317768007246e-01 5.142410022372487788e-01
2.304815806734661077e-01 4.846686424550981087e-01
2.315221295701314908e-01 5.597533828308556281e-01
2.325626784667968738e-01 3.192951414928693055e-01
2.336032273634622569e-01 4.148886149413257840e-01
2.346437762601276400e-01 6.197388893074275984e-01
2.356843251567930231e-01 6.496502905095837832e-01
2.367248740534584062e-01 6.120312053275220876e-01
2.377654229501237892e-01 6.567544562144931319e-01
2.388059718467891723e-01 8.516352919929168763e-01
2.398465207434545554e-01 8.823324884606265073e-01
2.408870696401199385e-01 8.257707030492582589e-01
2.419276185367853216e-01 6.915974849357624521e-01
2.429681674334507047e-01 8.859613410799873634e-01
2.440087163301160877e-01 7.802624248881748770e-01
2.450492652267814708e-01 9.286607609221242399e-01
2.460898141234468539e-01 9.300313994540267970e-01
2.471303630201122370e-01 9.629477439388338667e-01
2.481709119167776201e-01 1.227712781831918676e+00
2.492114608134430032e-01 1.360892283621897292e+00
2.502520097101083585e-01 1.369750997453309083e+00
2.512925586067737416e-01 1.332688643505335335e+00
2.523331075034391247e-01 1.360288280227269553e+00
2.533736564001045077e-01 1.315323391332196223e+00
2.544142052967698908e-01 1.321233325477507492e+00
2.554547541934352739e-01 1.599086810679015258e+00
2.564953030901006570e-01 1.613985451498734847e+00
2.575358519867660401e-01 1.171212568295239009e+00
2.585764008834314231e-01 1.154923811404579226e+00
2.596169497800968062e-01 1.630057082872088614e+00
2.606574986767621893e-01 1.484213763803069241e+00
2.616980475734275724e-01 1.372570317122217887e+00
2.627385964700929555e-01 1.548660181489299958e+00
2.637791453667583386e-01 1.494216813141427735e+00
2.648196942634237216e-01 1.540132487525344374e+00
2.658602431600891047e-01 1.477354646585887110e+00
2.669007920567544878e-01 1.417614532276083139e+00
2.679413409534198709e-01 1.541221161643385074e+00
2.689818898500852540e-01 1.565610902109416003e+00
2.700224387467506371e-01 1.734328739488464777e+00
2.710629876434160201e-01 1.790926112411622029e+00
2.721035365400814032e-01 1.740356631621917671e+00
2.731440854367467863e-01 1.622407348001431160e+00
2.741846343334121694e-01 1.292593196739201034e+00
2.752251832300775525e-01 1.425869672868923743e+00
2.762657321267429356e-01 1.498692373536080424e+00
2.773062810234083186e-01 1.634427129987347627e+00
2.783468299200737017e-01 1.512239754081640797e+00
2.793873788167390848e-01 1.190778074400235198e+00
2.804279277134044679e-01 1.289283499023412105e+00
2.814684766100698510e-01 1.221348135390925904e+00
2.825090255067352341e-01 1.083657338570500173e+00
2.835495744034006171e-01 1.065437126432787096e+00
2.845901233000660002e-01 1.051850949441455185e+00
2.856306721967313833e-01 1.017005547979049851e+00
2.866712210933967664e-01 8.821393881232317824e-01
2.877117699900621495e-01 7.913950465356016650e-01
2.887523188867275326e-01 8.497203234993868648e-01
2.897928677833929156e-01 8.475128755460552554e-01
2.908334166800582987e-01 7.586999397369140752e-01
2.918739655767236818e-01 8.810170198879347936e-01
2.929145144733890649e-01 1.120582570504723208e+00
2.939550633700544480e-01 8.424761852292235176e-01
2.949956122667198311e-01 5.474525363107431986e-01
2.960361611633852141e-01 5.007422047923810737e-01
2.970767100600505972e-01 4.453561668788950101e-01
2.981172589567159803e-01 5.322809057903441499e-01
2.991578078533813634e-01 6.761093388662935411e-01
3.001983567500468020e-01 4.793367067711749030e-01
3.012389056467121851e-01 4.865850977224006613e-01
3.022794545433775681e-01 6.894316201141030831e-01
3.033200034400429512e-01 5.012003804530955620e-01
3.043605523367083343e-01 5.418191481456062775e-01
3.054011012333737174e-01 5.420840395860899719e-01
3.064416501300391005e-01 4.359745940969901312e-01
3.074821990267044836e-01 3.553994593082485665e-01
3.085227479233698666e-01 5.180246830680204084e-01
3.095632968200352497e-01 4.460542782981100629e-01
3.106038457167006328e-01 4.523601977655857809e-01
3.116443946133660159e-01 1.749204230283964989e-01
3.126849435100313990e-01 2.042838839023559672e-01
3.137254924066967821e-01 2.883598996218132982e-01
3.147660413033621651e-01 2.960251216704747890e-01
3.158065902000275482e-01 5.203555076224226639e-01
3.168471390966929313e-01 4.150445197988474888e-01
3.178876879933583144e-01 1.868294081157593212e-01
3.189282368900236975e-01 1.867448021210584841e-01
3.199687857866890806e-01 2.328688363054638444e-01
3.210093346833544636e-01 3.137797943199558404e-01
3.220498835800198467e-01 4.135594695909219354e-01
3.230904324766852298e-01 1.813867945461780096e-01
3.241309813733506129e-01 1.797534400530160781e-01
3.251715302700159960e-01 2.884251944338238616e-01
3.262120791666813790e-01 2.426434668205104117e-01
3.272526280633467621e-01 2.152341812253801834e-01
3.282931769600121452e-01 1.208259725393645567e-02
3.293337258566775283e-01 3.084818485799942778e-01
3.303742747533429114e-01 3.430077042108692353e-01
3.314148236500082945e-01 1.869232970022949303e-01
3.324553725466736775e-01 2.853822973497770477e-01
3.334959214433390606e-01 5.000489318313583453e-01
3.345364703400044437e-01 3.469108646010887753e-01
3.355770192366698268e-01 2.542149576254857379e-01
3.366175681333352099e-01 2.668961543035521800e-01
3.376581170300005930e-01 5.408853859825661914e-01
3.386986659266659760e-01 6.088934039708426837e-01
3.397392148233313591e-01 4.754430432128415873e-01
3.407797637199967422e-01 2.874472721756688998e-01
3.418203126166621253e-01 4.114847983622098582e-01
3.428608615133275084e-01 4.717288863733664073e-01
3.439014104099928915e-01 4.900770052736831417e-01
3.449419593066582745e-01 4.767760325404495347e-01
3.459825082033236576e-01 7.262448366107392417e-01
3.470230570999890407e-01 6.759661519806456909e-01
3.480636059966544238e-01 5.169922879452393261e-01
3.491041548933198069e-01 6.804452817180823843e-01
3.501447037899851900e-01 5.688469476614237408e-01
3.511852526866505730e-01 9.298443821465767201e-01
3.522258015833159561e-01 7.497418934339705743e-01
3.532663504799813392e-01 5.941306676862687652e-01
3.543068993766467223e-01 5.867427197307897302e-01
3.553474482733121054e-01 6.841401645010947163e-01
3.563879971699774885e-01 7.407359401393556197e-01
3.574285460666428715e-01 8.309974331617837606e-01
3.584690949633082546e-01 8.621468185350238400e-01
3.595096438599736377e-01 5.694485897101273508e-01
3.605501927566390208e-01 5.306832444807803029e-01
3.615907416533044039e-01 6.301310407644677980e-01
3.626312905499697870e-01 7.404286887586550847e-01
3.636718394466351700e-01 6.330060925119624926e-01
3.647123883433005531e-01 4.495796628410637652e-01
3.657529372399659362e-01 4.612228915385543360e-01
3.667934861366313193e-01 5.642606179608584682e-01
3.678340350332967024e-01 3.397278420639935348e-01
3.688745839299620854e-01 3.411472237755042158e-01
3.699151328266274685e-01 3.659737785871897131e-01
3.709556817232928516e-01 4.207262675014256104e-01
3.719962306199582347e-01 5.517829771218067947e-01
3.730367795166236178e-01 5.736265421708708345e-01
3.740773284132890009e-01 5.708481754963301569e-01
3.751178773099543839e-01 7.176413861314863141e-01
3.761584262066197670e-01 7.143005830859614491e-01
3.771989751032851501e-01 7.917020542068833322e-01
3.782395239999505332e-01 6.220769527858713843e-01
3.792800728966159163e-01 5.257949025925761077e-01
3.803206217932812994e-01 6.463585430593425940e-01
3.813611706899466824e-01 5.541146544198127799e-01
3.824017195866120655e-01 7.271766227997851217e-01
3.834422684832774486e-01 4.452104142270130183e-01
3.844828173799428317e-01 2.556854169251465692e-01
3.855233662766082148e-01 5.194804605100458161e-01
3.865639151732735979e-01 5.146884687434685191e-01
3.876044640699389809e-01 4.042876024854074046e-01
3.886450129666043640e-01 4.160347459332598419e-01
3.896855618632697471e-01 5.156705955760294557e-01
3.907261107599351302e-01 2.273706441152754110e-01
3.917666596566005133e-01 3.292197841135333647e-01
3.928072085532658964e-01 3.214225173930493895e-01
3.938477574499312794e-01 4.111568074387648153e-01
3.948883063465966625e-01 2.661413912794046155e-01
3.959288552432620456e-01 0.000000000000000000e+00
3.969694041399274287e-01 1.379968212358626545e-01
3.980099530365928118e-01 3.291825698203503237e-01
3.990505019332581949e-01 3.057971965750532206e-01
4.000910508299235779e-01 2.886189135323142807e-01
4.011315997265889610e-01 3.534351674238394025e-01
4.021721486232543441e-01 3.215177893182605828e-01
4.032126975199197272e-01 4.112875522313146348e-01
4.042532464165851103e-01 9.166380614330194021e-02
4.052937953132504934e-01 3.192001823228061141e-01
4.063343442099158764e-01 2.553389014299902726e-01
4.073748931065812595e-01 1.189153939320171105e-01
4.084154420032466426e-01 1.699638722786964706e-01
4.094559908999120257e-01 2.853948765905727214e-01
4.104965397965774088e-01 3.376222501564889455e-01
4.115370886932427918e-01 3.672485089869823582e-01
4.125776375899081749e-01 6.568509023335522556e-02
4.136181864865735580e-01 2.545548441079503732e-02
4.146587353832389411e-01 2.747233100627610725e-01
4.156992842799043242e-01 4.804184729630733841e-01
4.167398331765697073e-01 4.776075682700877678e-01
4.177803820732350903e-01 2.636113370513903931e-01
4.188209309699004734e-01 3.052548188923402961e-01
4.198614798665658565e-01 3.884149133286456390e-01
4.209020287632312396e-01 2.544866942577819202e-01
4.219425776598966227e-01 2.137042174555539020e-01
4.229831265565620058e-01 3.594738780974431336e-01
4.240236754532273888e-01 4.115304302988143093e-01
4.250642243498927719e-01 2.289596178155726136e-01
4.261047732465581550e-01 1.600552128799996865e-01
4.271453221432235381e-01 2.769069116953275511e-01
4.281858710398889212e-01 2.916392321054068759e-01
4.292264199365543043e-01 3.860539247269905161e-01
4.302669688332196873e-01 5.310857224040823610e-01
4.313075177298850704e-01 3.449962169939375656e-01
4.323480666265504535e-01 3.661535574238214963e-01
4.333886155232158366e-01 3.318874983934065881e-01
4.344291644198812197e-01 3.451027235644872349e-01
