# q (1/Angstrom), Intensity (arb)
2.029070354705860696e-02 1.337360804604339137e+03
2.133125244372399004e-02 1.324982385789992577e+03
2.237180134038937659e-02 1.313155227274869276e+03
2.341235023705475968e-02 1.307791733887179362e+03
2.445289913372014276e-02 1.301189629648012897e+03
2.549344803038552584e-02 1.295010794800798521e+03
2.653399692705091240e-02 1.274927534040255978e+03
2.757454582371629548e-02 1.262504943235153860e+03
2.861509472038167856e-02 1.246445903370190990e+03
2.965564361704706164e-02 1.237590131805914325e+03
3.069619251371244473e-02 1.224717483815232299e+03
3.173674141037782781e-02 1.203482699374269941e+03
3.277729030704321089e-02 1.185276944551314273e+03
3.381783920370859398e-02 1.165303991964485022e+03
3.485838810037397706e-02 1.146260984244988549e+03
3.589893699703936014e-02 1.130317512662341869e+03
3.693948589370474322e-02 1.109891192230037404e+03
3.798003479037012631e-02 1.090551873347322953e+03
3.902058368703550939e-02 1.071558902849352762e+03
4.006113258370089247e-02 1.046285057096308492e+03
4.110168148036627556e-02 1.023771915091839901e+03
4.214223037703165864e-02 1.004844472384706478e+03
4.318277927369704866e-02 9.836046044648807083e+02
4.422332817036243174e-02 9.629886199197500218e+02
4.526387706702781483e-02 9.405845153003358519e+02
4.630442596369319791e-02 9.174262779028312025e+02
4.734497486035858099e-02 8.970783475974926660e+02
4.838552375702396408e-02 8.760188965148167881e+02
4.942607265368934716e-02 8.515512003882256522e+02
5.046662155035473024e-02 8.303292018037919888e+02
5.150717044702011332e-02 8.102624447633183991e+02
5.254771934368549641e-02 7.856630175764814794e+02
5.358826824035087949e-02 7.642266170575768456e+02
5.462881713701626257e-02 7.441189625022216205e+02
5.566936603368164566e-02 7.211517427622799232e+02
5.670991493034702874e-02 7.023380027725729633e+02
5.775046382701241182e-02 6.802098085959238460e+02
5.879101272367779490e-02 6.574321593358400833e+02
5.983156162034317799e-02 6.357318235877937695e+02
6.087211051700856107e-02 6.149442611910155847e+02
6.191265941367394415e-02 5.936191510359108179e+02
6.295320831033933417e-02 5.746478290313120851e+02
6.399375720700471726e-02 5.542430684397039613e+02
6.503430610367010034e-02 5.345225717935313696e+02
6.607485500033548342e-02 5.155715464148014462e+02
6.711540389700086651e-02 4.978556598502466386e+02
6.815595279366624959e-02 4.795907875904833304e+02
6.919650169033163267e-02 4.612876077136356798e+02
7.023705058699701576e-02 4.430104962369422879e+02
7.127759948366239884e-02 4.248036435477191617e+02
7.231814838032778192e-02 4.056460025342612994e+02
7.335869727699316500e-02 3.874703952894130907e+02
7.439924617365854809e-02 3.710742922236269123e+02
7.543979507032393117e-02 3.549255571793892159e+02
7.648034396698931425e-02 3.389290193899478822e+02
7.752089286365469734e-02 3.226893995263524175e+02
7.856144176032008042e-02 3.063701918809824747e+02
7.960199065698546350e-02 2.913795793502100082e+02
8.064253955365084658e-02 2.776473836139930995e+02
8.168308845031622967e-02 2.655560611347015083e+02
8.272363734698161275e-02 2.524248477746973833e+02
8.376418624364699583e-02 2.385066675720458704e+02
8.480473514031239279e-02 2.256613285183826179e+02
8.584528403697777588e-02 2.119924228813883360e+02
8.688583293364315896e-02 2.003885381001509529e+02
8.792638183030854204e-02 1.896792299282058138e+02
8.896693072697392513e-02 1.775609139635672591e+02
9.000747962363930821e-02 1.675902300610565874e+02
9.104802852030469129e-02 1.583858426243267843e+02
9.208857741697007437e-02 1.476584983856731412e+02
9.312912631363545746e-02 1.371294983537104599e+02
9.416967521030084054e-02 1.268986487616974443e+02
9.521022410696622362e-02 1.176622358205017775e+02
9.625077300363160671e-02 1.115079239904248709e+02
9.729132190029698979e-02 1.041850565509224396e+02
9.833187079696237287e-02 9.570424170673828712e+01
9.937241969362775595e-02 8.863206919685616469e+01
1.004129685902931390e-01 8.191020988459038676e+01
1.014535174869585221e-01 7.576900076585158672e+01
1.024940663836239052e-01 6.956941025923721611e+01
1.035346152802892883e-01 6.294147664236638207e+01
1.045751641769546714e-01 5.815659832971518028e+01
1.056157130736200545e-01 5.318217930573765528e+01
1.066562619702854375e-01 4.842621989769799029e+01
1.076968108669508206e-01 4.345213419751564743e+01
1.087373597636162037e-01 3.937834745570606287e+01
1.097779086602815868e-01 3.548341118761132407e+01
1.108184575569469699e-01 3.196426496027921615e+01
1.118590064536123529e-01 2.866815574589801940e+01
1.128995553502777360e-01 2.522987744657223885e+01
1.139401042469431191e-01 2.282634386005774019e+01
1.149806531436085022e-01 2.026671918090879387e+01
1.160212020402738853e-01 1.753060918773906707e+01
1.170617509369392684e-01 1.508198081851298156e+01
1.181022998336046514e-01 1.287415195167963589e+01
1.191428487302700345e-01 1.161481457253865557e+01
1.201833976269354176e-01 1.056503902539538586e+01
1.212239465236008007e-01 8.626631756767473291e+00
1.222644954202661838e-01 6.929114208617804138e+00
1.233050443169315669e-01 5.869438835617309280e+00
1.243455932135969499e-01 5.254430315343569191e+00
1.253861421102623330e-01 4.756909217713591431e+00
1.264266910069277161e-01 3.967382756132764143e+00
1.274672399035930992e-01 3.103411505524100278e+00
1.285077888002584823e-01 3.022185506608728645e+00
1.295483376969238654e-01 2.507287412182115816e+00
1.305888865935892484e-01 2.249239360880913807e+00
1.316294354902546315e-01 2.398860324448165215e+00
1.326699843869200146e-01 1.629566033873956599e+00
1.337105332835853977e-01 1.565550294555457356e+00
1.347510821802507808e-01 1.622332198978057249e+00
1.357916310769161639e-01 1.892430244694644159e+00
1.368321799735815469e-01 1.746499494735175517e+00
1.378727288702469300e-01 2.426956122936125837e+00
1.389132777669123131e-01 2.855889261257210876e+00
1.399538266635776962e-01 2.830841396301892132e+00
1.409943755602430793e-01 3.374710279683029057e+00
1.420349244569084624e-01 3.998446937288150593e+00
1.430754733535738454e-01 4.126911736263970454e+00
1.441160222502392285e-01 4.331549092565602166e+00
1.451565711469046116e-01 4.844717892429926565e+00
1.461971200435699947e-01 5.188452541079769276e+00
1.472376689402353778e-01 5.573530997113586238e+00
1.482782178369007609e-01 5.975119284466067882e+00
1.493187667335661439e-01 6.322494370576961842e+00
1.503593156302315270e-01 6.194821170141175060e+00
1.513998645268969101e-01 6.955148182754044228e+00
1.524404134235622932e-01 7.538850877627034208e+00
1.534809623202276763e-01 8.001859223460215276e+00
1.545215112168930593e-01 8.163217825340524314e+00
1.555620601135584424e-01 8.664497109630978855e+00
1.566026090102238255e-01 8.907408604843830346e+00
1.576431579068892086e-01 8.760391725397944640e+00
1.586837068035545917e-01 9.466752060326498963e+00
1.597242557002199748e-01 9.477542366480506075e+00
1.607648045968853578e-01 9.931207062255843709e+00
1.618053534935507409e-01 1.001568052623418481e+01
1.628459023902161240e-01 1.019518145864653746e+01
1.638864512868815071e-01 1.029485096277846878e+01
1.649270001835468902e-01 1.015963255861333892e+01
1.659675490802122733e-01 1.056828180418424523e+01
1.670080979768776563e-01 1.050482652486072510e+01
1.680486468735430672e-01 1.038154706370314528e+01
1.690891957702084503e-01 1.069264113544338102e+01
1.701297446668738333e-01 1.047748890728637861e+01
1.711702935635392164e-01 1.037322096052164966e+01
1.722108424602045995e-01 1.050854944553380221e+01
1.732513913568699826e-01 1.002788328134325724e+01
1.742919402535353657e-01 9.505868412207959750e+00
1.753324891502007488e-01 9.801333243664650752e+00
1.763730380468661318e-01 9.891285527645216291e+00
1.774135869435315149e-01 9.787840882615746807e+00
1.784541358401968980e-01 9.521755734922734860e+00
1.794946847368622811e-01 9.097579661345726265e+00
1.805352336335276642e-01 8.889701671247514980e+00
1.815757825301930473e-01 8.863443866962406048e+00
1.826163314268584303e-01 8.477329173329010814e+00
1.836568803235238134e-01 8.520738548570832904e+00
1.846974292201891965e-01 8.296913053273335947e+00
1.857379781168545796e-01 7.807752017828747171e+00
1.867785270135199627e-01 7.346289144673335159e+00
1.878190759101853458e-01 7.263072271005349023e+00
1.888596248068507288e-01 6.800625662005820971e+00
1.899001737035161119e-01 6.795069908367246114e+00
1.909407226001814950e-01 6.679033447666334666e+00
1.919812714968468781e-01 6.223409790054148516e+00
1.930218203935122612e-01 6.003154423353862512e+00
1.940623692901776443e-01 5.801059504009273837e+00
1.951029181868430273e-01 5.503631761283990897e+00
1.961434670835084104e-01 5.171202880939837598e+00
1.971840159801737935e-01 4.957456387979043200e+00
1.982245648768391766e-01 4.700441067836173659e+00
1.992651137735045597e-01 3.914718051854094938e+00
2.003056626701699428e-01 3.835559035625159652e+00
2.013462115668353813e-01 3.726258111238088588e+00
2.023867604635007644e-01 3.295950189048461709e+00
2.034273093601661475e-01 3.121332202941381695e+00
2.044678582568315306e-01 2.857827713126333435e+00
2.055084071534969137e-01 2.706504622450566444e+00
2.065489560501622968e-01 2.604457437255646823e+00
2.075895049468276798e-01 2.610670487755260893e+00
2.086300538434930629e-01 2.612995333980087764e+00
2.096706027401584460e-01 2.050820359303262563e+00
2.107111516368238291e-01 1.831616235268036519e+00
2.117517005334892122e-01 1.561155898111614704e+00
2.127922494301545953e-01 1.497003234225481094e+00
2.138327983268199783e-01 1.312081118335807872e+00
2.148733472234853614e-01 1.143938592537580234e+00
2.159138961201507445e-01 9.062057650678276843e-01
2.169544450168161276e-01 7.814265954801058456e-01
2.179949939134815107e-01 8.970565743978937689e-01
2.190355428101468938e-01 6.814266430141096009e-01
2.200760917068122768e-01 6.895248209824309527e-01
2.211166406034776599e-01 7.489176618850521550e-01
2.221571895001430430e-01 6.400782658897128385e-01
2.231977383968084261e-01 8.545275501996485445e-01
2.242382872934738092e-01 7.755814427971436942e-01
2.252788361901391923e-01 8.474749492325273081e-01
2.263193850868045753e-01 5.743003162608779633e-01
2.273599339834699584e-01 4.592825711058559079e-01
2.284004828801353415e-01 6.026614356083186408e-01
2.294410317768007246e-01 3.283881911958417277e-01
2.304815806734661077e-01 7.655578342031112982e-01
2.315221295701314908e-01 7.344278999798206087e-01
2.325626784667968738e-01 7.175354047263340362e-01
2.336032273634622569e-01 5.387101404806315941e-01
2.346437762601276400e-01 5.528581979783915301e-01
2.356843251567930231e-01 6.814121272507946969e-01
2.367248740534584062e-01 7.428873011011489780e-01
2.377654229501237892e-01 8.232009187427919983e-01
2.388059718467891723e-01 5.860462373516277523e-01
2.398465207434545554e-01 6.754154930302576076e-01
2.408870696401199385e-01 9.203348190823916752e-01
2.419276185367853216e-01 1.200366549266224325e+00
2.429681674334507047e-01 1.329099946269053589e+00
2.440087163301160877e-01 1.238765272958790575e+00
2.450492652267814708e-01 8.528493622148438646e-01
2.460898141234468539e-01 7.922563899819472510e-01
2.471303630201122370e-01 9.667087733602635069e-01
2.481709119167776201e-01 1.265818439756571934e+00
2.492114608134430032e-01 1.508398738393633920e+00
2.502520097101083585e-01 1.646822403948636548e+00
2.512925586067737416e-01 1.595083334497815031e+00
2.523331075034391247e-01 1.576750514343491005e+00
2.533736564001045077e-01 1.499756021113888949e+00
2.544142052967698908e-01 1.535074717682295642e+00
2.554547541934352739e-01 1.340244558292926769e+00
2.564953030901006570e-01 1.790266487899206282e+00
2.575358519867660401e-01 1.999042160073226881e+00
2.585764008834314231e-01 2.285404672860039454e+00
2.596169497800968062e-01 2.379864981569255633e+00
2.606574986767621893e-01 2.833193042879504020e+00
2.616980475734275724e-01 1.945684869028045938e+00
2.627385964700929555e-01 1.898746276619686313e+00
2.637791453667583386e-01 1.793674725722503638e+00
2.648196942634237216e-01 1.977307592765839672e+00
2.658602431600891047e-01 1.886881790848228491e+00
2.669007920567544878e-01 1.703041500485458215e+00
2.679413409534198709e-01 1.837584671122765911e+00
2.689818898500852540e-01 2.018918626160246532e+00
2.700224387467506371e-01 2.031477100468606523e+00
2.710629876434160201e-01 1.835431364469425120e+00
2.721035365400814032e-01 1.927392262079983709e+00
2.731440854367467863e-01 1.840833894032417817e+00
2.741846343334121694e-01 1.839087967963624948e+00
2.752251832300775525e-01 1.634841696113770837e+00
2.762657321267429356e-01 1.624217710055805952e+00
2.773062810234083186e-01 1.662140313096923450e+00
2.783468299200737017e-01 1.918345008443132826e+00
2.793873788167390848e-01 1.607575088204548308e+00
2.804279277134044679e-01 1.317135531919053193e+00
2.814684766100698510e-01 1.331709427246266841e+00
2.825090255067352341e-01 1.429423641449467652e+00
2.835495744034006171e-01 1.357995058901479979e+00
2.845901233000660002e-01 1.426172520463257598e+00
2.856306721967313833e-01 1.174597316264666347e+00
2.866712210933967664e-01 1.074414907084666027e+00
2.877117699900621495e-01 1.093698791478395549e+00
2.887523188867275326e-01 1.291053084430863862e+00
2.897928677833929156e-01 1.367173457201175779e+00
2.908334166800582987e-01 1.147300317299833949e+00
2.918739655767236818e-01 8.477080030547128331e-01
2.929145144733890649e-01 8.960429775391389740e-01
2.939550633700544480e-01 8.377603374752951026e-01
2.949956122667198311e-01 8.821788890315964693e-01
2.960361611633852141e-01 9.330988318667294834e-01
2.970767100600505972e-01 1.012233662183053440e+00
2.981172589567159803e-01 8.426056825120795679e-01
2.991578078533813634e-01 5.467660670208118745e-01
3.001983567500468020e-01 7.370521153273479342e-01
3.012389056467121851e-01 8.070608487507549000e-01
3.022794545433775681e-01 6.828623834029770023e-01
3.033200034400429512e-01 4.566614857619342160e-01
3.043605523367083343e-01 3.099873667909953667e-01
3.054011012333737174e-01 4.620896345926830406e-01
3.064416501300391005e-01 4.447996799884137431e-01
3.074821990267044836e-01 5.311714295417253595e-01
3.085227479233698666e-01 5.820468340812574581e-01
3.095632968200352497e-01 4.564108159215010119e-01
3.106038457167006328e-01 1.913645330809465861e-01
3.116443946133660159e-01 4.305558942375533604e-01
3.126849435100313990e-01 4.487359572664999519e-01
3.137254924066967821e-01 4.445356044545256680e-01
3.147660413033621651e-01 4.510964994004993400e-01
3.158065902000275482e-01 4.279554832464320668e-01
3.168471390966929313e-01 2.617443356479789429e-01
3.178876879933583144e-01 2.852245385539120548e-01
3.189282368900236975e-01 3.300805543437306255e-01
3.199687857866890806e-01 3.853057321242090438e-01
3.210093346833544636e-01 0.000000000000000000e+00
3.220498835800198467e-01 2.172511885240346885e-01
3.230904324766852298e-01 4.556652650472621247e-01
3.241309813733506129e-01 5.436129593055518683e-01
3.251715302700159960e-01 5.121858455623993223e-01
3.262120791666813790e-01 5.264275929269999210e-01
3.272526280633467621e-01 3.053985204813258747e-01
3.282931769600121452e-01 2.933283665093782133e-01
3.293337258566775283e-01 4.527060730625755980e-01
3.303742747533429114e-01 4.260491318906396430e-01
3.314148236500082945e-01 3.936206537505420044e-01
3.324553725466736775e-01 3.470598457502731549e-01
3.334959214433390606e-01 4.786330190242154003e-01
3.345364703400044437e-01 6.568164909290921116e-01
3.355770192366698268e-01 7.656381462684720418e-01
3.366175681333352099e-01 4.717495368097033293e-01
3.376581170300005930e-01 3.471653407698482852e-01
3.386986659266659760e-01 5.949956607313175994e-01
3.397392148233313591e-01 8.007639025303134872e-01
3.407797637199967422e-01 7.632570246865917341e-01
3.418203126166621253e-01 6.877819960297451019e-01
3.428608615133275084e-01 5.563564734492238983e-01
3.439014104099928915e-01 5.363276168953099443e-01
3.449419593066582745e-01 5.624925474470252595e-01
3.459825082033236576e-01 5.495028020571339766e-01
3.470230570999890407e-01 7.564275455231239675e-01
3.480636059966544238e-01 8.002984491455187310e-01
3.491041548933198069e-01 6.623461204431428939e-01
3.501447037899851900e-01 1.063472941090545021e+00
3.511852526866505730e-01 8.513393276936120913e-01
3.522258015833159561e-01 7.527132354058210240e-01
3.532663504799813392e-01 5.494447780057285513e-01
3.543068993766467223e-01 4.985094957204623256e-01
3.553474482733121054e-01 5.995801648068805889e-01
3.563879971699774885e-01 7.723857725725693513e-01
3.574285460666428715e-01 8.435344463080980404e-01
3.584690949633082546e-01 7.134368323893411912e-01
3.595096438599736377e-01 6.931095084661471617e-01
3.605501927566390208e-01 8.689054237026567762e-01
3.615907416533044039e-01 7.719675872391853488e-01
3.626312905499697870e-01 7.380957011543998192e-01
3.636718394466351700e-01 6.547812806180246525e-01
3.647123883433005531e-01 5.572045714263822447e-01
3.657529372399659362e-01 8.527142879423301736e-01
3.667934861366313193e-01 1.117538340078791492e+00
3.678340350332967024e-01 8.205998776279912477e-01
3.688745839299620854e-01 7.968580896773467259e-01
3.699151328266274685e-01 7.033565207828296195e-01
3.709556817232928516e-01 6.755266195909008786e-01
3.719962306199582347e-01 4.602811605647509907e-01
3.730367795166236178e-01 3.685383872909611114e-01
3.740773284132890009e-01 3.239867700669023520e-01
3.751178773099543839e-01 6.636168574745902049e-01
3.761584262066197670e-01 6.106801558759720194e-01
3.771989751032851501e-01 4.956337724557009494e-01
3.782395239999505332e-01 6.323294093450293474e-01
3.792800728966159163e-01 5.896341430128266836e-01
3.803206217932812994e-01 5.909045346089705220e-01
3.813611706899466824e-01 5.722490927944292594e-01
3.824017195866120655e-01 8.714786449015790026e-01
3.834422684832774486e-01 7.964989344056156995e-01
3.844828173799428317e-01 6.780907467976646785e-01
3.855233662766082148e-01 6.871097327928517018e-01
3.865639151732735979e-01 4.728080699120127406e-01
3.876044640699389809e-01 5.169535889542693496e-01
3.886450129666043640e-01 6.179378271555293622e-01
3.896855618632697471e-01 7.165609708657036947e-01
3.907261107599351302e-01 5.945895243946601738e-01
3.917666596566005133e-01 4.353889305157103706e-01
3.928072085532658964e-01 4.118865056362146504e-01
3.938477574499312794e-01 4.766156904706733144e-01
3.948883063465966625e-01 4.838480233812809672e-01
3.959288552432620456e-01 4.550994202608436012e-01
3.969694041399274287e-01 6.069005216721805596e-01
3.980099530365928118e-01 5.481724798727718451e-01
3.990505019332581949e-01 5.392339123352236641e-01
4.000910508299235779e-01 4.027940629996251687e-01
4.011315997265889610e-01 3.284081541211776312e-01
4.021721486232543441e-01 1.768886146284529559e-01
4.032126975199197272e-01 2.486127120006393909e-01
4.042532464165851103e-01 5.513857121649365922e-01
4.052937953132504934e-01 6.871518191468375392e-01
4.063343442099158764e-01 6.768354499319038098e-01
4.073748931065812595e-01 4.459900440979076564e-01
4.084154420032466426e-01 3.660923993118885278e-01
4.094559908999120257e-01 4.062472757754171937e-01
4.104965397965774088e-01 6.748260143649140730e-01
4.115370886932427918e-01 6.756195575925403318e-01
4.125776375899081749e-01 4.674110153577402116e-01
4.136181864865735580e-01 4.903145629401031158e-01
4.146587353832389411e-01 5.402888697139829333e-01
4.156992842799043242e-01 5.757588847392050013e-01
4.167398331765697073e-01 5.412307407360543721e-01
4.177803820732350903e-01 5.396396854355671735e-01
4.188209309699004734e-01 5.899570980287123234e-01
4.198614798665658565e-01 7.187389387470553004e-01
4.209020287632312396e-01 6.919838615918223468e-01
4.219425776598966227e-01 3.577669853110627685e-01
4.229831265565620058e-01 3.465211001267540780e-01
4.240236754532273888e-01 5.300219504842544893e-01
4.250642243498927719e-01 5.792789532326558799e-01
4.261047732465581550e-01 4.886644462955764823e-01
4.271453221432235381e-01 7.224199685692376249e-01
4.281858710398889212e-01 7.131665325264400224e-01
4.292264199365543043e-01 5.366382472651203273e-01
4.302669688332196873e-01 4.927222182734567468e-01
4.313075177298850704e-01 5.959350984381153182e-01
4.323480666265504535e-01 2.821238690602179133e-01
4.333886155232158366e-01 3.081991375859374216e-01
4.344291644198812197e-01 4.795340665321994322e-01
