# q (1/Angstrom), Intensity (arb)
2.029070354705860696e-02 1.399027170091565495e+03
2.133125244372399004e-02 1.395766178589474976e+03
2.237180134038937659e-02 1.388046833369301567e+03
2.341235023705475968e-02 1.376943998246340925e+03
2.445289913372014276e-02 1.365546184201814640e+03
2.549344803038552584e-02 1.352396049390086091e+03
2.653399692705091240e-02 1.336466989827361886e+03
2.757454582371629548e-02 1.323570857887388684e+03
2.861509472038167856e-02 1.310595834336745384e+03
2.965564361704706164e-02 1.294654167388281166e+03
3.069619251371244473e-02 1.277839164671672279e+03
3.173674141037782781e-02 1.259713264657600348e+03
3.277729030704321089e-02 1.241065110450195107e+03
3.381783920370859398e-02 1.225715206853297332e+03
3.485838810037397706e-02 1.209867361869936531e+03
3.589893699703936014e-02 1.188050715464580890e+03
3.693948589370474322e-02 1.169205809932498141e+03
3.798003479037012631e-02 1.145278032556355583e+03
3.902058368703550939e-02 1.123437775019330957e+03
4.006113258370089247e-02 1.101574183619846963e+03
4.110168148036627556e-02 1.082621786882935794e+03
4.214223037703165864e-02 1.059723622912644714e+03
4.318277927369704866e-02 1.037373383706729783e+03
4.422332817036243174e-02 1.014766506025157014e+03
4.526387706702781483e-02 9.893764766114775284e+02
4.630442596369319791e-02 9.659498184155575018e+02
4.734497486035858099e-02 9.464326504038530175e+02
4.838552375702396408e-02 9.228443751304517946e+02
4.942607265368934716e-02 9.006573042073221131e+02
5.046662155035473024e-02 8.771831706050953699e+02
5.150717044702011332e-02 8.539947685949947527e+02
5.254771934368549641e-02 8.320588199031308250e+02
5.358826824035087949e-02 8.068572254513510416e+02
5.462881713701626257e-02 7.848892545439654214e+02
5.566936603368164566e-02 7.605787955658162218e+02
5.670991493034702874e-02 7.385241817938593840e+02
5.775046382701241182e-02 7.145153475622348651e+02
5.879101272367779490e-02 6.933032968716307778e+02
5.983156162034317799e-02 6.733606133986952500e+02
6.087211051700856107e-02 6.502261995866743973e+02
6.191265941367394415e-02 6.280728335894397105e+02
6.295320831033933417e-02 6.050473110068783171e+02
6.399375720700471726e-02 5.836164447095807191e+02
6.503430610367010034e-02 5.631370670270658820e+02
6.607485500033548342e-02 5.408680536777235375e+02
6.711540389700086651e-02 5.218902538450940938e+02
6.815595279366624959e-02 5.055025131256330724e+02
6.919650169033163267e-02 4.850415264731947218e+02
7.023705058699701576e-02 4.638418537553825445e+02
7.127759948366239884e-02 4.445250361745020768e+02
7.231814838032778192e-02 4.264552860811014625e+02
7.335869727699316500e-02 4.095913669809422117e+02
7.439924617365854809e-02 3.902842967346957153e+02
7.543979507032393117e-02 3.736621374086363403e+02
7.648034396698931425e-02 3.571915807468473076e+02
7.752089286365469734e-02 3.402420754945510453e+02
7.856144176032008042e-02 3.250645223560375712e+02
7.960199065698546350e-02 3.091512754597588923e+02
8.064253955365084658e-02 2.930622192980724208e+02
8.168308845031622967e-02 2.791345512317128623e+02
8.272363734698161275e-02 2.642885708601252759e+02
8.376418624364699583e-02 2.502866577256377241e+02
8.480473514031239279e-02 2.363268352622950488e+02
8.584528403697777588e-02 2.230587662512388079e+02
8.688583293364315896e-02 2.106929429521318866e+02
8.792638183030854204e-02 1.989789395100393961e+02
8.896693072697392513e-02 1.865587303246129238e+02
9.000747962363930821e-02 1.760590131196937307e+02
9.104802852030469129e-02 1.654517286469951500e+02
9.208857741697007437e-02 1.556791108552665719e+02
9.312912631363545746e-02 1.457505997355748377e+02
9.416967521030084054e-02 1.362970501947172011e+02
9.521022410696622362e-02 1.260350940091474286e+02
9.625077300363160671e-02 1.186817040888947616e+02
9.729132190029698979e-02 1.098120806810348142e+02
9.833187079696237287e-02 1.017498813373928499e+02
9.937241969362775595e-02 9.428184555237919540e+01
1.004129685902931390e-01 8.715075089750256154e+01
1.014535174869585221e-01 8.071213872979640769e+01
1.024940663836239052e-01 7.358241453203424953e+01
1.035346152802892883e-01 6.767634182226771600e+01
1.045751641769546714e-01 6.239211884688590715e+01
1.056157130736200545e-01 5.686912482841746908e+01
1.066562619702854375e-01 5.191519477018443496e+01
1.076968108669508206e-01 4.657607585427788166e+01
1.087373597636162037e-01 4.175373481121640395e+01
1.097779086602815868e-01 3.789208285024405853e+01
1.108184575569469699e-01 3.425435732974998615e+01
1.118590064536123529e-01 3.002693681317871466e+01
1.128995553502777360e-01 2.657300428698748362e+01
1.139401042469431191e-01 2.436379321870221304e+01
1.149806531436085022e-01 2.178880863792760181e+01
1.160212020402738853e-01 1.902877870618173262e+01
1.170617509369392684e-01 1.674062026558297589e+01
1.181022998336046514e-01 1.473602983779599640e+01
1.191428487302700345e-01 1.280318034218804968e+01
1.201833976269354176e-01 1.099601188424736620e+01
1.212239465236008007e-01 9.351470235228340755e+00
1.222644954202661838e-01 7.740694941285376274e+00
1.233050443169315669e-01 6.328620747773200605e+00
1.243455932135969499e-01 5.823730078305885627e+00
1.253861421102623330e-01 4.919208389140706572e+00
1.264266910069277161e-01 4.124012161471959814e+00
1.274672399035930992e-01 3.518694819494363912e+00
1.285077888002584823e-01 3.012725178337873899e+00
1.295483376969238654e-01 2.743009891617777640e+00
1.305888865935892484e-01 2.060695727138366351e+00
1.316294354902546315e-01 1.904285613648291076e+00
1.326699843869200146e-01 1.666672469335544804e+00
1.337105332835853977e-01 1.597597401543090712e+00
1.347510821802507808e-01 1.840267544385184806e+00
1.357916310769161639e-01 1.738189129589237325e+00
1.368321799735815469e-01 2.476631459143341374e+00
1.378727288702469300e-01 2.631050809205135010e+00
1.389132777669123131e-01 2.901645718650680550e+00
1.399538266635776962e-01 3.199186902934492593e+00
1.409943755602430793e-01 3.639625826286351895e+00
1.420349244569084624e-01 3.557611114074664016e+00
1.430754733535738454e-01 3.926661687787618149e+00
1.441160222502392285e-01 4.783611839127203780e+00
1.451565711469046116e-01 5.284229309850218215e+00
1.461971200435699947e-01 5.752678598962347678e+00
1.472376689402353778e-01 6.028445974397637741e+00
1.482782178369007609e-01 6.797970210875554642e+00
1.493187667335661439e-01 7.153120164642562173e+00
1.503593156302315270e-01 7.887560105262760857e+00
1.513998645268969101e-01 7.793410240676852396e+00
1.524404134235622932e-01 7.808114934512879302e+00
1.534809623202276763e-01 8.170704066406802468e+00
1.545215112168930593e-01 8.834874843461967941e+00
1.555620601135584424e-01 8.921258474652383086e+00
1.566026090102238255e-01 9.168066111747883440e+00
1.576431579068892086e-01 9.435477113184845166e+00
1.586837068035545917e-01 9.858457872405228528e+00
1.597242557002199748e-01 1.013468133770631141e+01
1.607648045968853578e-01 1.026819222704521550e+01
1.618053534935507409e-01 1.029579868156478284e+01
1.628459023902161240e-01 1.073773817041129419e+01
1.638864512868815071e-01 1.054617537816849548e+01
1.649270001835468902e-01 1.043305383735611969e+01
1.659675490802122733e-01 1.066001909736895215e+01
1.670080979768776563e-01 1.125943651247764876e+01
1.680486468735430672e-01 1.142852712997883557e+01
1.690891957702084503e-01 1.143187412817548676e+01
1.701297446668738333e-01 1.131645769816969604e+01
1.711702935635392164e-01 1.121121861816700971e+01
1.722108424602045995e-01 1.099498492265113825e+01
1.732513913568699826e-01 1.086078479456046608e+01
1.742919402535353657e-01 1.071572054906622640e+01
1.753324891502007488e-01 1.028969565214173087e+01
1.763730380468661318e-01 1.019853386383480043e+01
1.774135869435315149e-01 9.831447658270310086e+00
1.784541358401968980e-01 1.008332484066167112e+01
1.794946847368622811e-01 1.009023201392117386e+01
1.805352336335276642e-01 9.642217741439058187e+00
1.815757825301930473e-01 8.975365531735974400e+00
1.826163314268584303e-01 8.923798440889267880e+00
1.836568803235238134e-01 9.059086942819394750e+00
1.846974292201891965e-01 8.600407182313798415e+00
1.857379781168545796e-01 8.281615894280179191e+00
1.867785270135199627e-01 7.921109569847686771e+00
1.878190759101853458e-01 7.905136926170225564e+00
1.888596248068507288e-01 7.654006221785447650e+00
1.899001737035161119e-01 7.134573551503311961e+00
1.909407226001814950e-01 6.630740928823236402e+00
1.919812714968468781e-01 6.672943858535635542e+00
1.930218203935122612e-01 6.348496573679515365e+00
1.940623692901776443e-01 5.962335498084840424e+00
1.951029181868430273e-01 5.727199919024464236e+00
1.961434670835084104e-01 5.218452602965793830e+00
1.971840159801737935e-01 4.693652679338818245e+00
1.982245648768391766e-01 4.581834253783089395e+00
1.992651137735045597e-01 4.402760253103746635e+00
2.003056626701699428e-01 4.146002848230761373e+00
2.013462115668353813e-01 4.041888667711106109e+00
2.023867604635007644e-01 3.773529486926545218e+00
2.034273093601661475e-01 3.098880383578833886e+00
2.044678582568315306e-01 3.043271869561035459e+00
2.055084071534969137e-01 3.022368741069414000e+00
2.065489560501622968e-01 2.750593255510239032e+00
2.075895049468276798e-01 2.716031407675455256e+00
2.086300538434930629e-01 2.511605315683407724e+00
2.096706027401584460e-01 2.038526720120934499e+00
2.107111516368238291e-01 1.698312673387221139e+00
2.117517005334892122e-01 1.550145287422743934e+00
2.127922494301545953e-01 1.462936229273328337e+00
2.138327983268199783e-01 1.465408909194334086e+00
2.148733472234853614e-01 1.315014310089971161e+00
2.159138961201507445e-01 1.314938141702814534e+00
2.169544450168161276e-01 1.064871824886257201e+00
2.179949939134815107e-01 7.658589481555324596e-01
2.190355428101468938e-01 7.534420035878639510e-01
2.200760917068122768e-01 6.844252736402332005e-01
2.211166406034776599e-01 4.651785583217815656e-01
2.221571895001430430e-01 8.422046699133325376e-01
2.231977383968084261e-01 2.896968291265800133e-01
2.242382872934738092e-01 6.407537578146111912e-01
2.252788361901391923e-01 4.022387290082853895e-01
2.263193850868045753e-01 3.686259013620407643e-01
2.273599339834699584e-01 5.383668250642905662e-01
2.284004828801353415e-01 4.619161922475036874e-01
2.294410317768007246e-01 3.417197731407739525e-01
2.304815806734661077e-01 4.004147763124379367e-01
2.315221295701314908e-01 5.910546143312558343e-01
2.325626784667968738e-01 6.332316562539013205e-01
2.336032273634622569e-01 5.397587864088890797e-01
2.346437762601276400e-01 5.829497080298402523e-01
2.356843251567930231e-01 7.772630380036105180e-01
2.367248740534584062e-01 7.362653611445288959e-01
2.377654229501237892e-01 7.982457601769539224e-01
2.388059718467891723e-01 7.994138937659869271e-01
2.398465207434545554e-01 7.391044840094167512e-01
2.408870696401199385e-01 9.573146598916970618e-01
2.419276185367853216e-01 1.085980371653882059e+00
2.429681674334507047e-01 1.166592177596605495e+00
2.440087163301160877e-01 1.170996735757380947e+00
2.450492652267814708e-01 1.057819697801853920e+00
2.460898141234468539e-01 1.083476817944674764e+00
2.471303630201122370e-01 1.135421583000432832e+00
2.481709119167776201e-01 1.185256551373218059e+00
2.492114608134430032e-01 1.252654930870779282e+00
2.502520097101083585e-01 1.457766440277424635e+00
2.512925586067737416e-01 1.553969341385720071e+00
2.523331075034391247e-01 1.513946162463277290e+00
2.533736564001045077e-01 1.597589354455458022e+00
2.544142052967698908e-01 1.462827583398762954e+00
2.554547541934352739e-01 1.574031561793084677e+00
2.564953030901006570e-01 1.708256251866519193e+00
2.575358519867660401e-01 1.750285310851843690e+00
2.585764008834314231e-01 1.775843948822924290e+00
2.596169497800968062e-01 1.810083043524127078e+00
2.606574986767621893e-01 1.514900974972011483e+00
2.616980475734275724e-01 1.554182683468042114e+00
2.627385964700929555e-01 1.652590474331390169e+00
2.637791453667583386e-01 1.647595011962042832e+00
2.648196942634237216e-01 1.918199970088480200e+00
2.658602431600891047e-01 1.746635194245815370e+00
2.669007920567544878e-01 1.607675453139187027e+00
2.679413409534198709e-01 1.697483602316648188e+00
2.689818898500852540e-01 1.714649302279518395e+00
2.700224387467506371e-01 1.665104541303215058e+00
2.710629876434160201e-01 1.786329821800720197e+00
2.721035365400814032e-01 1.864874443757386757e+00
2.731440854367467863e-01 1.916818684929211258e+00
2.741846343334121694e-01 1.962571063869731347e+00
2.752251832300775525e-01 1.798172007117397442e+00
2.762657321267429356e-01 1.824773185447586599e+00
2.773062810234083186e-01 1.585082541921348565e+00
2.783468299200737017e-01 1.550290607540308230e+00
2.793873788167390848e-01 1.563859809590358196e+00
2.804279277134044679e-01 1.313506479056453458e+00
2.814684766100698510e-01 1.243590414647258058e+00
2.825090255067352341e-01 1.227129162813294982e+00
2.835495744034006171e-01 1.370715956188501394e+00
2.845901233000660002e-01 9.992000627841655103e-01
2.856306721967313833e-01 9.289016767828179866e-01
2.866712210933967664e-01 1.153146807415712516e+00
2.877117699900621495e-01 1.052193661383327594e+00
2.887523188867275326e-01 1.189248835853831565e+00
2.897928677833929156e-01 1.361885571099364256e+00
2.908334166800582987e-01 1.249964796979540438e+00
2.918739655767236818e-01 9.834731815076231953e-01
2.929145144733890649e-01 4.470575097338169712e-01
2.939550633700544480e-01 7.541624503796526824e-01
2.949956122667198311e-01 7.509020820645311289e-01
2.960361611633852141e-01 4.955471298158435900e-01
2.970767100600505972e-01 5.989764363965122129e-01
2.981172589567159803e-01 6.629670288817912649e-01
2.991578078533813634e-01 6.827810932889200046e-01
3.001983567500468020e-01 6.641102328903798480e-01
3.012389056467121851e-01 4.988392327917168245e-01
3.022794545433775681e-01 5.739329882334942567e-01
3.033200034400429512e-01 5.642637141422959246e-01
3.043605523367083343e-01 5.393222650987929967e-01
3.054011012333737174e-01 7.571938615645734671e-01
3.064416501300391005e-01 6.344921484734200590e-01
3.074821990267044836e-01 6.824664546624852335e-01
3.085227479233698666e-01 5.184964483324527862e-01
3.095632968200352497e-01 5.357301891119128356e-01
3.106038457167006328e-01 5.040909997827469624e-01
3.116443946133660159e-01 3.762091362189963206e-01
3.126849435100313990e-01 2.998047839849107277e-01
3.137254924066967821e-01 4.412309492449892900e-01
3.147660413033621651e-01 2.387982025933510499e-01
3.158065902000275482e-01 1.671352678743005526e-01
3.168471390966929313e-01 2.252796397736034351e-01
3.178876879933583144e-01 3.342438793752080528e-01
3.189282368900236975e-01 5.371888563825244489e-01
3.199687857866890806e-01 4.392417638292194226e-01
3.210093346833544636e-01 1.883512562111882005e-01
3.220498835800198467e-01 3.179733011231320461e-01
3.230904324766852298e-01 2.232016074180300791e-01
3.241309813733506129e-01 2.624202277916509729e-02
3.251715302700159960e-01 0.000000000000000000e+00
3.262120791666813790e-01 1.076147404140179731e-01
3.272526280633467621e-01 2.346016873227689814e-01
3.282931769600121452e-01 2.392206915671586387e-01
3.293337258566775283e-01 3.741039631314428959e-01
3.303742747533429114e-01 4.868531109831479853e-01
3.314148236500082945e-01 5.025229561128128353e-01
3.324553725466736775e-01 1.971616488579890358e-01
3.334959214433390606e-01 2.681923398548633486e-01
3.345364703400044437e-01 3.561046453607765727e-01
3.355770192366698268e-01 5.337133286699611290e-01
3.366175681333352099e-01 5.210333169560392719e-01
3.376581170300005930e-01 4.440875240926764889e-01
3.386986659266659760e-01 5.041101949382991165e-01
3.397392148233313591e-01 4.881246097852063315e-01
3.407797637199967422e-01 5.718684833497604814e-01
3.418203126166621253e-01 5.019147281679003925e-01
3.428608615133275084e-01 4.726234140052874011e-01
3.439014104099928915e-01 4.497642953189107118e-01
3.449419593066582745e-01 4.071868755810896801e-01
3.459825082033236576e-01 3.550603675123475966e-01
3.470230570999890407e-01 6.228992955273362497e-01
3.480636059966544238e-01 4.463147598265209126e-01
3.491041548933198069e-01 3.938764760917834451e-01
3.501447037899851900e-01 6.239039131910502078e-01
3.511852526866505730e-01 6.731653955519227850e-01
3.522258015833159561e-01 6.335403794879574946e-01
3.532663504799813392e-01 7.175263605822159718e-01
3.543068993766467223e-01 7.687272343402966612e-01
3.553474482733121054e-01 4.563042963805834518e-01
3.563879971699774885e-01 4.297512319790079971e-01
3.574285460666428715e-01 7.201724811152097061e-01
3.584690949633082546e-01 6.345754617081311721e-01
3.595096438599736377e-01 5.816244255910838490e-01
3.605501927566390208e-01 4.106676491011569397e-01
3.615907416533044039e-01 4.168757059950927157e-01
3.626312905499697870e-01 4.923279106211531087e-01
3.636718394466351700e-01 6.024713987000964721e-01
3.647123883433005531e-01 5.370891513262776584e-01
3.657529372399659362e-01 5.958482728633178738e-01
3.667934861366313193e-01 7.295058158206337851e-01
3.678340350332967024e-01 6.712072144816296770e-01
3.688745839299620854e-01 5.310305962302450666e-01
3.699151328266274685e-01 4.854562951190501963e-01
3.709556817232928516e-01 5.838320466671262920e-01
3.719962306199582347e-01 5.287393916864608912e-01
3.730367795166236178e-01 3.449235812685778058e-01
3.740773284132890009e-01 4.299721777200851136e-01
3.751178773099543839e-01 5.633881180893531848e-01
3.761584262066197670e-01 5.407756144654563002e-01
3.771989751032851501e-01 4.904938386211163959e-01
3.782395239999505332e-01 4.720491392525367758e-01
3.792800728966159163e-01 5.187713808114864378e-01
3.803206217932812994e-01 5.544883370450612858e-01
3.813611706899466824e-01 5.961076275434429306e-01
3.824017195866120655e-01 4.314949215824732676e-01
3.834422684832774486e-01 3.989241469833224585e-01
3.844828173799428317e-01 3.424821571306040369e-01
3.855233662766082148e-01 2.773339885817058814e-01
3.865639151732735979e-01 2.307701005482343248e-01
3.876044640699389809e-01 4.533985136852223263e-01
3.886450129666043640e-01 5.921679538348740834e-01
3.896855618632697471e-01 3.922099983704896431e-01
3.907261107599351302e-01 2.274058638309917058e-01
3.917666596566005133e-01 2.567479466640776309e-01
3.928072085532658964e-01 4.479296562440850948e-01
3.938477574499312794e-01 4.091295605706086747e-01
3.948883063465966625e-01 4.266356662649215536e-01
3.959288552432620456e-01 4.329287773808623285e-01
3.969694041399274287e-01 2.776809139462166343e-01
3.980099530365928118e-01 2.948953740680373414e-01
3.990505019332581949e-01 4.382494998016888132e-01
4.000910508299235779e-01 5.651975195428917687e-01
4.011315997265889610e-01 4.006347652551340843e-01
4.021721486232543441e-01 3.620934739367847044e-01
4.032126975199197272e-01 3.801378837642275244e-01
4.042532464165851103e-01 2.232103558812532640e-01
4.052937953132504934e-01 3.281199622786949988e-01
4.063343442099158764e-01 4.234875954979955281e-01
4.073748931065812595e-01 2.949007232028044712e-01
4.084154420032466426e-01 2.508484376357849044e-01
4.094559908999120257e-01 3.332642309641968836e-01
4.104965397965774088e-01 1.012317089734331432e-01
4.115370886932427918e-01 2.848614527665915830e-01
4.125776375899081749e-01 3.180372459568872046e-01
4.136181864865735580e-01 2.463326791554507622e-01
4.146587353832389411e-01 2.276497054010171439e-01
4.156992842799043242e-01 3.635250221965549144e-01
4.167398331765697073e-01 3.920118207079497097e-01
4.177803820732350903e-01 1.544351529689613756e-01
4.188209309699004734e-01 3.329286172509071662e-02
4.198614798665658565e-01 2.819073633193625028e-01
4.209020287632312396e-01 3.495672546982149242e-01
4.219425776598966227e-01 4.148470778435715545e-01
4.229831265565620058e-01 2.121425501507445688e-01
4.240236754532273888e-01 2.451366742539171639e-01
4.250642243498927719e-01 3.838454798143224878e-01
4.261047732465581550e-01 6.340849427204986455e-02
4.271453221432235381e-01 1.570467102045398633e-01
4.281858710398889212e-01 3.093932654584179431e-01
4.292264199365543043e-01 3.010116260500730334e-01
4.302669688332196873e-01 2.884977182200998413e-01
4.313075177298850704e-01 3.792196813399399957e-01
4.323480666265504535e-01 5.043457870312835212e-01
4.333886155232158366e-01 5.986311100467780477e-01
4.344291644198812197e-01 5.507239137160802045e-01
