# q (1/Angstrom), Intensity (arb)
2.029070354705860696e-02 1.427793817157758895e+03
2.133125244372399004e-02 1.420501955883423307e+03
2.237180134038937659e-02 1.415376879906872773e+03
2.341235023705475968e-02 1.408440723177940981e+03
2.445289913372014276e-02 1.389493145962989047e+03
2.549344803038552584e-02 1.376961197578496240e+03
2.653399692705091240e-02 1.369389921746198070e+03
2.757454582371629548e-02 1.355385607843848675e+03
2.861509472038167856e-02 1.343100434263393026e+03
2.965564361704706164e-02 1.331481762744606613e+03
3.069619251371244473e-02 1.311662544538831753e+03
3.173674141037782781e-02 1.291384721318623860e+03
3.277729030704321089e-02 1.270327627155090568e+03
3.381783920370859398e-02 1.248741246734708284e+03
3.485838810037397706e-02 1.230450218932462803e+03
3.589893699703936014e-02 1.211921335291392779e+03
3.693948589370474322e-02 1.192208669207226421e+03
3.798003479037012631e-02 1.171310993097355322e+03
3.902058368703550939e-02 1.147609481525437332e+03
4.006113258370089247e-02 1.126365312050604416e+03
4.110168148036627556e-02 1.104358566959379004e+03
4.214223037703165864e-02 1.083321842334710709e+03
4.318277927369704866e-02 1.060181911876871027e+03
4.422332817036243174e-02 1.038748778250497935e+03
4.526387706702781483e-02 1.017608511721815489e+03
4.630442596369319791e-02 9.889283949082671370e+02
4.734497486035858099e-02 9.638502832638564541e+02
4.838552375702396408e-02 9.434860726886511202e+02
4.942607265368934716e-02 9.187672691018846081e+02
5.046662155035473024e-02 8.947268852392365943e+02
5.150717044702011332e-02 8.738003348626891693e+02
5.254771934368549641e-02 8.503037000709393851e+02
5.358826824035087949e-02 8.253666934632874472e+02
5.462881713701626257e-02 8.031739593992574555e+02
5.566936603368164566e-02 7.780414704817831080e+02
5.670991493034702874e-02 7.545181674748415617e+02
5.775046382701241182e-02 7.310691504821967328e+02
5.879101272367779490e-02 7.096885454482661544e+02
5.983156162034317799e-02 6.864461739915195722e+02
6.087211051700856107e-02 6.653211364514634170e+02
6.191265941367394415e-02 6.426568172738058138e+02
6.295320831033933417e-02 6.214700806301826788e+02
6.399375720700471726e-02 5.996600054702348643e+02
6.503430610367010034e-02 5.780654285533969414e+02
6.607485500033548342e-02 5.544108830499238820e+02
6.711540389700086651e-02 5.343431913575196859e+02
6.815595279366624959e-02 5.149239362193501393e+02
6.919650169033163267e-02 4.936455046756809111e+02
7.023705058699701576e-02 4.738821364415749713e+02
7.127759948366239884e-02 4.564619422877887587e+02
7.231814838032778192e-02 4.392150092380114188e+02
7.335869727699316500e-02 4.203109325136147731e+02
7.439924617365854809e-02 4.019674194994992718e+02
7.543979507032393117e-02 3.842838309712371938e+02
7.648034396698931425e-02 3.673165370112019446e+02
7.752089286365469734e-02 3.505100852270095402e+02
7.856144176032008042e-02 3.332045630784485297e+02
7.960199065698546350e-02 3.164814298810553055e+02
8.064253955365084658e-02 3.013185408468065702e+02
8.168308845031622967e-02 2.874078575121444601e+02
8.272363734698161275e-02 2.712704558877629779e+02
8.376418624364699583e-02 2.582457715868096670e+02
8.480473514031239279e-02 2.441191866057497464e+02
8.584528403697777588e-02 2.289656187288918261e+02
8.688583293364315896e-02 2.168150083572903668e+02
8.792638183030854204e-02 2.054587331807749138e+02
8.896693072697392513e-02 1.930058753759470846e+02
9.000747962363930821e-02 1.824323971157109270e+02
9.104802852030469129e-02 1.707389061997016881e+02
9.208857741697007437e-02 1.599919210682171240e+02
9.312912631363545746e-02 1.497430582211084413e+02
9.416967521030084054e-02 1.393513667268352947e+02
9.521022410696622362e-02 1.301564298554288825e+02
9.625077300363160671e-02 1.210838933504375490e+02
9.729132190029698979e-02 1.121483112942955955e+02
9.833187079696237287e-02 1.046577245332083663e+02
9.937241969362775595e-02 9.744442161777118372e+01
1.004129685902931390e-01 8.983624173140677271e+01
1.014535174869585221e-01 8.289856149837410726e+01
1.024940663836239052e-01 7.606472451005456037e+01
1.035346152802892883e-01 6.991455432615569521e+01
1.045751641769546714e-01 6.420087916745838186e+01
1.056157130736200545e-01 5.840598634593057170e+01
1.066562619702854375e-01 5.241873951108892982e+01
1.076968108669508206e-01 4.774169586971422063e+01
1.087373597636162037e-01 4.367449613803808006e+01
1.097779086602815868e-01 3.940202135362189040e+01
1.108184575569469699e-01 3.537645387383724938e+01
1.118590064536123529e-01 3.185811316306888941e+01
1.128995553502777360e-01 2.846224491900951037e+01
1.139401042469431191e-01 2.554177664250389768e+01
1.149806531436085022e-01 2.204694897174509904e+01
1.160212020402738853e-01 1.951247657707243377e+01
1.170617509369392684e-01 1.676740417552398554e+01
1.181022998336046514e-01 1.468432080457028022e+01
1.191428487302700345e-01 1.309314248229985012e+01
1.201833976269354176e-01 1.114379008186872611e+01
1.212239465236008007e-01 9.658682583715233250e+00
1.222644954202661838e-01 8.428102100654623285e+00
1.233050443169315669e-01 7.104535124066511997e+00
1.243455932135969499e-01 5.876531075160002615e+00
1.253861421102623330e-01 5.023045248645605199e+00
1.264266910069277161e-01 4.661290347932631306e+00
1.274672399035930992e-01 4.284164460746897163e+00
1.285077888002584823e-01 3.573930077234486191e+00
1.295483376969238654e-01 2.994184091200249753e+00
1.305888865935892484e-01 2.957170827772134913e+00
1.316294354902546315e-01 2.716360779016525839e+00
1.326699843869200146e-01 2.167415591932940089e+00
1.337105332835853977e-01 2.040460998990326402e+00
1.347510821802507808e-01 1.874003471132986931e+00
1.357916310769161639e-01 2.250088651758044733e+00
1.368321799735815469e-01 2.497154708245563626e+00
1.378727288702469300e-01 2.914869069150775260e+00
1.389132777669123131e-01 3.161476824028078170e+00
1.399538266635776962e-01 3.033424988504972220e+00
1.409943755602430793e-01 3.731984631458391988e+00
1.420349244569084624e-01 4.259880390834076991e+00
1.430754733535738454e-01 4.608626351979907554e+00
1.441160222502392285e-01 5.410057968050420385e+00
1.451565711469046116e-01 5.382022796293860267e+00
1.461971200435699947e-01 6.059625050266248536e+00
1.472376689402353778e-01 6.149590055109804609e+00
1.482782178369007609e-01 6.485791049389508345e+00
1.493187667335661439e-01 6.683499871532262659e+00
1.503593156302315270e-01 7.265934382398022251e+00
1.513998645268969101e-01 7.884709212368516518e+00
1.524404134235622932e-01 8.009529491321522698e+00
1.534809623202276763e-01 8.534555566880346333e+00
1.545215112168930593e-01 8.979837729108123057e+00
1.555620601135584424e-01 9.253565178090855881e+00
1.566026090102238255e-01 9.414645311450435372e+00
1.576431579068892086e-01 9.716405971834177535e+00
1.586837068035545917e-01 1.009924513529979961e+01
1.597242557002199748e-01 1.073926591453345480e+01
1.607648045968853578e-01 1.108231256880755211e+01
1.618053534935507409e-01 1.114918404831101384e+01
1.628459023902161240e-01 1.125373001867746225e+01
1.638864512868815071e-01 1.106815536248356224e+01
1.649270001835468902e-01 1.147638775301240699e+01
1.659675490802122733e-01 1.168391308980909926e+01
1.670080979768776563e-01 1.182481111108175043e+01
1.680486468735430672e-01 1.157934690583638115e+01
1.690891957702084503e-01 1.148326322638130748e+01
1.701297446668738333e-01 1.158073376998172321e+01
1.711702935635392164e-01 1.150369005024030145e+01
1.722108424602045995e-01 1.117625953519375059e+01
1.732513913568699826e-01 1.111282941519183254e+01
1.742919402535353657e-01 1.146533592926211043e+01
1.753324891502007488e-01 1.149018038298359201e+01
1.763730380468661318e-01 1.098932972870515812e+01
1.774135869435315149e-01 1.071292111914760525e+01
1.784541358401968980e-01 1.032817071956507249e+01
1.794946847368622811e-01 1.009511863136175336e+01
1.805352336335276642e-01 1.009906193780300399e+01
1.815757825301930473e-01 9.884922673309596064e+00
1.826163314268584303e-01 9.718590713254993574e+00
1.836568803235238134e-01 9.513162109209918782e+00
1.846974292201891965e-01 9.377446108880242548e+00
1.857379781168545796e-01 9.010215947069838194e+00
1.867785270135199627e-01 8.561536544367058355e+00
1.878190759101853458e-01 8.343143020982108027e+00
1.888596248068507288e-01 7.888282973089118855e+00
1.899001737035161119e-01 7.585042246638284524e+00
1.909407226001814950e-01 7.419594032524994276e+00
1.919812714968468781e-01 7.155507231313748662e+00
1.930218203935122612e-01 6.429676428638536834e+00
1.940623692901776443e-01 6.144325775994168737e+00
1.951029181868430273e-01 5.796102183765619031e+00
1.961434670835084104e-01 5.469302510200261480e+00
1.971840159801737935e-01 5.192929648868592096e+00
1.982245648768391766e-01 4.871875180409631412e+00
1.992651137735045597e-01 4.607921802280138479e+00
2.003056626701699428e-01 4.296385932746623837e+00
2.013462115668353813e-01 4.080093482857261478e+00
2.023867604635007644e-01 4.192915942837466048e+00
2.034273093601661475e-01 3.886320871323206916e+00
2.044678582568315306e-01 3.618817392266549859e+00
2.055084071534969137e-01 3.329392486941095797e+00
2.065489560501622968e-01 2.940640425848116024e+00
2.075895049468276798e-01 2.598392857003094747e+00
2.086300538434930629e-01 2.482521535665902945e+00
2.096706027401584460e-01 2.159740794709186673e+00
2.107111516368238291e-01 2.332163465203823449e+00
2.117517005334892122e-01 2.397006302935547950e+00
2.127922494301545953e-01 2.001044387530626523e+00
2.138327983268199783e-01 1.833725375232685195e+00
2.148733472234853614e-01 1.551890744380241216e+00
2.159138961201507445e-01 1.386885750243713744e+00
2.169544450168161276e-01 1.363989138178819616e+00
2.179949939134815107e-01 1.193555718275000288e+00
2.190355428101468938e-01 1.036068238465503555e+00
2.200760917068122768e-01 7.800653875850329655e-01
2.211166406034776599e-01 6.896246608308871373e-01
2.221571895001430430e-01 9.054315590215047393e-01
2.231977383968084261e-01 9.551103663507021224e-01
2.242382872934738092e-01 1.139340971391373358e+00
2.252788361901391923e-01 5.760252367272897800e-01
2.263193850868045753e-01 3.733316017513921281e-01
2.273599339834699584e-01 7.331028736465654561e-01
2.284004828801353415e-01 8.458270987020846121e-01
2.294410317768007246e-01 7.849441078436605324e-01
2.304815806734661077e-01 6.649250278911438272e-01
2.315221295701314908e-01 6.701829275489572524e-01
2.325626784667968738e-01 4.485412645546844601e-01
2.336032273634622569e-01 5.110814650365718137e-01
2.346437762601276400e-01 7.695816666488894953e-01
2.356843251567930231e-01 9.126657167187026687e-01
2.367248740534584062e-01 9.178991688757243139e-01
2.377654229501237892e-01 1.202648851428914867e+00
2.388059718467891723e-01 1.148080844296085701e+00
2.398465207434545554e-01 1.076368228140839989e+00
2.408870696401199385e-01 1.128886356694387416e+00
2.419276185367853216e-01 1.353840538464240240e+00
2.429681674334507047e-01 1.252533336187422464e+00
2.440087163301160877e-01 1.244918441624243144e+00
2.450492652267814708e-01 1.375846490319037940e+00
2.460898141234468539e-01 1.494045085949480267e+00
2.471303630201122370e-01 1.551826871675441311e+00
2.481709119167776201e-01 1.403717527777200047e+00
2.492114608134430032e-01 1.571341712599895857e+00
2.502520097101083585e-01 1.668879775258279352e+00
2.512925586067737416e-01 1.832303950217404775e+00
2.523331075034391247e-01 1.787520621993390790e+00
2.533736564001045077e-01 1.641878716002693750e+00
2.544142052967698908e-01 1.749043620991166392e+00
2.554547541934352739e-01 1.927684000437874801e+00
2.564953030901006570e-01 1.980277218971583153e+00
2.575358519867660401e-01 1.745808281428118391e+00
2.585764008834314231e-01 1.952581590981299797e+00
2.596169497800968062e-01 2.044271634013938410e+00
2.606574986767621893e-01 2.215315260094502747e+00
2.616980475734275724e-01 2.324828742576173113e+00
2.627385964700929555e-01 2.051862418362006224e+00
2.637791453667583386e-01 1.777068158699965039e+00
2.648196942634237216e-01 1.977114130981465934e+00
2.658602431600891047e-01 1.964780929343323379e+00
2.669007920567544878e-01 2.028166897508018707e+00
2.679413409534198709e-01 2.084395685154337485e+00
2.689818898500852540e-01 2.397577132760513763e+00
2.700224387467506371e-01 2.378631063190461248e+00
2.710629876434160201e-01 2.320740364745741857e+00
2.721035365400814032e-01 2.127360754842637647e+00
2.731440854367467863e-01 1.915160293675903347e+00
2.741846343334121694e-01 1.923975396006973426e+00
2.752251832300775525e-01 1.890166112802916132e+00
2.762657321267429356e-01 1.722445603966157535e+00
2.773062810234083186e-01 1.596788144342347948e+00
2.783468299200737017e-01 1.553661165457739912e+00
2.793873788167390848e-01 1.368158336025700805e+00
2.804279277134044679e-01 1.668238665215138639e+00
2.814684766100698510e-01 1.868707243407005336e+00
2.825090255067352341e-01 1.504350999881420847e+00
2.835495744034006171e-01 1.474361095378512232e+00
2.845901233000660002e-01 1.480963979514879014e+00
2.856306721967313833e-01 1.532768831372742113e+00
2.866712210933967664e-01 1.656705348876808870e+00
2.877117699900621495e-01 1.780849822604448462e+00
2.887523188867275326e-01 1.635203409630523907e+00
2.897928677833929156e-01 1.254765823763182908e+00
2.908334166800582987e-01 1.068390779954974334e+00
2.918739655767236818e-01 1.087838476249878283e+00
2.929145144733890649e-01 1.026401232293157051e+00
2.939550633700544480e-01 1.082649869342660054e+00
2.949956122667198311e-01 1.294420628922601679e+00
2.960361611633852141e-01 1.334182746447339696e+00
2.970767100600505972e-01 1.237560559619993228e+00
2.981172589567159803e-01 9.607641131571753590e-01
2.991578078533813634e-01 9.392107337157078462e-01
3.001983567500468020e-01 9.376940279682663970e-01
3.012389056467121851e-01 8.506453195869028150e-01
3.022794545433775681e-01 9.358367408857510839e-01
3.033200034400429512e-01 8.099464163268272898e-01
3.043605523367083343e-01 7.698812311657334817e-01
3.054011012333737174e-01 7.899215206689795821e-01
3.064416501300391005e-01 7.444364341650846484e-01
3.074821990267044836e-01 6.183118204429547404e-01
3.085227479233698666e-01 7.076574781496631772e-01
3.095632968200352497e-01 5.346150892296535062e-01
3.106038457167006328e-01 5.055849499942404179e-01
3.116443946133660159e-01 7.928426297468220696e-01
3.126849435100313990e-01 6.465162512542050877e-01
3.137254924066967821e-01 3.897844452426291184e-01
3.147660413033621651e-01 3.503390591097215179e-01
3.158065902000275482e-01 3.573129257302305462e-01
3.168471390966929313e-01 1.777323661747978178e-01
3.178876879933583144e-01 2.042836584304694725e-01
3.189282368900236975e-01 3.482213504661899606e-01
3.199687857866890806e-01 0.000000000000000000e+00
3.210093346833544636e-01 5.327788588558135530e-02
3.220498835800198467e-01 4.640010033164863046e-01
3.230904324766852298e-01 3.951807395955384550e-01
3.241309813733506129e-01 4.438239762313607173e-01
3.251715302700159960e-01 1.718013475986879257e-01
3.262120791666813790e-01 6.836629444601882710e-02
3.272526280633467621e-01 4.935020212884069224e-01
3.282931769600121452e-01 4.737751424635980868e-01
3.293337258566775283e-01 4.484800396003976175e-01
3.303742747533429114e-01 5.048476928179645995e-01
3.314148236500082945e-01 4.601430188412898303e-01
3.324553725466736775e-01 6.919740724693994594e-01
3.334959214433390606e-01 8.616566843605752979e-01
3.345364703400044437e-01 8.067824405550716449e-01
3.355770192366698268e-01 4.032422179436885301e-01
3.366175681333352099e-01 5.213589788932253555e-01
3.376581170300005930e-01 6.132745095773053379e-01
3.386986659266659760e-01 5.989926095084676660e-01
3.397392148233313591e-01 5.287936189968043266e-01
3.407797637199967422e-01 7.249424109617450540e-01
3.418203126166621253e-01 7.437133086318752362e-01
3.428608615133275084e-01 5.621306020234015932e-01
3.439014104099928915e-01 5.548102773813248234e-01
3.449419593066582745e-01 6.063423482435759126e-01
3.459825082033236576e-01 3.240535698667450504e-01
3.470230570999890407e-01 5.926539768180347778e-01
3.480636059966544238e-01 6.273478558332321597e-01
3.491041548933198069e-01 4.653563527854522874e-01
3.501447037899851900e-01 5.807211406194312531e-01
3.511852526866505730e-01 6.066340810469377232e-01
3.522258015833159561e-01 5.716389588687000867e-01
3.532663504799813392e-01 7.236031660615367400e-01
3.543068993766467223e-01 8.695497864463597182e-01
3.553474482733121054e-01 6.590116058303578939e-01
3.563879971699774885e-01 7.118565667106224737e-01
3.574285460666428715e-01 6.738474710333868245e-01
3.584690949633082546e-01 8.134158676565341750e-01
3.595096438599736377e-01 7.814843820932573237e-01
3.605501927566390208e-01 6.685209045908315773e-01
3.615907416533044039e-01 5.655842710452603228e-01
3.626312905499697870e-01 6.749355449037288679e-01
3.636718394466351700e-01 7.112466889945423532e-01
3.647123883433005531e-01 7.005960721391524260e-01
3.657529372399659362e-01 9.007594766728992397e-01
3.667934861366313193e-01 1.000751553004818106e+00
3.678340350332967024e-01 6.713346561374606836e-01
3.688745839299620854e-01 6.503078584711730059e-01
3.699151328266274685e-01 5.408968639438782589e-01
3.709556817232928516e-01 6.757956452542757120e-01
3.719962306199582347e-01 6.697978759822582617e-01
3.730367795166236178e-01 6.523959330777309162e-01
3.740773284132890009e-01 6.597790487952970295e-01
3.751178773099543839e-01 8.288868947901768536e-01
3.761584262066197670e-01 6.492046143336658304e-01
3.771989751032851501e-01 7.540710398704781880e-01
3.782395239999505332e-01 7.684822602748830889e-01
3.792800728966159163e-01 7.565580580978341629e-01
3.803206217932812994e-01 7.465625325082889674e-01
3.813611706899466824e-01 8.109976572551040874e-01
3.824017195866120655e-01 7.400867985475336752e-01
3.834422684832774486e-01 6.706325823313328272e-01
3.844828173799428317e-01 6.166642096490271285e-01
3.855233662766082148e-01 4.185851209757451841e-01
3.865639151732735979e-01 4.896946985896342142e-01
3.876044640699389809e-01 5.806064062854332519e-01
3.886450129666043640e-01 5.042877158956535766e-01
3.896855618632697471e-01 5.526135340183913058e-01
3.907261107599351302e-01 4.571904883496173966e-01
3.917666596566005133e-01 5.661224181089430374e-01
3.928072085532658964e-01 7.214779924190750648e-01
3.938477574499312794e-01 5.951284185445757657e-01
3.948883063465966625e-01 6.098605702189949795e-01
3.959288552432620456e-01 4.703846978073151774e-01
3.969694041399274287e-01 4.567169947648395123e-01
3.980099530365928118e-01 4.160379797700066717e-01
3.990505019332581949e-01 1.993723430833540533e-01
4.000910508299235779e-01 3.854857144994419116e-01
4.011315997265889610e-01 2.888039193364200230e-01
4.021721486232543441e-01 2.018498212329866703e-01
4.032126975199197272e-01 5.116917489479853032e-01
4.042532464165851103e-01 6.234402398615799257e-01
4.052937953132504934e-01 6.181688172157677741e-01
4.063343442099158764e-01 4.646671821944856617e-01
4.073748931065812595e-01 5.133990878479508524e-01
4.084154420032466426e-01 4.160410989248148894e-01
4.094559908999120257e-01 5.291798984082731749e-01
4.104965397965774088e-01 5.834818476621883576e-01
4.115370886932427918e-01 4.275387030523951637e-01
4.125776375899081749e-01 4.576027555875121777e-01
4.136181864865735580e-01 3.922747429562782884e-01
4.146587353832389411e-01 3.400937174020022269e-01
4.156992842799043242e-01 3.665536366964303738e-01
4.167398331765697073e-01 2.845330955568279307e-01
4.177803820732350903e-01 2.206595276100529190e-01
4.188209309699004734e-01 2.698963886603706896e-01
4.198614798665658565e-01 3.235661811187817705e-01
4.209020287632312396e-01 3.885154613193790851e-01
4.219425776598966227e-01 4.652710384059837168e-01
4.229831265565620058e-01 5.663483678442950975e-01
4.240236754532273888e-01 6.427576490391793129e-01
4.250642243498927719e-01 4.841850260268358852e-01
4.261047732465581550e-01 3.916122323470077049e-01
4.271453221432235381e-01 5.557405378905109217e-01
4.281858710398889212e-01 6.240584464091369910e-01
4.292264199365543043e-01 6.897523393227622535e-01
4.302669688332196873e-01 6.727394198149951876e-01
4.313075177298850704e-01 5.482119345500215957e-01
4.323480666265504535e-01 5.221180056564449501e-01
4.333886155232158366e-01 5.522806330724741031e-01
4.344291644198812197e-01 5.985572737982209901e-01
