# q (1/Angstrom), Intensity (arb)
2.029070354705860696e-02 1.337240001861609699e+03
2.133125244372399004e-02 1.330285252513465139e+03
2.237180134038937659e-02 1.319602432104244372e+03
2.341235023705475968e-02 1.317528537310532556e+03
2.445289913372014276e-02 1.310641288927236246e+03
2.549344803038552584e-02 1.298985653227426610e+03
2.653399692705091240e-02 1.282050735577309069e+03
2.757454582371629548e-02 1.269644142174343642e+03
2.861509472038167856e-02 1.257603726383179719e+03
2.965564361704706164e-02 1.246227709379721091e+03
3.069619251371244473e-02 1.232197172727029510e+03
3.173674141037782781e-02 1.214784829932424373e+03
3.277729030704321089e-02 1.191833299606050105e+03
3.381783920370859398e-02 1.168434641202934472e+03
3.485838810037397706e-02 1.159287346890405388e+03
3.589893699703936014e-02 1.137034366139733493e+03
3.693948589370474322e-02 1.114048827268186869e+03
3.798003479037012631e-02 1.092859453145516454e+03
3.902058368703550939e-02 1.074567632709515919e+03
4.006113258370089247e-02 1.057680523240561570e+03
4.110168148036627556e-02 1.036107690039161980e+03
4.214223037703165864e-02 1.011244543906083322e+03
4.318277927369704866e-02 9.900546556147760384e+02
4.422332817036243174e-02 9.658721593000143457e+02
4.526387706702781483e-02 9.467880229471531948e+02
4.630442596369319791e-02 9.240576639929954581e+02
4.734497486035858099e-02 9.004504090673494829e+02
4.838552375702396408e-02 8.778522160194751223e+02
4.942607265368934716e-02 8.581298375013045643e+02
5.046662155035473024e-02 8.370288538086988410e+02
5.150717044702011332e-02 8.177585661797444345e+02
5.254771934368549641e-02 7.952448764002199368e+02
5.358826824035087949e-02 7.720173895557500146e+02
5.462881713701626257e-02 7.483725427417366518e+02
5.566936603368164566e-02 7.254177389322474028e+02
5.670991493034702874e-02 7.015006956601945376e+02
5.775046382701241182e-02 6.809705712784026446e+02
5.879101272367779490e-02 6.611617675442179234e+02
5.983156162034317799e-02 6.395918175277116688e+02
6.087211051700856107e-02 6.195885583739835738e+02
6.191265941367394415e-02 5.973379055347635358e+02
6.295320831033933417e-02 5.768861722858702024e+02
6.399375720700471726e-02 5.572957378291260966e+02
6.503430610367010034e-02 5.380379393607792053e+02
6.607485500033548342e-02 5.184865800813931855e+02
6.711540389700086651e-02 5.006087226017466492e+02
6.815595279366624959e-02 4.814311797433466040e+02
6.919650169033163267e-02 4.633805108303166094e+02
7.023705058699701576e-02 4.440280048028322426e+02
7.127759948366239884e-02 4.259525771393406330e+02
7.231814838032778192e-02 4.075482291645577675e+02
7.335869727699316500e-02 3.900661838906956973e+02
7.439924617365854809e-02 3.729380066801319344e+02
7.543979507032393117e-02 3.567334441159822518e+02
7.648034396698931425e-02 3.417744739176481517e+02
7.752089286365469734e-02 3.258666286691909590e+02
7.856144176032008042e-02 3.092635391512822594e+02
7.960199065698546350e-02 2.943127262809841795e+02
8.064253955365084658e-02 2.801745694668695705e+02
8.168308845031622967e-02 2.654852561879254154e+02
8.272363734698161275e-02 2.518649557014563243e+02
8.376418624364699583e-02 2.386249776527625954e+02
8.480473514031239279e-02 2.262998132717441422e+02
8.584528403697777588e-02 2.130040310640815733e+02
8.688583293364315896e-02 2.005425404068525097e+02
8.792638183030854204e-02 1.899387134596834130e+02
8.896693072697392513e-02 1.783907612063190129e+02
9.000747962363930821e-02 1.683354008699892006e+02
9.104802852030469129e-02 1.573142263883709973e+02
9.208857741697007437e-02 1.470618625914746076e+02
9.312912631363545746e-02 1.381896628402840577e+02
9.416967521030084054e-02 1.296227847907113642e+02
9.521022410696622362e-02 1.211605439290258062e+02
9.625077300363160671e-02 1.113022296295017384e+02
9.729132190029698979e-02 1.033538456716154599e+02
9.833187079696237287e-02 9.647027948833382993e+01
9.937241969362775595e-02 8.977985784047108098e+01
1.004129685902931390e-01 8.264185208738017252e+01
1.014535174869585221e-01 7.652064378387846943e+01
1.024940663836239052e-01 7.036566727469028137e+01
1.035346152802892883e-01 6.434307182798387714e+01
1.045751641769546714e-01 5.863872537164795062e+01
1.056157130736200545e-01 5.364622954909612673e+01
1.066562619702854375e-01 4.850205607821567355e+01
1.076968108669508206e-01 4.407528169887496006e+01
1.087373597636162037e-01 3.943155614221646488e+01
1.097779086602815868e-01 3.551872144734985426e+01
1.108184575569469699e-01 3.211868509380655468e+01
1.118590064536123529e-01 2.878390819311870530e+01
1.128995553502777360e-01 2.531966328778712239e+01
1.139401042469431191e-01 2.229353731045203091e+01
1.149806531436085022e-01 1.994439289591459641e+01
1.160212020402738853e-01 1.737501038830966138e+01
1.170617509369392684e-01 1.549488353626864523e+01
1.181022998336046514e-01 1.418378420883237112e+01
1.191428487302700345e-01 1.166276605071674055e+01
1.201833976269354176e-01 9.729812122441714450e+00
1.212239465236008007e-01 8.517795425492842298e+00
1.222644954202661838e-01 7.046254989716224770e+00
1.233050443169315669e-01 6.036329482404269697e+00
1.243455932135969499e-01 4.985969872084361043e+00
1.253861421102623330e-01 4.250844019352804537e+00
1.264266910069277161e-01 3.248984868758725497e+00
1.274672399035930992e-01 2.547923049873631385e+00
1.285077888002584823e-01 2.393698341441073296e+00
1.295483376969238654e-01 1.987531002107914446e+00
1.305888865935892484e-01 1.635243232231033517e+00
1.316294354902546315e-01 1.933407998546094575e+00
1.326699843869200146e-01 1.759287329657759358e+00
1.337105332835853977e-01 1.721738900471926570e+00
1.347510821802507808e-01 1.929835979049940420e+00
1.357916310769161639e-01 1.949064656784848637e+00
1.368321799735815469e-01 2.064203463980426534e+00
1.378727288702469300e-01 2.155818428996724379e+00
1.389132777669123131e-01 2.600909812364868401e+00
1.399538266635776962e-01 2.908112329526794326e+00
1.409943755602430793e-01 3.540809672212603232e+00
1.420349244569084624e-01 3.623340050200489770e+00
1.430754733535738454e-01 3.634446060845341719e+00
1.441160222502392285e-01 3.926387649667134383e+00
1.451565711469046116e-01 4.323671313660909732e+00
1.461971200435699947e-01 4.868535729685405045e+00
1.472376689402353778e-01 5.189617195982741293e+00
1.482782178369007609e-01 5.661190639544066983e+00
1.493187667335661439e-01 6.252497311017584991e+00
1.503593156302315270e-01 6.682174696303455619e+00
1.513998645268969101e-01 6.853874304771409243e+00
1.524404134235622932e-01 7.122123467357312165e+00
1.534809623202276763e-01 7.348697185451214864e+00
1.545215112168930593e-01 7.873931475345216313e+00
1.555620601135584424e-01 8.211420599300915057e+00
1.566026090102238255e-01 8.601429213020026054e+00
1.576431579068892086e-01 8.731614164766519082e+00
1.586837068035545917e-01 8.972684923275231483e+00
1.597242557002199748e-01 8.951853247955611437e+00
1.607648045968853578e-01 9.520675929238009871e+00
1.618053534935507409e-01 1.032324259309196890e+01
1.628459023902161240e-01 9.986405564779651911e+00
1.638864512868815071e-01 1.069065296141380372e+01
1.649270001835468902e-01 1.054460525211631250e+01
1.659675490802122733e-01 1.023197238714480051e+01
1.670080979768776563e-01 9.948540277532458731e+00
1.680486468735430672e-01 1.002847471049091865e+01
1.690891957702084503e-01 1.040187676038651432e+01
1.701297446668738333e-01 1.043821333389541905e+01
1.711702935635392164e-01 1.034443258139207700e+01
1.722108424602045995e-01 1.023887508991948891e+01
1.732513913568699826e-01 1.030645303911185096e+01
1.742919402535353657e-01 9.935756721142610104e+00
1.753324891502007488e-01 9.493384425051736741e+00
1.763730380468661318e-01 9.787679680135227045e+00
1.774135869435315149e-01 9.991638521980625853e+00
1.784541358401968980e-01 9.375026902021971864e+00
1.794946847368622811e-01 8.927114299171989842e+00
1.805352336335276642e-01 9.137786389369878748e+00
1.815757825301930473e-01 9.154808748737679025e+00
1.826163314268584303e-01 8.852764347256560029e+00
1.836568803235238134e-01 8.408480223621950245e+00
1.846974292201891965e-01 8.225310546283992608e+00
1.857379781168545796e-01 7.733965111061117170e+00
1.867785270135199627e-01 7.540231369655757021e+00
1.878190759101853458e-01 7.546074111110378624e+00
1.888596248068507288e-01 7.271614700133163467e+00
1.899001737035161119e-01 6.848798305399384390e+00
1.909407226001814950e-01 6.613786890304659494e+00
1.919812714968468781e-01 6.189642973151954664e+00
1.930218203935122612e-01 6.176975554079483288e+00
1.940623692901776443e-01 5.954584116182346065e+00
1.951029181868430273e-01 5.395837983447798081e+00
1.961434670835084104e-01 5.144687160975934148e+00
1.971840159801737935e-01 4.959384891219052349e+00
1.982245648768391766e-01 4.376380324812679135e+00
1.992651137735045597e-01 4.152844819409281740e+00
2.003056626701699428e-01 3.998581759072500574e+00
2.013462115668353813e-01 3.883586179266082183e+00
2.023867604635007644e-01 3.552586124163333636e+00
2.034273093601661475e-01 3.357935690717198440e+00
2.044678582568315306e-01 2.718329951521056387e+00
2.055084071534969137e-01 2.673225880448448777e+00
2.065489560501622968e-01 2.168813899794940880e+00
2.075895049468276798e-01 2.094798521282129400e+00
2.086300538434930629e-01 2.251288353737791681e+00
2.096706027401584460e-01 2.037693421971077612e+00
2.107111516368238291e-01 1.450831619184761223e+00
2.117517005334892122e-01 1.360573253308643871e+00
2.127922494301545953e-01 1.421688731731897803e+00
2.138327983268199783e-01 1.309002821293667296e+00
2.148733472234853614e-01 9.446525807494339233e-01
2.159138961201507445e-01 7.178167541510731553e-01
2.169544450168161276e-01 7.855129961529634386e-01
2.179949939134815107e-01 6.786792745780374503e-01
2.190355428101468938e-01 7.194048667552408460e-01
2.200760917068122768e-01 8.240626360184428734e-01
2.211166406034776599e-01 7.263710246139289950e-01
2.221571895001430430e-01 6.409355239897784884e-01
2.231977383968084261e-01 2.225183705605893181e-01
2.242382872934738092e-01 2.816118107196849962e-01
2.252788361901391923e-01 7.669278950261002592e-01
2.263193850868045753e-01 6.624555017086599662e-01
2.273599339834699584e-01 4.298239423397447467e-01
2.284004828801353415e-01 2.432761445793651944e-01
2.294410317768007246e-01 4.868998796110517446e-01
2.304815806734661077e-01 4.432139485667896395e-01
2.315221295701314908e-01 2.093801215405157734e-01
2.325626784667968738e-01 2.435079033376403856e-01
2.336032273634622569e-01 2.807295402536169604e-01
2.346437762601276400e-01 2.515833183833997566e-01
2.356843251567930231e-01 5.927269784135198449e-01
2.367248740534584062e-01 7.345568294620257177e-01
2.377654229501237892e-01 5.063620856145867322e-01
2.388059718467891723e-01 5.866727040294641426e-01
2.398465207434545554e-01 5.352988680305763580e-01
2.408870696401199385e-01 5.661441746377811057e-01
2.419276185367853216e-01 6.623810360870550085e-01
2.429681674334507047e-01 7.010307844684291467e-01
2.440087163301160877e-01 1.176270999265717876e+00
2.450492652267814708e-01 1.031708918246888373e+00
2.460898141234468539e-01 9.044880190149946486e-01
2.471303630201122370e-01 9.309370545705775157e-01
2.481709119167776201e-01 9.986340828679303172e-01
2.492114608134430032e-01 1.020856049252738984e+00
2.502520097101083585e-01 1.131505790736476058e+00
2.512925586067737416e-01 1.066053542566667289e+00
2.523331075034391247e-01 1.208210522118744024e+00
2.533736564001045077e-01 1.364779902953682011e+00
2.544142052967698908e-01 1.374893250498917752e+00
2.554547541934352739e-01 1.549966095380508335e+00
2.564953030901006570e-01 1.482060285082859252e+00
2.575358519867660401e-01 1.617563713030019557e+00
2.585764008834314231e-01 1.597552695273773082e+00
2.596169497800968062e-01 1.521092457119827657e+00
2.606574986767621893e-01 1.360658139678861289e+00
2.616980475734275724e-01 1.698959335474146570e+00
2.627385964700929555e-01 1.872018680459376583e+00
2.637791453667583386e-01 1.629080440605495284e+00
2.648196942634237216e-01 1.775991719525404022e+00
2.658602431600891047e-01 1.753464594868642479e+00
2.669007920567544878e-01 1.781430068776202802e+00
2.679413409534198709e-01 1.692399384484673419e+00
2.689818898500852540e-01 1.671243947049831036e+00
2.700224387467506371e-01 1.626282554499137945e+00
2.710629876434160201e-01 1.325168357959146448e+00
2.721035365400814032e-01 1.640455090915338587e+00
2.731440854367467863e-01 1.932684223182860705e+00
2.741846343334121694e-01 1.606279504288067983e+00
2.752251832300775525e-01 1.509697358723325777e+00
2.762657321267429356e-01 1.428850445713557349e+00
2.773062810234083186e-01 1.521471232399818518e+00
2.783468299200737017e-01 1.480854394079017311e+00
2.793873788167390848e-01 1.445198864464696697e+00
2.804279277134044679e-01 1.303121139579470622e+00
2.814684766100698510e-01 1.484410689892090573e+00
2.825090255067352341e-01 1.214907790978728030e+00
2.835495744034006171e-01 8.522412534025676223e-01
2.845901233000660002e-01 7.270784230779412383e-01
2.856306721967313833e-01 7.608687987809474862e-01
2.866712210933967664e-01 1.005012909686779921e+00
2.877117699900621495e-01 1.113524572900438159e+00
2.887523188867275326e-01 1.073847387724708113e+00
2.897928677833929156e-01 1.132643882943622060e+00
2.908334166800582987e-01 1.089965685891506553e+00
2.918739655767236818e-01 1.017079551963743000e+00
2.929145144733890649e-01 8.761731042083198417e-01
2.939550633700544480e-01 9.972447870971450357e-01
2.949956122667198311e-01 9.792611343703470084e-01
2.960361611633852141e-01 9.551727740562796498e-01
2.970767100600505972e-01 7.155596880977341812e-01
2.981172589567159803e-01 8.766015018844832696e-01
2.991578078533813634e-01 8.176070849235230753e-01
3.001983567500468020e-01 4.413962704976199802e-01
3.012389056467121851e-01 4.590099760880086421e-01
3.022794545433775681e-01 5.333181873326218181e-01
3.033200034400429512e-01 6.673620913279663114e-01
3.043605523367083343e-01 2.345939285456601908e-01
3.054011012333737174e-01 1.683671369074346558e-01
3.064416501300391005e-01 4.402906046517713889e-01
3.074821990267044836e-01 2.300330487236301735e-01
3.085227479233698666e-01 4.048301028491785303e-01
3.095632968200352497e-01 4.663742023731600739e-01
3.106038457167006328e-01 1.620407184424159652e-01
3.116443946133660159e-01 9.994632460715990874e-02
3.126849435100313990e-01 2.436636805742367073e-01
3.137254924066967821e-01 2.965492526148452157e-01
3.147660413033621651e-01 2.675587758443285225e-01
3.158065902000275482e-01 2.884820016622064998e-01
3.168471390966929313e-01 3.441378776385377591e-01
3.178876879933583144e-01 4.169148217473797047e-01
3.189282368900236975e-01 4.484016147153511156e-01
3.199687857866890806e-01 6.566935603006811561e-01
3.210093346833544636e-01 4.932920483488167918e-01
3.220498835800198467e-01 3.030937435020533144e-01
3.230904324766852298e-01 4.432719984926265511e-01
3.241309813733506129e-01 3.554642401874481550e-01
3.251715302700159960e-01 2.568031470608787004e-01
3.262120791666813790e-01 2.410093926170517875e-01
3.272526280633467621e-01 2.559672528973528927e-01
3.282931769600121452e-01 3.751200191151333740e-01
3.293337258566775283e-01 3.160593368272657244e-01
3.303742747533429114e-01 3.488030497683780595e-01
3.314148236500082945e-01 3.205000520624459170e-01
3.324553725466736775e-01 1.734430856188957648e-01
3.334959214433390606e-01 2.689104069267571617e-01
3.345364703400044437e-01 5.656325564570607867e-01
3.355770192366698268e-01 7.560581891374198449e-01
3.366175681333352099e-01 6.769332121731181928e-01
3.376581170300005930e-01 3.398173388966050368e-01
3.386986659266659760e-01 2.343160716229277796e-01
3.397392148233313591e-01 2.801306811604789004e-01
3.407797637199967422e-01 4.177636444863033205e-01
3.418203126166621253e-01 5.424202748597011237e-01
3.428608615133275084e-01 6.288865265876850685e-01
3.439014104099928915e-01 5.247094878856870537e-01
3.449419593066582745e-01 5.857796450455694526e-01
3.459825082033236576e-01 7.741559808331182069e-01
3.470230570999890407e-01 7.317428627539293018e-01
3.480636059966544238e-01 6.551848696696360719e-01
3.491041548933198069e-01 6.878751161448946050e-01
3.501447037899851900e-01 6.976032751702661017e-01
3.511852526866505730e-01 7.127278925043789570e-01
3.522258015833159561e-01 6.279006285982191571e-01
3.532663504799813392e-01 5.302204939985593057e-01
3.543068993766467223e-01 2.332371612029646712e-01
3.553474482733121054e-01 3.977862515446588532e-01
3.563879971699774885e-01 4.658778828591358945e-01
3.574285460666428715e-01 6.038487170180175667e-01
3.584690949633082546e-01 6.516097049735947166e-01
3.595096438599736377e-01 5.578149422035671989e-01
3.605501927566390208e-01 5.161902421022261933e-01
3.615907416533044039e-01 6.569132203110754631e-01
3.626312905499697870e-01 6.939237454963809171e-01
3.636718394466351700e-01 6.663286635636715971e-01
3.647123883433005531e-01 6.930834129749001704e-01
3.657529372399659362e-01 6.746134606316402937e-01
3.667934861366313193e-01 6.287571084630734219e-01
3.678340350332967024e-01 6.987153884982610919e-01
3.688745839299620854e-01 7.024205269720376066e-01
3.699151328266274685e-01 7.737836805259270534e-01
3.709556817232928516e-01 8.589572123061444131e-01
3.719962306199582347e-01 8.728037064345741669e-01
3.730367795166236178e-01 5.283089678430599179e-01
3.740773284132890009e-01 2.228434696454435482e-01
3.751178773099543839e-01 5.397394801900041728e-01
3.761584262066197670e-01 6.012790513227663780e-01
3.771989751032851501e-01 4.517186533856367703e-01
3.782395239999505332e-01 3.644860770030895480e-01
3.792800728966159163e-01 4.641881001655079331e-01
3.803206217932812994e-01 7.096062883324023574e-01
3.813611706899466824e-01 6.280194387872910511e-01
3.824017195866120655e-01 6.206512295329282836e-01
3.834422684832774486e-01 5.201723157399626984e-01
3.844828173799428317e-01 4.827530862015763091e-01
3.855233662766082148e-01 4.186784903234936905e-01
3.865639151732735979e-01 3.884989405981080779e-01
3.876044640699389809e-01 5.852650199080819959e-01
3.886450129666043640e-01 6.321794444383144196e-01
3.896855618632697471e-01 5.683427143787262992e-01
3.907261107599351302e-01 3.791628695786641856e-01
3.917666596566005133e-01 3.075367122928263086e-01
3.928072085532658964e-01 2.098357040725673528e-01
3.938477574499312794e-01 1.815579599123289256e-01
3.948883063465966625e-01 4.853535826316353052e-01
3.959288552432620456e-01 4.076616786029596540e-01
3.969694041399274287e-01 3.635755395868009998e-01
3.980099530365928118e-01 5.491051711337284758e-01
3.990505019332581949e-01 6.309958006888258808e-01
4.000910508299235779e-01 4.986409992276215064e-01
4.011315997265889610e-01 3.657986137542117433e-01
4.021721486232543441e-01 3.430818260658234919e-01
4.032126975199197272e-01 3.925592798252282023e-01
4.042532464165851103e-01 4.863960844126609118e-01
4.052937953132504934e-01 4.761699670780927818e-01
4.063343442099158764e-01 4.362122376200900931e-01
4.073748931065812595e-01 5.488947617523471934e-01
4.084154420032466426e-01 5.234600583128745654e-01
4.094559908999120257e-01 4.175909834914968144e-01
4.104965397965774088e-01 3.075744966988374074e-01
4.115370886932427918e-01 2.905596507651218019e-01
4.125776375899081749e-01 3.856670419596532895e-01
4.136181864865735580e-01 2.043915434513046137e-01
4.146587353832389411e-01 2.017063868229520551e-01
4.156992842799043242e-01 1.055457689920302755e-02
4.167398331765697073e-01 0.000000000000000000e+00
4.177803820732350903e-01 4.476847809843675918e-02
4.188209309699004734e-01 2.771840660753710495e-01
4.198614798665658565e-01 4.277083452520038520e-01
4.209020287632312396e-01 3.202066605713014269e-01
4.219425776598966227e-01 4.138650225265472216e-01
4.229831265565620058e-01 3.841377280353519552e-01
4.240236754532273888e-01 4.316864269751796712e-01
4.250642243498927719e-01 3.773684267953925087e-01
4.261047732465581550e-01 5.624913017610104760e-01
4.271453221432235381e-01 5.403011662211660848e-01
4.281858710398889212e-01 4.475349538131041527e-01
4.292264199365543043e-01 5.618288157954651751e-01
4.302669688332196873e-01 4.166788104574798979e-01
4.313075177298850704e-01 2.792789212287800638e-01
4.323480666265504535e-01 3.546894348838272037e-01
4.333886155232158366e-01 4.046096510716097328e-01
4.344291644198812197e-01 2.035580542876687105e-01
