# q (1/Angstrom), Intensity (arb)
2.029070354705860696e-02 1.274447208550427604e+03
2.133125244372399004e-02 1.267613362593062902e+03
2.237180134038937659e-02 1.264176822334820145e+03
2.341235023705475968e-02 1.252964709443167976e+03
2.445289913372014276e-02 1.243017641231371499e+03
2.549344803038552584e-02 1.238701711099598469e+03
2.653399692705091240e-02 1.224402060524151466e+03
2.757454582371629548e-02 1.208788646226682204e+03
2.861509472038167856e-02 1.199503051427183664e+03
2.965564361704706164e-02 1.183309179221608701e+03
3.069619251371244473e-02 1.164209336349974137e+03
3.173674141037782781e-02 1.147390302172377687e+03
3.277729030704321089e-02 1.131333150303904858e+03
3.381783920370859398e-02 1.115486844610939897e+03
3.485838810037397706e-02 1.099485090156935939e+03
3.589893699703936014e-02 1.081296964019630423e+03
3.693948589370474322e-02 1.063741899830923330e+03
3.798003479037012631e-02 1.042401911515630673e+03
3.902058368703550939e-02 1.028423111064737213e+03
4.006113258370089247e-02 1.006591125518493072e+03
4.110168148036627556e-02 9.852015133231910795e+02
4.214223037703165864e-02 9.612221668371786336e+02
4.318277927369704866e-02 9.399434742132369820e+02
4.422332817036243174e-02 9.232224222754206266e+02
4.526387706702781483e-02 9.036882968957972935e+02
4.630442596369319791e-02 8.803259960704663172e+02
4.734497486035858099e-02 8.575200664880685508e+02
4.838552375702396408e-02 8.374882998920111277e+02
4.942607265368934716e-02 8.168694871038313750e+02
5.046662155035473024e-02 7.973434829941996895e+02
5.150717044702011332e-02 7.762316312527599393e+02
5.254771934368549641e-02 7.566408868645361281e+02
5.358826824035087949e-02 7.321004326617282914e+02
5.462881713701626257e-02 7.121592824858879567e+02
5.566936603368164566e-02 6.929814770203313401e+02
5.670991493034702874e-02 6.727369864332379166e+02
5.775046382701241182e-02 6.526330559833482994e+02
5.879101272367779490e-02 6.318700120248379335e+02
5.983156162034317799e-02 6.117148460311349254e+02
6.087211051700856107e-02 5.909135502699009521e+02
6.191265941367394415e-02 5.712745956652260020e+02
6.295320831033933417e-02 5.516408783639720923e+02
6.399375720700471726e-02 5.321392771414288063e+02
6.503430610367010034e-02 5.124395043727114398e+02
6.607485500033548342e-02 4.945610223324636650e+02
6.711540389700086651e-02 4.772605583971151759e+02
6.815595279366624959e-02 4.570616765558294219e+02
6.919650169033163267e-02 4.367898045826789826e+02
7.023705058699701576e-02 4.201910915360840022e+02
7.127759948366239884e-02 4.042889466751642544e+02
7.231814838032778192e-02 3.874741433666728767e+02
7.335869727699316500e-02 3.701264872492530458e+02
7.439924617365854809e-02 3.544754711928528650e+02
7.543979507032393117e-02 3.381708185601935384e+02
7.648034396698931425e-02 3.238391330205906229e+02
7.752089286365469734e-02 3.081330665812525353e+02
7.856144176032008042e-02 2.928246707859883600e+02
7.960199065698546350e-02 2.793956132050248016e+02
8.064253955365084658e-02 2.658409092838992933e+02
8.168308845031622967e-02 2.521600299986879463e+02
8.272363734698161275e-02 2.400446975754163645e+02
8.376418624364699583e-02 2.288725875969630579e+02
8.480473514031239279e-02 2.144429720542658515e+02
8.584528403697777588e-02 2.013211888901477948e+02
8.688583293364315896e-02 1.913537081900740873e+02
8.792638183030854204e-02 1.797986266838960319e+02
8.896693072697392513e-02 1.688764676858704945e+02
9.000747962363930821e-02 1.596568565590170010e+02
9.104802852030469129e-02 1.495576525882218846e+02
9.208857741697007437e-02 1.400955909688854035e+02
9.312912631363545746e-02 1.310242688309624839e+02
9.416967521030084054e-02 1.222806001204514956e+02
9.521022410696622362e-02 1.141512373698745648e+02
9.625077300363160671e-02 1.062963978205725084e+02
9.729132190029698979e-02 9.817571002481216169e+01
9.833187079696237287e-02 9.105737756035723862e+01
9.937241969362775595e-02 8.440415873814337999e+01
1.004129685902931390e-01 7.821797329351636563e+01
1.014535174869585221e-01 7.265375650413801623e+01
1.024940663836239052e-01 6.687774105606935393e+01
1.035346152802892883e-01 6.112683400565074976e+01
1.045751641769546714e-01 5.609425806959129801e+01
1.056157130736200545e-01 5.057375071758218610e+01
1.066562619702854375e-01 4.623074845790428355e+01
1.076968108669508206e-01 4.241803344459710701e+01
1.087373597636162037e-01 3.838304414004712584e+01
1.097779086602815868e-01 3.468090747042491273e+01
1.108184575569469699e-01 3.063485938928364760e+01
1.118590064536123529e-01 2.702206794504157727e+01
1.128995553502777360e-01 2.385338282082265238e+01
1.139401042469431191e-01 2.131799917006880918e+01
1.149806531436085022e-01 1.914830415615203663e+01
1.160212020402738853e-01 1.692272361486093502e+01
1.170617509369392684e-01 1.481003046342090812e+01
1.181022998336046514e-01 1.262880373955316315e+01
1.191428487302700345e-01 1.068041807229862883e+01
1.201833976269354176e-01 9.750950652206157088e+00
1.212239465236008007e-01 8.322437248943451493e+00
1.222644954202661838e-01 6.799036113246778257e+00
1.233050443169315669e-01 5.723281516396589552e+00
1.243455932135969499e-01 4.534756777991006516e+00
1.253861421102623330e-01 4.262129822140913404e+00
1.264266910069277161e-01 3.543469784153082003e+00
1.274672399035930992e-01 3.122708545583257944e+00
1.285077888002584823e-01 2.283918373312452843e+00
1.295483376969238654e-01 2.511786429898400286e+00
1.305888865935892484e-01 2.164112898934718032e+00
1.316294354902546315e-01 1.713257956594432585e+00
1.326699843869200146e-01 1.500803462536019595e+00
1.337105332835853977e-01 1.365423622281028315e+00
1.347510821802507808e-01 1.352581991439542719e+00
1.357916310769161639e-01 1.445653611479016831e+00
1.368321799735815469e-01 1.483243178747066793e+00
1.378727288702469300e-01 1.817433231674947081e+00
1.389132777669123131e-01 2.298733603915060542e+00
1.399538266635776962e-01 2.843081311226526964e+00
1.409943755602430793e-01 3.287584702483300703e+00
1.420349244569084624e-01 3.335059255706923409e+00
1.430754733535738454e-01 3.881379756511542212e+00
1.441160222502392285e-01 4.197606093187907561e+00
1.451565711469046116e-01 4.207622550482611246e+00
1.461971200435699947e-01 4.866119427075759063e+00
1.472376689402353778e-01 4.831395698058329913e+00
1.482782178369007609e-01 5.659052268344247238e+00
1.493187667335661439e-01 6.072249287315386823e+00
1.503593156302315270e-01 6.592595699012186117e+00
1.513998645268969101e-01 6.679992742645843862e+00
1.524404134235622932e-01 6.837164376191992687e+00
1.534809623202276763e-01 7.075799305971472108e+00
1.545215112168930593e-01 7.770888725552161702e+00
1.555620601135584424e-01 8.387244419487082325e+00
1.566026090102238255e-01 8.695712600905160627e+00
1.576431579068892086e-01 8.615825078203457110e+00
1.586837068035545917e-01 9.183596673442181668e+00
1.597242557002199748e-01 9.296685938449414266e+00
1.607648045968853578e-01 9.571254543768056067e+00
1.618053534935507409e-01 9.736912524598231755e+00
1.628459023902161240e-01 9.592811876459727216e+00
1.638864512868815071e-01 9.692863621788703199e+00
1.649270001835468902e-01 9.734456689511468142e+00
1.659675490802122733e-01 9.897265910910157061e+00
1.670080979768776563e-01 1.027651268620788017e+01
1.680486468735430672e-01 1.076225648365860366e+01
1.690891957702084503e-01 1.064821001259913658e+01
1.701297446668738333e-01 1.020894473151495419e+01
1.711702935635392164e-01 9.992789274695937252e+00
1.722108424602045995e-01 1.011617862255594247e+01
1.732513913568699826e-01 1.009736724603114055e+01
1.742919402535353657e-01 1.018190305072485558e+01
1.753324891502007488e-01 9.746977638030891455e+00
1.763730380468661318e-01 9.064647542850529760e+00
1.774135869435315149e-01 8.993864591245298357e+00
1.784541358401968980e-01 9.218170522417608481e+00
1.794946847368622811e-01 9.355203531205958711e+00
1.805352336335276642e-01 8.786665268951978192e+00
1.815757825301930473e-01 8.527427860129897397e+00
1.826163314268584303e-01 8.086274377800606317e+00
1.836568803235238134e-01 7.708305367039201883e+00
1.846974292201891965e-01 7.721590433152918820e+00
1.857379781168545796e-01 7.541792742607910327e+00
1.867785270135199627e-01 7.183008868291196336e+00
1.878190759101853458e-01 6.832995213604228013e+00
1.888596248068507288e-01 6.660215760966657683e+00
1.899001737035161119e-01 6.326360068822189930e+00
1.909407226001814950e-01 6.220761727110520667e+00
1.919812714968468781e-01 5.994641354943354372e+00
1.930218203935122612e-01 5.514339396631633861e+00
1.940623692901776443e-01 5.435072203770218380e+00
1.951029181868430273e-01 5.346426505294267884e+00
1.961434670835084104e-01 5.082056009240190519e+00
1.971840159801737935e-01 4.385621813920764112e+00
1.982245648768391766e-01 3.983428210514652790e+00
1.992651137735045597e-01 3.906673347196118584e+00
2.003056626701699428e-01 4.151661691912188701e+00
2.013462115668353813e-01 3.424637075418644372e+00
2.023867604635007644e-01 2.844468241588870683e+00
2.034273093601661475e-01 2.854402495579321908e+00
2.044678582568315306e-01 2.718211975633735733e+00
2.055084071534969137e-01 2.611521588478140643e+00
2.065489560501622968e-01 2.264916434169407466e+00
2.075895049468276798e-01 2.157236478194079154e+00
2.086300538434930629e-01 2.146741748058605737e+00
2.096706027401584460e-01 1.934118165414751900e+00
2.107111516368238291e-01 1.592334713561541548e+00
2.117517005334892122e-01 1.395023316837544769e+00
2.127922494301545953e-01 1.359183123419462902e+00
2.138327983268199783e-01 1.313555321703798739e+00
2.148733472234853614e-01 1.483556022431120169e+00
2.159138961201507445e-01 1.237588604391802960e+00
2.169544450168161276e-01 9.678965122215359429e-01
2.179949939134815107e-01 8.910510186405282695e-01
2.190355428101468938e-01 7.659397654852249104e-01
2.200760917068122768e-01 4.879356338172939900e-01
2.211166406034776599e-01 3.685863800535003065e-01
2.221571895001430430e-01 4.619948899661636688e-01
2.231977383968084261e-01 3.662301062102812921e-01
2.242382872934738092e-01 5.567299966985501669e-01
2.252788361901391923e-01 4.046455490256235521e-01
2.263193850868045753e-01 5.017992089810441314e-01
2.273599339834699584e-01 5.372403881766629752e-01
2.284004828801353415e-01 4.417305612540260995e-01
2.294410317768007246e-01 4.786984949063075589e-01
2.304815806734661077e-01 5.818235614198208339e-01
2.315221295701314908e-01 5.041867585028043663e-01
2.325626784667968738e-01 6.077327730363428770e-01
2.336032273634622569e-01 4.711109213942101803e-01
2.346437762601276400e-01 4.132099681371030897e-01
2.356843251567930231e-01 6.111172611875410610e-01
2.367248740534584062e-01 4.682904133253842360e-01
2.377654229501237892e-01 6.337249916935299154e-01
2.388059718467891723e-01 1.071691332918671691e+00
2.398465207434545554e-01 8.304875009321506241e-01
2.408870696401199385e-01 7.012806389911574456e-01
2.419276185367853216e-01 1.047727636283781294e+00
2.429681674334507047e-01 1.014017454410137020e+00
2.440087163301160877e-01 1.188309010992281145e+00
2.450492652267814708e-01 1.026858000962523221e+00
2.460898141234468539e-01 1.241572471907151254e+00
2.471303630201122370e-01 1.196089096185634304e+00
2.481709119167776201e-01 1.142545500393538305e+00
2.492114608134430032e-01 1.326808222994021236e+00
2.502520097101083585e-01 9.974538751919439505e-01
2.512925586067737416e-01 9.838467572575488873e-01
2.523331075034391247e-01 1.314907067948929864e+00
2.533736564001045077e-01 1.266736072522657963e+00
2.544142052967698908e-01 1.285906475635869128e+00
2.554547541934352739e-01 1.236384516075140994e+00
2.564953030901006570e-01 1.189201948328907577e+00
2.575358519867660401e-01 1.209432686855191008e+00
2.585764008834314231e-01 1.201201349139349617e+00
2.596169497800968062e-01 1.417785628255089136e+00
2.606574986767621893e-01 1.484321335083969018e+00
2.616980475734275724e-01 1.573967056492218575e+00
2.627385964700929555e-01 1.399600411420834689e+00
2.637791453667583386e-01 1.368704073239996433e+00
2.648196942634237216e-01 1.379750334814517032e+00
2.658602431600891047e-01 1.548651855042674441e+00
2.669007920567544878e-01 1.542792144728302617e+00
2.679413409534198709e-01 1.658900237182592718e+00
2.689818898500852540e-01 1.664345351555930108e+00
2.700224387467506371e-01 1.410367594754280418e+00
2.710629876434160201e-01 1.282692158018679862e+00
2.721035365400814032e-01 1.550087916113493947e+00
2.731440854367467863e-01 1.721441506017427514e+00
2.741846343334121694e-01 1.720366681527458752e+00
2.752251832300775525e-01 1.631124386339312338e+00
2.762657321267429356e-01 1.303151174210487540e+00
2.773062810234083186e-01 1.364596423183407126e+00
2.783468299200737017e-01 1.346263628935915335e+00
2.793873788167390848e-01 1.575584964869573668e+00
2.804279277134044679e-01 1.624986087035821924e+00
2.814684766100698510e-01 1.585297221230597131e+00
2.825090255067352341e-01 1.287559680978180410e+00
2.835495744034006171e-01 1.183575163165869526e+00
2.845901233000660002e-01 1.083688530941714134e+00
2.856306721967313833e-01 9.658617192327376699e-01
2.866712210933967664e-01 9.476390128056557671e-01
2.877117699900621495e-01 1.116179609889943691e+00
2.887523188867275326e-01 1.386503562637802389e+00
2.897928677833929156e-01 1.198234995395587532e+00
2.908334166800582987e-01 9.103695887014247035e-01
2.918739655767236818e-01 7.330646015617539035e-01
2.929145144733890649e-01 8.025271818354049458e-01
2.939550633700544480e-01 5.195760892244614126e-01
2.949956122667198311e-01 5.919408781702095723e-01
2.960361611633852141e-01 9.036102266165357833e-01
2.970767100600505972e-01 8.607815705643560023e-01
2.981172589567159803e-01 7.338229082605352005e-01
2.991578078533813634e-01 6.495062397677990873e-01
3.001983567500468020e-01 5.445934816267090639e-01
3.012389056467121851e-01 4.919408426473417251e-01
3.022794545433775681e-01 5.706492701447984928e-01
3.033200034400429512e-01 5.741745365110695332e-01
3.043605523367083343e-01 7.532725641064139666e-01
3.054011012333737174e-01 7.859702960680863271e-01
3.064416501300391005e-01 6.287636948669010906e-01
3.074821990267044836e-01 2.820450237113689695e-01
3.085227479233698666e-01 1.773059622025066062e-01
3.095632968200352497e-01 4.205939347956686447e-01
3.106038457167006328e-01 3.874565584079441294e-01
3.116443946133660159e-01 3.483046638557674157e-01
3.126849435100313990e-01 4.325665717438411662e-01
3.137254924066967821e-01 4.114444934261811682e-01
3.147660413033621651e-01 4.655324900694317591e-01
3.158065902000275482e-01 4.207702967465749566e-01
3.168471390966929313e-01 3.993856004173714780e-01
3.178876879933583144e-01 0.000000000000000000e+00
3.189282368900236975e-01 2.263703863517463333e-02
3.199687857866890806e-01 1.644897603370942818e-01
3.210093346833544636e-01 3.274452045819700174e-01
3.220498835800198467e-01 3.526323279724579152e-01
3.230904324766852298e-01 6.509970427613964716e-02
3.241309813733506129e-01 5.778873772246484464e-02
3.251715302700159960e-01 3.022120486199142420e-01
3.262120791666813790e-01 4.402119217693218900e-01
3.272526280633467621e-01 4.863352935367970531e-01
3.282931769600121452e-01 4.244851550158372788e-01
3.293337258566775283e-01 1.430849822303272845e-01
3.303742747533429114e-01 2.308527889451035264e-01
3.314148236500082945e-01 5.661520606293350966e-01
3.324553725466736775e-01 3.769307204913872056e-01
3.334959214433390606e-01 2.380559009473728338e-01
3.345364703400044437e-01 2.714202167112524933e-01
3.355770192366698268e-01 4.272951582093362788e-01
3.366175681333352099e-01 4.740066132914364516e-01
3.376581170300005930e-01 5.870841232407926213e-01
3.386986659266659760e-01 5.790651521468284102e-01
3.397392148233313591e-01 6.971191232231355173e-01
3.407797637199967422e-01 5.784923352401563079e-01
3.418203126166621253e-01 6.232590804853082034e-01
3.428608615133275084e-01 6.305047707582502881e-01
3.439014104099928915e-01 5.848490454830361784e-01
3.449419593066582745e-01 7.441421994354371350e-01
3.459825082033236576e-01 6.672103259497532690e-01
3.470230570999890407e-01 7.704530720506745922e-01
3.480636059966544238e-01 5.512459768428499274e-01
3.491041548933198069e-01 6.596712555642518794e-01
3.501447037899851900e-01 6.825588957704162851e-01
3.511852526866505730e-01 6.638761548128115919e-01
3.522258015833159561e-01 7.013605864941396817e-01
3.532663504799813392e-01 6.946059854219193141e-01
3.543068993766467223e-01 4.999713936860636920e-01
3.553474482733121054e-01 5.029735947266793517e-01
3.563879971699774885e-01 5.677481683713700988e-01
3.574285460666428715e-01 6.220308392923641350e-01
3.584690949633082546e-01 5.365742194233718010e-01
3.595096438599736377e-01 4.596359802429361707e-01
3.605501927566390208e-01 4.407572419787264550e-01
3.615907416533044039e-01 3.918266049068499512e-01
3.626312905499697870e-01 3.363966139929033261e-01
3.636718394466351700e-01 4.668176685901421763e-01
3.647123883433005531e-01 5.543480220732810437e-01
3.657529372399659362e-01 6.692019866447829202e-01
3.667934861366313193e-01 4.999196567393795476e-01
3.678340350332967024e-01 4.817072713171874909e-01
3.688745839299620854e-01 7.748467279715818279e-01
3.699151328266274685e-01 7.021807012053002950e-01
3.709556817232928516e-01 7.003950092322135390e-01
3.719962306199582347e-01 7.172703989582913664e-01
3.730367795166236178e-01 5.528593870970084367e-01
3.740773284132890009e-01 3.489208075394252262e-01
3.751178773099543839e-01 3.377295944146432305e-01
3.761584262066197670e-01 5.064701152151407371e-01
3.771989751032851501e-01 6.124765329444556983e-01
3.782395239999505332e-01 4.033777604144255235e-01
3.792800728966159163e-01 4.752389792897240284e-01
3.803206217932812994e-01 5.510186092946796066e-01
3.813611706899466824e-01 5.950013121585620013e-01
3.824017195866120655e-01 4.957842136538950228e-01
3.834422684832774486e-01 5.742918139255692722e-01
3.844828173799428317e-01 6.455170414498567766e-01
3.855233662766082148e-01 6.602105942960392326e-01
3.865639151732735979e-01 4.115198571791438553e-01
3.876044640699389809e-01 3.398350585136107327e-01
3.886450129666043640e-01 3.747025066604976473e-01
3.896855618632697471e-01 5.590109713507587230e-01
3.907261107599351302e-01 6.554919511700525447e-01
3.917666596566005133e-01 6.759651186004198564e-01
3.928072085532658964e-01 6.609589972914662326e-01
3.938477574499312794e-01 5.007970098546898896e-01
3.948883063465966625e-01 3.986388087269716607e-01
3.959288552432620456e-01 4.279986691680512934e-01
3.969694041399274287e-01 3.248660493109234437e-01
3.980099530365928118e-01 4.786315336344237892e-01
3.990505019332581949e-01 5.002815156343842773e-01
4.000910508299235779e-01 3.966207937901700120e-01
4.011315997265889610e-01 5.554913056102606106e-01
4.021721486232543441e-01 4.472166299034512349e-01
4.032126975199197272e-01 3.551369943011977170e-01
4.042532464165851103e-01 1.906360726654767745e-01
4.052937953132504934e-01 1.936990484437757232e-01
4.063343442099158764e-01 2.525733132238983103e-01
4.073748931065812595e-01 1.777211599476409276e-01
4.084154420032466426e-01 3.137095546523589462e-01
4.094559908999120257e-01 4.418280123570959006e-01
4.104965397965774088e-01 4.791932053367240485e-01
4.115370886932427918e-01 3.210023360294051997e-01
4.125776375899081749e-01 2.098024622794234517e-01
4.136181864865735580e-01 1.601485969666072151e-01
4.146587353832389411e-01 1.913233338326669752e-01
4.156992842799043242e-01 3.622188522577758363e-01
4.167398331765697073e-01 2.237509989389003806e-01
4.177803820732350903e-01 3.489362983816377550e-01
4.188209309699004734e-01 5.567970775707244968e-01
4.198614798665658565e-01 5.603524466352283184e-01
4.209020287632312396e-01 5.638767111891880290e-01
4.219425776598966227e-01 5.153564531101118007e-01
4.229831265565620058e-01 3.100952226148336877e-01
4.240236754532273888e-01 3.933278945168225960e-01
4.250642243498927719e-01 3.440093676969979697e-01
4.261047732465581550e-01 2.662877832770362829e-01
4.271453221432235381e-01 3.220530679650863704e-01
4.281858710398889212e-01 1.041038651187591313e-01
4.292264199365543043e-01 2.768878036250370656e-01
4.302669688332196873e-01 1.035696656832651996e+00
4.313075177298850704e-01 9.245131687605017135e-01
4.323480666265504535e-01 5.209548008169875288e-01
4.333886155232158366e-01 4.056213701371902403e-01
4.344291644198812197e-01 4.843654866076754217e-01
