# q (1/Angstrom), Intensity (arb)
2.029070354705860696e-02 1.425707393940176416e+03
2.133125244372399004e-02 1.417943221494538420e+03
2.237180134038937659e-02 1.411582898779199468e+03
2.341235023705475968e-02 1.401774977948295145e+03
2.445289913372014276e-02 1.391256653281393483e+03
2.549344803038552584e-02 1.383185181550071547e+03
2.653399692705091240e-02 1.372557093928633549e+03
2.757454582371629548e-02 1.361229175723172602e+03
2.861509472038167856e-02 1.345978678979617371e+03
2.965564361704706164e-02 1.332250004719656317e+03
3.069619251371244473e-02 1.309876453848861956e+03
3.173674141037782781e-02 1.291348734578434915e+03
3.277729030704321089e-02 1.271863145633082695e+03
3.381783920370859398e-02 1.254827270651270055e+03
3.485838810037397706e-02 1.233439286201183677e+03
3.589893699703936014e-02 1.211990354294701774e+03
3.693948589370474322e-02 1.194531372610501194e+03
3.798003479037012631e-02 1.172797741483541813e+03
3.902058368703550939e-02 1.151057888188407787e+03
4.006113258370089247e-02 1.130003312930068205e+03
4.110168148036627556e-02 1.104485080779333430e+03
4.214223037703165864e-02 1.080350161963640858e+03
4.318277927369704866e-02 1.058593005688429685e+03
4.422332817036243174e-02 1.039551569044897178e+03
4.526387706702781483e-02 1.015528468314347947e+03
4.630442596369319791e-02 9.900743253202006144e+02
4.734497486035858099e-02 9.679976926033584732e+02
4.838552375702396408e-02 9.445742956150211285e+02
4.942607265368934716e-02 9.199698801855176953e+02
5.046662155035473024e-02 8.953449176636574975e+02
5.150717044702011332e-02 8.721440032098101938e+02
5.254771934368549641e-02 8.474332895476992462e+02
5.358826824035087949e-02 8.254959646579438868e+02
5.462881713701626257e-02 8.028156816989345543e+02
5.566936603368164566e-02 7.791139344539072908e+02
5.670991493034702874e-02 7.549232604158072490e+02
5.775046382701241182e-02 7.326940442046660564e+02
5.879101272367779490e-02 7.100425495853107805e+02
5.983156162034317799e-02 6.869412093894238751e+02
6.087211051700856107e-02 6.652496158857239834e+02
6.191265941367394415e-02 6.423630994123122946e+02
6.295320831033933417e-02 6.201866949870521921e+02
6.399375720700471726e-02 5.992681103197605808e+02
6.503430610367010034e-02 5.769786302826540805e+02
6.607485500033548342e-02 5.552400518884481926e+02
6.711540389700086651e-02 5.348098429403931959e+02
6.815595279366624959e-02 5.179076813271078663e+02
6.919650169033163267e-02 4.981569685722091094e+02
7.023705058699701576e-02 4.760950087788473866e+02
7.127759948366239884e-02 4.555879853349126165e+02
7.231814838032778192e-02 4.379155051423317104e+02
7.335869727699316500e-02 4.197556196733122533e+02
7.439924617365854809e-02 4.014719858360963372e+02
7.543979507032393117e-02 3.835647902811967924e+02
7.648034396698931425e-02 3.665694338767760883e+02
7.752089286365469734e-02 3.497479039606476476e+02
7.856144176032008042e-02 3.326823237256514858e+02
7.960199065698546350e-02 3.155403059635705176e+02
8.064253955365084658e-02 2.998556526178780359e+02
8.168308845031622967e-02 2.854964480076973814e+02
8.272363734698161275e-02 2.713917285899914305e+02
8.376418624364699583e-02 2.584225399998800299e+02
8.480473514031239279e-02 2.440105251537142408e+02
8.584528403697777588e-02 2.297740376762252765e+02
8.688583293364315896e-02 2.169065348662465738e+02
8.792638183030854204e-02 2.047125235172878206e+02
8.896693072697392513e-02 1.931093334624496833e+02
9.000747962363930821e-02 1.817048425882375113e+02
9.104802852030469129e-02 1.706566757801857648e+02
9.208857741697007437e-02 1.594433672696827955e+02
9.312912631363545746e-02 1.490703716821577700e+02
9.416967521030084054e-02 1.392767317291067855e+02
9.521022410696622362e-02 1.294901298260877525e+02
9.625077300363160671e-02 1.212708216577683800e+02
9.729132190029698979e-02 1.132419319137618743e+02
9.833187079696237287e-02 1.039665702910267413e+02
9.937241969362775595e-02 9.673988158972713336e+01
1.004129685902931390e-01 9.000937055545320220e+01
1.014535174869585221e-01 8.289981931959484029e+01
1.024940663836239052e-01 7.581924657532239564e+01
1.035346152802892883e-01 7.022572875900701206e+01
1.045751641769546714e-01 6.436191567437691674e+01
1.056157130736200545e-01 5.910955053605211162e+01
1.066562619702854375e-01 5.374340499169743168e+01
1.076968108669508206e-01 4.841972588233669228e+01
1.087373597636162037e-01 4.372128795873746299e+01
1.097779086602815868e-01 3.968436328102492894e+01
1.108184575569469699e-01 3.597913733902034039e+01
1.118590064536123529e-01 3.224384190862372179e+01
1.128995553502777360e-01 2.869285942137650380e+01
1.139401042469431191e-01 2.484282520693761853e+01
1.149806531436085022e-01 2.180741207490578049e+01
1.160212020402738853e-01 1.950238786187620832e+01
1.170617509369392684e-01 1.685177137771370326e+01
1.181022998336046514e-01 1.527345733991932164e+01
1.191428487302700345e-01 1.337100429329893103e+01
1.201833976269354176e-01 1.152925839781890716e+01
1.212239465236008007e-01 9.892130541575799185e+00
1.222644954202661838e-01 8.600487757956798873e+00
1.233050443169315669e-01 7.152945188271186083e+00
1.243455932135969499e-01 6.182251237059883664e+00
1.253861421102623330e-01 5.251341397132506472e+00
1.264266910069277161e-01 4.882128195969109186e+00
1.274672399035930992e-01 4.373694642749839545e+00
1.285077888002584823e-01 3.584171061648735446e+00
1.295483376969238654e-01 3.335539075040763635e+00
1.305888865935892484e-01 3.543724802915789951e+00
1.316294354902546315e-01 2.941315417772855767e+00
1.326699843869200146e-01 2.380660750350283905e+00
1.337105332835853977e-01 2.708190068373362180e+00
1.347510821802507808e-01 2.298507294270880408e+00
1.357916310769161639e-01 2.515765590559709608e+00
1.368321799735815469e-01 2.929727348911324469e+00
1.378727288702469300e-01 2.869815674061889865e+00
1.389132777669123131e-01 3.235129773226486094e+00
1.399538266635776962e-01 3.637559906707778623e+00
1.409943755602430793e-01 4.079444234980357464e+00
1.420349244569084624e-01 4.364617404833897041e+00
1.430754733535738454e-01 4.652987716889082748e+00
1.441160222502392285e-01 5.221748908585659876e+00
1.451565711469046116e-01 5.574989526292633002e+00
1.461971200435699947e-01 6.157687266762959410e+00
1.472376689402353778e-01 6.332039586009141630e+00
1.482782178369007609e-01 6.368045482097389964e+00
1.493187667335661439e-01 6.589286781304821261e+00
1.503593156302315270e-01 7.190563215098364935e+00
1.513998645268969101e-01 7.800564799180396136e+00
1.524404134235622932e-01 8.495623603188402484e+00
1.534809623202276763e-01 9.106272990711072879e+00
1.545215112168930593e-01 9.556153845078025455e+00
1.555620601135584424e-01 9.596723196798347288e+00
1.566026090102238255e-01 9.514718873788464037e+00
1.576431579068892086e-01 9.507543674186795357e+00
1.586837068035545917e-01 9.689605975842862762e+00
1.597242557002199748e-01 1.024094102794688155e+01
1.607648045968853578e-01 1.081845657694681151e+01
1.618053534935507409e-01 1.132596457404315871e+01
1.628459023902161240e-01 1.121881800048090483e+01
1.638864512868815071e-01 1.129475996273326643e+01
1.649270001835468902e-01 1.172300942309745864e+01
1.659675490802122733e-01 1.187517057321932867e+01
1.670080979768776563e-01 1.192009432214102205e+01
1.680486468735430672e-01 1.145596871402664263e+01
1.690891957702084503e-01 1.137538882705681687e+01
1.701297446668738333e-01 1.165099611119514122e+01
1.711702935635392164e-01 1.170975739842446117e+01
1.722108424602045995e-01 1.179821569858835417e+01
1.732513913568699826e-01 1.159588250327170655e+01
1.742919402535353657e-01 1.155419728125769296e+01
1.753324891502007488e-01 1.130293458475182788e+01
1.763730380468661318e-01 1.109110479005364169e+01
1.774135869435315149e-01 1.098398517549186337e+01
1.784541358401968980e-01 1.070357768199252035e+01
1.794946847368622811e-01 1.047025710400880882e+01
1.805352336335276642e-01 1.020359548308427122e+01
1.815757825301930473e-01 9.933341905588559229e+00
1.826163314268584303e-01 9.891739581215478694e+00
1.836568803235238134e-01 9.497539679212383845e+00
1.846974292201891965e-01 9.134719489758289512e+00
1.857379781168545796e-01 9.175618279608936945e+00
1.867785270135199627e-01 8.703445443582872088e+00
1.878190759101853458e-01 8.080410781870504877e+00
1.888596248068507288e-01 8.115548055049117693e+00
1.899001737035161119e-01 7.901255254419510266e+00
1.909407226001814950e-01 7.436122107068111831e+00
1.919812714968468781e-01 7.288756869947022210e+00
1.930218203935122612e-01 6.644611212625274987e+00
1.940623692901776443e-01 6.277568941207107400e+00
1.951029181868430273e-01 5.880718410836408339e+00
1.961434670835084104e-01 5.558972907197741620e+00
1.971840159801737935e-01 5.132238454859415100e+00
1.982245648768391766e-01 4.944369984583694588e+00
1.992651137735045597e-01 4.592080445703267344e+00
2.003056626701699428e-01 4.456303282227473517e+00
2.013462115668353813e-01 4.164865740653969084e+00
2.023867604635007644e-01 4.281087513366095720e+00
2.034273093601661475e-01 4.056439382172332131e+00
2.044678582568315306e-01 3.936288771388788632e+00
2.055084071534969137e-01 3.494235305663259794e+00
2.065489560501622968e-01 3.119292905476740430e+00
2.075895049468276798e-01 2.676033846459695553e+00
2.086300538434930629e-01 2.598897120841641595e+00
2.096706027401584460e-01 2.428384532181532052e+00
2.107111516368238291e-01 2.386054779571708195e+00
2.117517005334892122e-01 2.430430645204133100e+00
2.127922494301545953e-01 2.017548431746782001e+00
2.138327983268199783e-01 1.851475721671246077e+00
2.148733472234853614e-01 1.407009997555960013e+00
2.159138961201507445e-01 1.395960121847888757e+00
2.169544450168161276e-01 1.461511941499328060e+00
2.179949939134815107e-01 1.172832825396483258e+00
2.190355428101468938e-01 8.845823584604239898e-01
2.200760917068122768e-01 1.002546284994817682e+00
2.211166406034776599e-01 1.024119782840084980e+00
2.221571895001430430e-01 1.252553453868149091e+00
2.231977383968084261e-01 1.243847180955505394e+00
2.242382872934738092e-01 1.028213022223809503e+00
2.252788361901391923e-01 5.805010781568036293e-01
2.263193850868045753e-01 5.162540090840970208e-01
2.273599339834699584e-01 1.009031241559625869e+00
2.284004828801353415e-01 8.205276868948701008e-01
2.294410317768007246e-01 6.966963644086092700e-01
2.304815806734661077e-01 6.799577977066419976e-01
2.315221295701314908e-01 7.272214864732191586e-01
2.325626784667968738e-01 7.647775401695326991e-01
2.336032273634622569e-01 8.381251744794937508e-01
2.346437762601276400e-01 1.021045041082562221e+00
2.356843251567930231e-01 9.670846572809246311e-01
2.367248740534584062e-01 1.073897977077038490e+00
2.377654229501237892e-01 1.211822468110678841e+00
2.388059718467891723e-01 1.053639059962957703e+00
2.398465207434545554e-01 1.271934949884197863e+00
2.408870696401199385e-01 1.197029236316272005e+00
2.419276185367853216e-01 1.382367435493438990e+00
2.429681674334507047e-01 1.250487546389880578e+00
2.440087163301160877e-01 1.414515542768640444e+00
2.450492652267814708e-01 1.494634365210739446e+00
2.460898141234468539e-01 1.508529602717853635e+00
2.471303630201122370e-01 1.532555085031891196e+00
2.481709119167776201e-01 1.603583258800178157e+00
2.492114608134430032e-01 1.778967174579481281e+00
2.502520097101083585e-01 1.924449323881173513e+00
2.512925586067737416e-01 1.811348260431323354e+00
2.523331075034391247e-01 1.719819047190817685e+00
2.533736564001045077e-01 1.673004317019234577e+00
2.544142052967698908e-01 2.010489751281248516e+00
2.554547541934352739e-01 2.026317808198381698e+00
2.564953030901006570e-01 2.117372112776362059e+00
2.575358519867660401e-01 2.068731222300854711e+00
2.585764008834314231e-01 2.163873495674579317e+00
2.596169497800968062e-01 2.269376474720463222e+00
2.606574986767621893e-01 2.222916956307170011e+00
2.616980475734275724e-01 2.181708634945039194e+00
2.627385964700929555e-01 1.925072665705172881e+00
2.637791453667583386e-01 2.041616332236806386e+00
2.648196942634237216e-01 2.152570197128028440e+00
2.658602431600891047e-01 2.070632473091329473e+00
2.669007920567544878e-01 2.248066059339748790e+00
2.679413409534198709e-01 2.296480299366056244e+00
2.689818898500852540e-01 2.270605408940461700e+00
2.700224387467506371e-01 2.283379969949844934e+00
2.710629876434160201e-01 2.068820534776083520e+00
2.721035365400814032e-01 2.057735760685062587e+00
2.731440854367467863e-01 2.001581130709968903e+00
2.741846343334121694e-01 1.850294632584596144e+00
2.752251832300775525e-01 1.831374507265206120e+00
2.762657321267429356e-01 1.689904541638707514e+00
2.773062810234083186e-01 1.668190037871504217e+00
2.783468299200737017e-01 1.645263816806743051e+00
2.793873788167390848e-01 1.637041020920435130e+00
2.804279277134044679e-01 1.869295941062098620e+00
2.814684766100698510e-01 1.905316973201795605e+00
2.825090255067352341e-01 1.712541945385446240e+00
2.835495744034006171e-01 1.840391850960017450e+00
2.845901233000660002e-01 1.617143398933055920e+00
2.856306721967313833e-01 1.553891900313089991e+00
2.866712210933967664e-01 1.738199009225358083e+00
2.877117699900621495e-01 1.723126557014072802e+00
2.887523188867275326e-01 1.378246166011606988e+00
2.897928677833929156e-01 1.220325041853850934e+00
2.908334166800582987e-01 1.224497628120907677e+00
2.918739655767236818e-01 1.044724464593347335e+00
2.929145144733890649e-01 1.141714778076739378e+00
2.939550633700544480e-01 1.191059744717012592e+00
2.949956122667198311e-01 1.187476097281944476e+00
2.960361611633852141e-01 1.353939776842214116e+00
2.970767100600505972e-01 1.324886686047545226e+00
2.981172589567159803e-01 9.513254939704118840e-01
2.991578078533813634e-01 8.167979997364724909e-01
3.001983567500468020e-01 8.907542534093479958e-01
3.012389056467121851e-01 7.230327242304461777e-01
3.022794545433775681e-01 7.301355354969238931e-01
3.033200034400429512e-01 6.329662190971134805e-01
3.043605523367083343e-01 5.261207198879311875e-01
3.054011012333737174e-01 6.093389824172668057e-01
3.064416501300391005e-01 7.274010131225061571e-01
3.074821990267044836e-01 7.103992434596904104e-01
3.085227479233698666e-01 7.028449381350085901e-01
3.095632968200352497e-01 6.085472039081487594e-01
3.106038457167006328e-01 4.957074912608412376e-01
3.116443946133660159e-01 6.089938044740392797e-01
3.126849435100313990e-01 6.244994966809827019e-01
3.137254924066967821e-01 4.987254695854979047e-01
3.147660413033621651e-01 4.896446262224500856e-01
3.158065902000275482e-01 4.719874902263754279e-01
3.168471390966929313e-01 4.846242378639651349e-01
3.178876879933583144e-01 3.180352797169092582e-01
3.189282368900236975e-01 3.203689272951955047e-01
3.199687857866890806e-01 1.488428515917235018e-01
3.210093346833544636e-01 1.805216728345158117e-01
3.220498835800198467e-01 5.464249125080726799e-01
3.230904324766852298e-01 6.217128787491503772e-01
3.241309813733506129e-01 6.109020079729816644e-01
3.251715302700159960e-01 3.563027414325645736e-01
3.262120791666813790e-01 0.000000000000000000e+00
3.272526280633467621e-01 2.823783678572624467e-01
3.282931769600121452e-01 4.742486952246736109e-01
3.293337258566775283e-01 6.587528418254606777e-01
3.303742747533429114e-01 7.005007746794227330e-01
3.314148236500082945e-01 5.849536864688609228e-01
3.324553725466736775e-01 5.541532298144744573e-01
3.334959214433390606e-01 7.575606767057045943e-01
3.345364703400044437e-01 7.865722552921994293e-01
3.355770192366698268e-01 4.915882811492764404e-01
3.366175681333352099e-01 6.305121663786827924e-01
3.376581170300005930e-01 8.347778444389248875e-01
3.386986659266659760e-01 1.336454525836796137e+00
3.397392148233313591e-01 1.027089600972402650e+00
3.407797637199967422e-01 6.638745248597501813e-01
3.418203126166621253e-01 9.056909957026917368e-01
3.428608615133275084e-01 9.218494690840479677e-01
3.439014104099928915e-01 8.669881880037806354e-01
3.449419593066582745e-01 6.877028906422104626e-01
3.459825082033236576e-01 7.075201388461351826e-01
3.470230570999890407e-01 9.084630572102057045e-01
3.480636059966544238e-01 9.166862928663839227e-01
3.491041548933198069e-01 6.217545296116639975e-01
3.501447037899851900e-01 6.109198258587511532e-01
3.511852526866505730e-01 7.469682037830089882e-01
3.522258015833159561e-01 7.549655072889756013e-01
3.532663504799813392e-01 8.939066570615139540e-01
3.543068993766467223e-01 1.022106903728342786e+00
3.553474482733121054e-01 8.898357866285522277e-01
3.563879971699774885e-01 9.346013002526163405e-01
3.574285460666428715e-01 8.636275701460789378e-01
3.584690949633082546e-01 8.171839399391984671e-01
3.595096438599736377e-01 8.804035561660015219e-01
3.605501927566390208e-01 8.188231166062145405e-01
3.615907416533044039e-01 8.162632980248893944e-01
3.626312905499697870e-01 8.096268433013307231e-01
3.636718394466351700e-01 7.445972258401987176e-01
3.647123883433005531e-01 7.510988924971542247e-01
3.657529372399659362e-01 9.891490783187286695e-01
3.667934861366313193e-01 1.001138467361748496e+00
3.678340350332967024e-01 8.183998418837994393e-01
3.688745839299620854e-01 9.416605506534025949e-01
3.699151328266274685e-01 8.906237098500682237e-01
3.709556817232928516e-01 8.691760997409012646e-01
3.719962306199582347e-01 8.603588933932400096e-01
3.730367795166236178e-01 9.609133938486777993e-01
3.740773284132890009e-01 9.086659857147019181e-01
3.751178773099543839e-01 9.292663873134507924e-01
3.761584262066197670e-01 9.423953378049496621e-01
3.771989751032851501e-01 7.394056390195622441e-01
3.782395239999505332e-01 6.533976195841404433e-01
3.792800728966159163e-01 5.850268450820159671e-01
3.803206217932812994e-01 6.453844687247602963e-01
3.813611706899466824e-01 6.963612006304735758e-01
3.824017195866120655e-01 7.701329379765553540e-01
3.834422684832774486e-01 6.649617552651712060e-01
3.844828173799428317e-01 5.602962286488022414e-01
3.855233662766082148e-01 6.347789802628582834e-01
3.865639151732735979e-01 5.614955503900169731e-01
3.876044640699389809e-01 6.246320819164274951e-01
3.886450129666043640e-01 5.943066269421457548e-01
3.896855618632697471e-01 6.771713137153341222e-01
3.907261107599351302e-01 6.828461025264331852e-01
3.917666596566005133e-01 6.952611102480190652e-01
3.928072085532658964e-01 6.857812347706371270e-01
3.938477574499312794e-01 5.528756309514655243e-01
3.948883063465966625e-01 6.186461356425319025e-01
3.959288552432620456e-01 4.514161136136571884e-01
3.969694041399274287e-01 5.534279750005133280e-01
3.980099530365928118e-01 6.129055216330172584e-01
3.990505019332581949e-01 4.849835625721183874e-01
4.000910508299235779e-01 4.849350228607534063e-01
4.011315997265889610e-01 4.105774095647056754e-01
4.021721486232543441e-01 4.080936310451264148e-01
4.032126975199197272e-01 5.710185366322093614e-01
4.042532464165851103e-01 6.246869849891965032e-01
4.052937953132504934e-01 7.842693277289356502e-01
4.063343442099158764e-01 8.036903170156826093e-01
4.073748931065812595e-01 7.693140477992095327e-01
4.084154420032466426e-01 4.354334151387106999e-01
4.094559908999120257e-01 5.055653315610371124e-01
4.104965397965774088e-01 5.842053177073083248e-01
4.115370886932427918e-01 3.695885651347055045e-01
4.125776375899081749e-01 4.750565293899917663e-01
4.136181864865735580e-01 5.646068665433716660e-01
4.146587353832389411e-01 4.950641145681835553e-01
4.156992842799043242e-01 4.632202097867619273e-01
4.167398331765697073e-01 4.189831097873550902e-01
4.177803820732350903e-01 3.833681888991726794e-01
4.188209309699004734e-01 4.541121822020812715e-01
4.198614798665658565e-01 5.163738548177292387e-01
4.209020287632312396e-01 4.123121461509882124e-01
4.219425776598966227e-01 4.577194236122075210e-01
4.229831265565620058e-01 5.608969738038815933e-01
4.240236754532273888e-01 6.351045859580821684e-01
4.250642243498927719e-01 5.927304235593915394e-01
4.261047732465581550e-01 6.412624323777222912e-01
4.271453221432235381e-01 5.934436444862285498e-01
4.281858710398889212e-01 6.315046808746309637e-01
4.292264199365543043e-01 6.475224949305093958e-01
4.302669688332196873e-01 4.878277970168731770e-01
4.313075177298850704e-01 5.630673392660980880e-01
4.323480666265504535e-01 6.775176066383750140e-01
4.333886155232158366e-01 5.546260070803654685e-01
4.344291644198812197e-01 5.379085613263008270e-01
