# q (1/Angstrom), Intensity (arb)
2.029070354705860696e-02 1.373260329574448861e+03
2.133125244372399004e-02 1.368873562903407219e+03
2.237180134038937659e-02 1.360987197946500146e+03
2.341235023705475968e-02 1.349783018384288880e+03
2.445289913372014276e-02 1.341179510676993914e+03
2.549344803038552584e-02 1.330654686875909647e+03
2.653399692705091240e-02 1.317333894609784011e+03
2.757454582371629548e-02 1.307070354015483417e+03
2.861509472038167856e-02 1.287542369980974627e+03
2.965564361704706164e-02 1.274434138911026821e+03
3.069619251371244473e-02 1.259412445855747364e+03
3.173674141037782781e-02 1.240261033887981284e+03
3.277729030704321089e-02 1.221977004708209051e+03
3.381783920370859398e-02 1.202206347841109391e+03
3.485838810037397706e-02 1.184809501764319293e+03
3.589893699703936014e-02 1.163425056959734547e+03
3.693948589370474322e-02 1.145798881065100659e+03
3.798003479037012631e-02 1.122798195026192161e+03
3.902058368703550939e-02 1.102191990373891031e+03
4.006113258370089247e-02 1.083977639266762708e+03
4.110168148036627556e-02 1.058336606544552524e+03
4.214223037703165864e-02 1.037365951698575827e+03
4.318277927369704866e-02 1.018261499745342121e+03
4.422332817036243174e-02 9.913855678501073498e+02
4.526387706702781483e-02 9.687751077733838656e+02
4.630442596369319791e-02 9.464445595745426090e+02
4.734497486035858099e-02 9.230437708955947755e+02
4.838552375702396408e-02 8.983405578514123135e+02
4.942607265368934716e-02 8.795047767776419505e+02
5.046662155035473024e-02 8.602188189994712957e+02
5.150717044702011332e-02 8.373381452594823031e+02
5.254771934368549641e-02 8.106003657438167238e+02
5.358826824035087949e-02 7.887433088412570896e+02
5.462881713701626257e-02 7.676635108414726574e+02
5.566936603368164566e-02 7.461566728915379372e+02
5.670991493034702874e-02 7.227663261785917257e+02
5.775046382701241182e-02 7.011342908374271019e+02
5.879101272367779490e-02 6.807417059199824507e+02
5.983156162034317799e-02 6.578169051869980422e+02
6.087211051700856107e-02 6.361287000462973538e+02
6.191265941367394415e-02 6.180090272662141615e+02
6.295320831033933417e-02 5.962830389710779855e+02
6.399375720700471726e-02 5.736320375368442228e+02
6.503430610367010034e-02 5.520882666549795204e+02
6.607485500033548342e-02 5.332006656303782393e+02
6.711540389700086651e-02 5.158245009685878131e+02
6.815595279366624959e-02 4.930817363552556003e+02
6.919650169033163267e-02 4.731587502680641819e+02
7.023705058699701576e-02 4.552244052340255962e+02
7.127759948366239884e-02 4.369732488819030323e+02
7.231814838032778192e-02 4.186585901514242778e+02
7.335869727699316500e-02 4.004243404473861005e+02
7.439924617365854809e-02 3.830222362938722540e+02
7.543979507032393117e-02 3.670618687831210991e+02
7.648034396698931425e-02 3.516618945000744247e+02
7.752089286365469734e-02 3.340817601283736735e+02
7.856144176032008042e-02 3.179105035250414630e+02
7.960199065698546350e-02 3.026773871992664340e+02
8.064253955365084658e-02 2.866724757722259369e+02
8.168308845031622967e-02 2.736871369058025039e+02
8.272363734698161275e-02 2.597077632174033397e+02
8.376418624364699583e-02 2.451495644880973543e+02
8.480473514031239279e-02 2.326814071917181082e+02
8.584528403697777588e-02 2.201905507519006449e+02
8.688583293364315896e-02 2.075866568750364536e+02
8.792638183030854204e-02 1.958950945696981876e+02
8.896693072697392513e-02 1.840503068648066574e+02
9.000747962363930821e-02 1.729676395324090663e+02
9.104802852030469129e-02 1.626269971902055147e+02
9.208857741697007437e-02 1.513465108426489678e+02
9.312912631363545746e-02 1.428491185348335080e+02
9.416967521030084054e-02 1.331029899580265976e+02
9.521022410696622362e-02 1.238227300066261591e+02
9.625077300363160671e-02 1.157972031929292598e+02
9.729132190029698979e-02 1.074274796128111120e+02
9.833187079696237287e-02 9.955287869851797211e+01
9.937241969362775595e-02 9.217255943777877292e+01
1.004129685902931390e-01 8.557642285959440187e+01
1.014535174869585221e-01 7.800482597639606297e+01
1.024940663836239052e-01 7.094735716625083910e+01
1.035346152802892883e-01 6.582153358101990648e+01
1.045751641769546714e-01 6.027572598527861203e+01
1.056157130736200545e-01 5.436304435458545470e+01
1.066562619702854375e-01 4.878208426145691590e+01
1.076968108669508206e-01 4.448595943805168673e+01
1.087373597636162037e-01 4.047644992023608523e+01
1.097779086602815868e-01 3.636411045703648881e+01
1.108184575569469699e-01 3.235151729247458263e+01
1.118590064536123529e-01 2.921142899129367976e+01
1.128995553502777360e-01 2.594014193682508562e+01
1.139401042469431191e-01 2.333675050818031593e+01
1.149806531436085022e-01 2.068409892647559900e+01
1.160212020402738853e-01 1.831082357693394869e+01
1.170617509369392684e-01 1.589038613181951831e+01
1.181022998336046514e-01 1.322874176794182688e+01
1.191428487302700345e-01 1.152690227695315173e+01
1.201833976269354176e-01 1.042715432671864306e+01
1.212239465236008007e-01 8.792548607607081124e+00
1.222644954202661838e-01 7.409572474074352044e+00
1.233050443169315669e-01 5.861633515661416993e+00
1.243455932135969499e-01 4.765588892909114804e+00
1.253861421102623330e-01 4.610225477810104167e+00
1.264266910069277161e-01 3.655846924312946555e+00
1.274672399035930992e-01 3.093904975320242556e+00
1.285077888002584823e-01 2.532577554457752456e+00
1.295483376969238654e-01 2.208150270353478106e+00
1.305888865935892484e-01 2.010307356543542312e+00
1.316294354902546315e-01 1.925612572610518214e+00
1.326699843869200146e-01 1.378568496156354684e+00
1.337105332835853977e-01 1.033078562965030756e+00
1.347510821802507808e-01 1.363441377375885111e+00
1.357916310769161639e-01 2.042934582400107502e+00
1.368321799735815469e-01 2.213305297933708005e+00
1.378727288702469300e-01 2.032587098068638909e+00
1.389132777669123131e-01 2.154486754655550840e+00
1.399538266635776962e-01 2.721558308222064682e+00
1.409943755602430793e-01 3.428260615220899865e+00
1.420349244569084624e-01 3.675231387818449491e+00
1.430754733535738454e-01 4.061441249021861211e+00
1.441160222502392285e-01 4.376449055917873920e+00
1.451565711469046116e-01 4.710555313423455459e+00
1.461971200435699947e-01 5.025796656165837817e+00
1.472376689402353778e-01 5.855378811853761079e+00
1.482782178369007609e-01 6.080715705355750345e+00
1.493187667335661439e-01 6.296927606224734575e+00
1.503593156302315270e-01 6.844932837726865671e+00
1.513998645268969101e-01 7.299503939683582132e+00
1.524404134235622932e-01 7.552665190045317445e+00
1.534809623202276763e-01 7.652589301979524805e+00
1.545215112168930593e-01 8.078192640825129445e+00
1.555620601135584424e-01 8.115053131920603846e+00
1.566026090102238255e-01 8.967559684884307103e+00
1.576431579068892086e-01 9.450181411494199324e+00
1.586837068035545917e-01 9.535258530421536705e+00
1.597242557002199748e-01 9.807764196591321593e+00
1.607648045968853578e-01 9.991370704903452804e+00
1.618053534935507409e-01 1.031816576957298537e+01
1.628459023902161240e-01 1.035986222857693662e+01
1.638864512868815071e-01 1.056409876235768053e+01
1.649270001835468902e-01 1.061466039128436023e+01
1.659675490802122733e-01 1.046764272315976996e+01
1.670080979768776563e-01 1.015364436738121867e+01
1.680486468735430672e-01 1.012838198433038883e+01
1.690891957702084503e-01 1.056260230240513209e+01
1.701297446668738333e-01 1.054934480833317423e+01
1.711702935635392164e-01 1.065382750975261672e+01
1.722108424602045995e-01 1.076965779754226560e+01
1.732513913568699826e-01 1.052930123718236999e+01
1.742919402535353657e-01 1.050794488283496264e+01
1.753324891502007488e-01 1.062754439756768221e+01
1.763730380468661318e-01 1.055740592817078394e+01
1.774135869435315149e-01 1.006793782550851546e+01
1.784541358401968980e-01 9.732855399859694501e+00
1.794946847368622811e-01 9.596909324701613286e+00
1.805352336335276642e-01 9.181541211566184302e+00
1.815757825301930473e-01 9.085604757118556307e+00
1.826163314268584303e-01 8.770709264065271071e+00
1.836568803235238134e-01 8.524886094439974471e+00
1.846974292201891965e-01 8.206698103291596880e+00
1.857379781168545796e-01 7.728617013116320322e+00
1.867785270135199627e-01 7.742618474757300362e+00
1.878190759101853458e-01 7.242147707860194572e+00
1.888596248068507288e-01 6.799250010220461604e+00
1.899001737035161119e-01 6.838600716775982136e+00
1.909407226001814950e-01 6.362853707830186778e+00
1.919812714968468781e-01 6.148174303518228356e+00
1.930218203935122612e-01 5.975610400612186623e+00
1.940623692901776443e-01 5.414228337807692526e+00
1.951029181868430273e-01 5.155107048040047601e+00
1.961434670835084104e-01 4.979905269751043306e+00
1.971840159801737935e-01 4.574279167684419889e+00
1.982245648768391766e-01 4.463953238082087438e+00
1.992651137735045597e-01 4.141417740744575582e+00
2.003056626701699428e-01 4.142187408043465524e+00
2.013462115668353813e-01 3.867149150485609255e+00
2.023867604635007644e-01 3.347859982248664323e+00
2.034273093601661475e-01 3.139195942676753504e+00
2.044678582568315306e-01 2.917072124076472761e+00
2.055084071534969137e-01 2.931076482036957032e+00
2.065489560501622968e-01 2.935428821072921579e+00
2.075895049468276798e-01 2.158558674064607885e+00
2.086300538434930629e-01 1.898082846202942875e+00
2.096706027401584460e-01 1.812161448901761673e+00
2.107111516368238291e-01 1.663684702024312401e+00
2.117517005334892122e-01 1.419968462378424334e+00
2.127922494301545953e-01 1.363734440047501550e+00
2.138327983268199783e-01 1.600848342735357477e+00
2.148733472234853614e-01 1.505098826743367368e+00
2.159138961201507445e-01 1.580059567381951524e+00
2.169544450168161276e-01 1.081155844535409472e+00
2.179949939134815107e-01 8.947808574267206438e-01
2.190355428101468938e-01 8.375066191404236804e-01
2.200760917068122768e-01 7.984539685228959627e-01
2.211166406034776599e-01 6.896891336469828104e-01
2.221571895001430430e-01 5.218320655156780674e-01
2.231977383968084261e-01 3.016507031336992384e-01
2.242382872934738092e-01 2.754370796292384682e-01
2.252788361901391923e-01 3.236140583604552035e-01
2.263193850868045753e-01 5.415887954644205138e-01
2.273599339834699584e-01 6.637079347629288861e-01
2.284004828801353415e-01 2.982314278535227459e-01
2.294410317768007246e-01 2.267188966055577737e-01
2.304815806734661077e-01 6.088923162610697659e-01
2.315221295701314908e-01 2.791932865478976566e-01
2.325626784667968738e-01 3.375628249761497557e-01
2.336032273634622569e-01 5.026305717243246818e-01
2.346437762601276400e-01 6.581383966580069966e-01
2.356843251567930231e-01 5.129908045915456682e-01
2.367248740534584062e-01 6.685359603227674086e-01
2.377654229501237892e-01 7.251542756970152936e-01
2.388059718467891723e-01 1.023987525555480005e+00
2.398465207434545554e-01 9.490867733916914517e-01
2.408870696401199385e-01 8.379177635850929562e-01
2.419276185367853216e-01 8.690139590589858187e-01
2.429681674334507047e-01 5.634283015776127002e-01
2.440087163301160877e-01 7.871280096792609982e-01
2.450492652267814708e-01 1.034768175480007102e+00
2.460898141234468539e-01 1.066399390844466666e+00
2.471303630201122370e-01 1.310546825596553333e+00
2.481709119167776201e-01 1.316749559707027117e+00
2.492114608134430032e-01 1.282412657880900753e+00
2.502520097101083585e-01 1.391885118356682938e+00
2.512925586067737416e-01 1.210169296415454454e+00
2.523331075034391247e-01 1.072812674969910063e+00
2.533736564001045077e-01 1.373761013865010483e+00
2.544142052967698908e-01 1.459453470524202601e+00
2.554547541934352739e-01 1.309020238678293424e+00
2.564953030901006570e-01 1.515097228693107922e+00
2.575358519867660401e-01 1.628150006313237697e+00
2.585764008834314231e-01 1.688667481190595510e+00
2.596169497800968062e-01 1.525315615592653273e+00
2.606574986767621893e-01 1.665075319086888328e+00
2.616980475734275724e-01 1.588121983876607857e+00
2.627385964700929555e-01 1.441384148699501822e+00
2.637791453667583386e-01 1.745134964194750893e+00
2.648196942634237216e-01 1.842055930900169614e+00
2.658602431600891047e-01 1.601322672083679066e+00
2.669007920567544878e-01 1.847901423827483569e+00
2.679413409534198709e-01 1.567795687912258984e+00
2.689818898500852540e-01 1.522302270230639465e+00
2.700224387467506371e-01 1.489838280481677657e+00
2.710629876434160201e-01 1.413564695049075226e+00
2.721035365400814032e-01 1.335987421783300988e+00
2.731440854367467863e-01 1.502963531380640205e+00
2.741846343334121694e-01 1.576415895191715322e+00
2.752251832300775525e-01 1.559980925300450849e+00
2.762657321267429356e-01 1.404782316654298313e+00
2.773062810234083186e-01 1.618225415420997848e+00
2.783468299200737017e-01 1.575824760124227453e+00
2.793873788167390848e-01 1.240081936376743243e+00
2.804279277134044679e-01 1.219765379234718949e+00
2.814684766100698510e-01 1.243275515562224598e+00
2.825090255067352341e-01 1.275208976735079602e+00
2.835495744034006171e-01 1.414516039405217640e+00
2.845901233000660002e-01 1.254974520819409634e+00
2.856306721967313833e-01 8.596268915608753503e-01
2.866712210933967664e-01 6.015935763141513348e-01
2.877117699900621495e-01 8.905424885408770308e-01
2.887523188867275326e-01 8.774231607218681006e-01
2.897928677833929156e-01 9.744567393474738992e-01
2.908334166800582987e-01 9.108293323543286135e-01
2.918739655767236818e-01 9.508999086487932573e-01
2.929145144733890649e-01 8.318222893170812426e-01
2.939550633700544480e-01 7.549015822923514918e-01
2.949956122667198311e-01 9.702427979734125074e-01
2.960361611633852141e-01 9.139954469663322811e-01
2.970767100600505972e-01 8.565295051123804626e-01
2.981172589567159803e-01 6.876405632932645062e-01
2.991578078533813634e-01 7.173692493801837600e-01
3.001983567500468020e-01 4.888771032572662989e-01
3.012389056467121851e-01 1.873594702215797270e-01
3.022794545433775681e-01 3.133685834337107678e-01
3.033200034400429512e-01 4.322529699355683874e-01
3.043605523367083343e-01 2.171659483478443065e-01
3.054011012333737174e-01 8.034271590325658963e-02
3.064416501300391005e-01 0.000000000000000000e+00
3.074821990267044836e-01 1.719007318510215043e-01
3.085227479233698666e-01 2.464913701746915820e-01
3.095632968200352497e-01 3.540202219296482156e-01
3.106038457167006328e-01 4.177432267222620510e-01
3.116443946133660159e-01 4.204374915038435745e-01
3.126849435100313990e-01 4.192313916403094254e-01
3.137254924066967821e-01 3.172283622942408954e-01
3.147660413033621651e-01 3.476917498520393224e-01
3.158065902000275482e-01 3.024282104367514989e-01
3.168471390966929313e-01 3.738653411195400622e-01
3.178876879933583144e-01 4.941630423819489693e-01
3.189282368900236975e-01 4.023423993223715911e-01
3.199687857866890806e-01 4.241896822756601182e-01
3.210093346833544636e-01 4.410750270377974402e-01
3.220498835800198467e-01 2.260888281150705836e-01
3.230904324766852298e-01 3.560797570105727061e-01
3.241309813733506129e-01 5.203007849148590935e-01
3.251715302700159960e-01 4.387765044160438777e-01
3.262120791666813790e-01 4.237674261711568136e-01
3.272526280633467621e-01 6.658436169990302744e-01
3.282931769600121452e-01 6.265015502219064558e-01
3.293337258566775283e-01 4.915111535118228403e-01
3.303742747533429114e-01 3.072101112253342592e-01
3.314148236500082945e-01 3.196740154075037310e-01
3.324553725466736775e-01 2.142413640209319681e-01
3.334959214433390606e-01 3.691101822636504437e-01
3.345364703400044437e-01 3.141426877030681908e-01
3.355770192366698268e-01 3.054403940825096697e-01
3.366175681333352099e-01 2.697295508637829187e-01
3.376581170300005930e-01 4.654043340421161190e-01
3.386986659266659760e-01 4.711453547127710806e-01
3.397392148233313591e-01 5.065736850914532852e-01
3.407797637199967422e-01 5.519465339211997446e-01
3.418203126166621253e-01 6.476335811696394273e-01
3.428608615133275084e-01 5.779165302599693632e-01
3.439014104099928915e-01 5.456497595873095463e-01
3.449419593066582745e-01 4.585382951028798004e-01
3.459825082033236576e-01 1.121950028580620540e-01
3.470230570999890407e-01 3.444354561033051709e-01
3.480636059966544238e-01 2.939747875021936352e-01
3.491041548933198069e-01 4.739490135773323232e-01
3.501447037899851900e-01 7.188226082681339335e-01
3.511852526866505730e-01 6.830572923708793098e-01
3.522258015833159561e-01 5.688142220858729559e-01
3.532663504799813392e-01 4.787475359556552235e-01
3.543068993766467223e-01 5.933033849727777920e-01
3.553474482733121054e-01 6.105364191365687532e-01
3.563879971699774885e-01 4.680804005412113611e-01
3.574285460666428715e-01 5.014357908690278975e-01
3.584690949633082546e-01 4.478328728218556876e-01
3.595096438599736377e-01 5.475806734993895475e-01
3.605501927566390208e-01 7.514379355559306362e-01
3.615907416533044039e-01 7.091573013687906268e-01
3.626312905499697870e-01 5.979057086722932013e-01
3.636718394466351700e-01 6.245780400212659345e-01
3.647123883433005531e-01 5.712927401119323179e-01
3.657529372399659362e-01 7.148482318992606110e-01
3.667934861366313193e-01 5.276627848570463186e-01
3.678340350332967024e-01 3.968162804378003727e-01
3.688745839299620854e-01 4.445815267658836945e-01
3.699151328266274685e-01 6.351317473026263372e-01
3.709556817232928516e-01 6.590604094056793372e-01
3.719962306199582347e-01 5.294850209025696586e-01
3.730367795166236178e-01 6.269166227153490922e-01
3.740773284132890009e-01 7.244400055586872611e-01
3.751178773099543839e-01 7.483790375495082969e-01
3.761584262066197670e-01 7.008686372365247053e-01
3.771989751032851501e-01 5.164298026886022797e-01
3.782395239999505332e-01 5.369570133723442495e-01
3.792800728966159163e-01 6.547146198933369021e-01
3.803206217932812994e-01 4.018694872916910299e-01
3.813611706899466824e-01 4.136775918977910749e-01
3.824017195866120655e-01 6.649361061279641660e-01
3.834422684832774486e-01 6.289159491395857060e-01
3.844828173799428317e-01 2.747409612269144930e-01
3.855233662766082148e-01 3.642157867415214412e-01
3.865639151732735979e-01 4.521520829742122771e-01
3.876044640699389809e-01 4.204056931890889359e-01
3.886450129666043640e-01 5.012695971718912347e-01
3.896855618632697471e-01 5.539042372886306964e-01
3.907261107599351302e-01 4.835990929883244860e-01
3.917666596566005133e-01 4.197563201300376079e-01
3.928072085532658964e-01 3.985598835316856992e-01
3.938477574499312794e-01 3.559906353794239919e-01
3.948883063465966625e-01 5.512575657993252776e-01
3.959288552432620456e-01 4.802618233477424781e-01
3.969694041399274287e-01 3.520595324745983135e-01
3.980099530365928118e-01 1.904423479780987805e-01
3.990505019332581949e-01 2.238003531900645271e-01
4.000910508299235779e-01 3.062298166209629358e-01
4.011315997265889610e-01 4.303756305768366985e-01
4.021721486232543441e-01 3.739853988673971230e-01
4.032126975199197272e-01 3.594466082047311772e-01
4.042532464165851103e-01 3.815268213500964123e-01
4.052937953132504934e-01 2.710280543505056983e-01
4.063343442099158764e-01 3.318564707094040500e-01
4.073748931065812595e-01 2.479766809524157622e-01
4.084154420032466426e-01 2.786523846113873049e-01
4.094559908999120257e-01 3.499065549077471360e-01
4.104965397965774088e-01 2.387888211871320721e-01
4.115370886932427918e-01 4.001739997754363287e-01
4.125776375899081749e-01 4.354245415086310800e-01
4.136181864865735580e-01 4.218156012498006646e-01
4.146587353832389411e-01 2.734495726495289603e-01
4.156992842799043242e-01 2.269259174966116177e-01
4.167398331765697073e-01 1.668186859724301030e-01
4.177803820732350903e-01 1.006220872803567090e-01
4.188209309699004734e-01 3.498632726872408227e-01
4.198614798665658565e-01 4.640903159356462027e-01
4.209020287632312396e-01 2.418231706480717946e-01
4.219425776598966227e-01 2.335541700534520260e-01
4.229831265565620058e-01 2.493898842462236587e-01
4.240236754532273888e-01 8.106603613360618965e-02
4.250642243498927719e-01 1.758194003293098717e-01
4.261047732465581550e-01 3.617877428965776687e-01
4.271453221432235381e-01 3.302706278475007196e-01
4.281858710398889212e-01 9.407816015665915188e-02
4.292264199365543043e-01 9.023191754005210896e-02
4.302669688332196873e-01 1.688448711269856517e-01
4.313075177298850704e-01 2.116993735675052335e-01
4.323480666265504535e-01 4.098213301024067334e-01
4.333886155232158366e-01 4.023555326717733749e-01
4.344291644198812197e-01 6.220545593835602460e-01
