# q (1/Angstrom), Intensity (arb)
2.029070354705860696e-02 1.430169014449300448e+03
2.133125244372399004e-02 1.422598643918590824e+03
2.237180134038937659e-02 1.413910301361277106e+03
2.341235023705475968e-02 1.403269960035251870e+03
2.445289913372014276e-02 1.391385850927972569e+03
2.549344803038552584e-02 1.378165985495467567e+03
2.653399692705091240e-02 1.366908875119957202e+03
2.757454582371629548e-02 1.355070811964037375e+03
2.861509472038167856e-02 1.335812409138650082e+03
2.965564361704706164e-02 1.320266939577529229e+03
3.069619251371244473e-02 1.307190403337549697e+03
3.173674141037782781e-02 1.286061105027972417e+03
3.277729030704321089e-02 1.273270179547533644e+03
3.381783920370859398e-02 1.254684903412987296e+03
3.485838810037397706e-02 1.236020790025988163e+03
3.589893699703936014e-02 1.215126079921120208e+03
3.693948589370474322e-02 1.190902269982173493e+03
3.798003479037012631e-02 1.166121723094410982e+03
3.902058368703550939e-02 1.144030176151862179e+03
4.006113258370089247e-02 1.126707803125515056e+03
4.110168148036627556e-02 1.106991608173291525e+03
4.214223037703165864e-02 1.081502815666165134e+03
4.318277927369704866e-02 1.058960419101366142e+03
4.422332817036243174e-02 1.033644720179563592e+03
4.526387706702781483e-02 1.009296339763141305e+03
4.630442596369319791e-02 9.873062960622610262e+02
4.734497486035858099e-02 9.689317347325051060e+02
4.838552375702396408e-02 9.443940890125491023e+02
4.942607265368934716e-02 9.189973248624389726e+02
5.046662155035473024e-02 8.968944251735009630e+02
5.150717044702011332e-02 8.734588315013063493e+02
5.254771934368549641e-02 8.480997788509406519e+02
5.358826824035087949e-02 8.252760374077445249e+02
5.462881713701626257e-02 8.041799015396120467e+02
5.566936603368164566e-02 7.798792629113007706e+02
5.670991493034702874e-02 7.542508029945037151e+02
5.775046382701241182e-02 7.311936639098368005e+02
5.879101272367779490e-02 7.088811595957771488e+02
5.983156162034317799e-02 6.901513289415553345e+02
6.087211051700856107e-02 6.642117262693948305e+02
6.191265941367394415e-02 6.421780403336261998e+02
6.295320831033933417e-02 6.189752937793103911e+02
6.399375720700471726e-02 5.995869075028003863e+02
6.503430610367010034e-02 5.778503302347467070e+02
6.607485500033548342e-02 5.560803056056137166e+02
6.711540389700086651e-02 5.365145756184685979e+02
6.815595279366624959e-02 5.156488548855455747e+02
6.919650169033163267e-02 4.962532261308828652e+02
7.023705058699701576e-02 4.760773053191639406e+02
7.127759948366239884e-02 4.572574483826488176e+02
7.231814838032778192e-02 4.379706723597853397e+02
7.335869727699316500e-02 4.202595477149423573e+02
7.439924617365854809e-02 4.024481415327664990e+02
7.543979507032393117e-02 3.836298304088444979e+02
7.648034396698931425e-02 3.677930438852477550e+02
7.752089286365469734e-02 3.513495290466144070e+02
7.856144176032008042e-02 3.350008685100692105e+02
7.960199065698546350e-02 3.168513548343952380e+02
8.064253955365084658e-02 3.011074994438878321e+02
8.168308845031622967e-02 2.871065530418945855e+02
8.272363734698161275e-02 2.717737563616502143e+02
8.376418624364699583e-02 2.581428856933281395e+02
8.480473514031239279e-02 2.442561540248166239e+02
8.584528403697777588e-02 2.313853058568640222e+02
8.688583293364315896e-02 2.183513301919747391e+02
8.792638183030854204e-02 2.052710642304417945e+02
8.896693072697392513e-02 1.928080319862860676e+02
9.000747962363930821e-02 1.817717125334227717e+02
9.104802852030469129e-02 1.708934289883149233e+02
9.208857741697007437e-02 1.603372747896351882e+02
9.312912631363545746e-02 1.494222692808393163e+02
9.416967521030084054e-02 1.392886991021504741e+02
9.521022410696622362e-02 1.306442299242000900e+02
9.625077300363160671e-02 1.213835058567041330e+02
9.729132190029698979e-02 1.127846932435661813e+02
9.833187079696237287e-02 1.039787730363656095e+02
9.937241969362775595e-02 9.649676767657859955e+01
1.004129685902931390e-01 8.937953917742311205e+01
1.014535174869585221e-01 8.284954360072403290e+01
1.024940663836239052e-01 7.625727451743745178e+01
1.035346152802892883e-01 7.004625869751340872e+01
1.045751641769546714e-01 6.373981076596984963e+01
1.056157130736200545e-01 5.833463106140939658e+01
1.066562619702854375e-01 5.302023495590050572e+01
1.076968108669508206e-01 4.794531033546089560e+01
1.087373597636162037e-01 4.355772733181957079e+01
1.097779086602815868e-01 3.976156992431704396e+01
1.108184575569469699e-01 3.619337471416656626e+01
1.118590064536123529e-01 3.241142103114208339e+01
1.128995553502777360e-01 2.880264077205566764e+01
1.139401042469431191e-01 2.502981321358107536e+01
1.149806531436085022e-01 2.221843834944050755e+01
1.160212020402738853e-01 1.998629374026196714e+01
1.170617509369392684e-01 1.720428130620687668e+01
1.181022998336046514e-01 1.445371322329535602e+01
1.191428487302700345e-01 1.261591787848086099e+01
1.201833976269354176e-01 1.141828981495414297e+01
1.212239465236008007e-01 1.036798780001363696e+01
1.222644954202661838e-01 8.821673158588417607e+00
1.233050443169315669e-01 7.333881086412173289e+00
1.243455932135969499e-01 6.192984389118642241e+00
1.253861421102623330e-01 5.059729981307995672e+00
1.264266910069277161e-01 4.654704644634495736e+00
1.274672399035930992e-01 3.839192427259849438e+00
1.285077888002584823e-01 3.110906015555048754e+00
1.295483376969238654e-01 3.055932743814533836e+00
1.305888865935892484e-01 3.184625995220290662e+00
1.316294354902546315e-01 2.615618574258999018e+00
1.326699843869200146e-01 2.378300996404789203e+00
1.337105332835853977e-01 2.470752406844898275e+00
1.347510821802507808e-01 2.111043146949086236e+00
1.357916310769161639e-01 2.233345935430104845e+00
1.368321799735815469e-01 2.534690929452331432e+00
1.378727288702469300e-01 2.711461205601860769e+00
1.389132777669123131e-01 3.113932721342173693e+00
1.399538266635776962e-01 3.281044854751023365e+00
1.409943755602430793e-01 3.969871138720229453e+00
1.420349244569084624e-01 4.489736824154668682e+00
1.430754733535738454e-01 4.528496063559622087e+00
1.441160222502392285e-01 4.953329395400146495e+00
1.451565711469046116e-01 5.243773090806730153e+00
1.461971200435699947e-01 6.261518830964334370e+00
1.472376689402353778e-01 6.480252976061862569e+00
1.482782178369007609e-01 6.542126791037098599e+00
1.493187667335661439e-01 6.945384514964569433e+00
1.503593156302315270e-01 7.422203809109053196e+00
1.513998645268969101e-01 7.960108025168075585e+00
1.524404134235622932e-01 8.501013363817918389e+00
1.534809623202276763e-01 8.921226785050194508e+00
1.545215112168930593e-01 9.140390048574214887e+00
1.555620601135584424e-01 9.719435535236179646e+00
1.566026090102238255e-01 1.015815527321399969e+01
1.576431579068892086e-01 1.003978021016452615e+01
1.586837068035545917e-01 1.008744154017475836e+01
1.597242557002199748e-01 1.022366026951680595e+01
1.607648045968853578e-01 1.051556867706152687e+01
1.618053534935507409e-01 1.076577047281995547e+01
1.628459023902161240e-01 1.139748339394449417e+01
1.638864512868815071e-01 1.148745425078999105e+01
1.649270001835468902e-01 1.189375973284990451e+01
1.659675490802122733e-01 1.188683313275567599e+01
1.670080979768776563e-01 1.186465183053139327e+01
1.680486468735430672e-01 1.154970956802992177e+01
1.690891957702084503e-01 1.166507776723043222e+01
1.701297446668738333e-01 1.166738764728446398e+01
1.711702935635392164e-01 1.141029254303991536e+01
1.722108424602045995e-01 1.143526590758360939e+01
1.732513913568699826e-01 1.106718264322910983e+01
1.742919402535353657e-01 1.128131742801361881e+01
1.753324891502007488e-01 1.160886813683720575e+01
1.763730380468661318e-01 1.134101744315709226e+01
1.774135869435315149e-01 1.115206821848076402e+01
1.784541358401968980e-01 1.102021456714555825e+01
1.794946847368622811e-01 1.059282230503956157e+01
1.805352336335276642e-01 1.054210733961861735e+01
1.815757825301930473e-01 1.043098507443162504e+01
1.826163314268584303e-01 1.011306429990723998e+01
1.836568803235238134e-01 9.549339063520385196e+00
1.846974292201891965e-01 9.404215437733636662e+00
1.857379781168545796e-01 9.148880905467297708e+00
1.867785270135199627e-01 8.953686442481561869e+00
1.878190759101853458e-01 8.617683615036440870e+00
1.888596248068507288e-01 8.052030202254091051e+00
1.899001737035161119e-01 7.691720535591130670e+00
1.909407226001814950e-01 7.324121342380564670e+00
1.919812714968468781e-01 7.173959467760109732e+00
1.930218203935122612e-01 6.895913262086633466e+00
1.940623692901776443e-01 6.356508505112575591e+00
1.951029181868430273e-01 5.812367916798596212e+00
1.961434670835084104e-01 5.334382923234546325e+00
1.971840159801737935e-01 5.181672924945377900e+00
1.982245648768391766e-01 4.864281337997681476e+00
1.992651137735045597e-01 4.684869895613491764e+00
2.003056626701699428e-01 4.290660973220834506e+00
2.013462115668353813e-01 3.980799507203489185e+00
2.023867604635007644e-01 4.052804521720961617e+00
2.034273093601661475e-01 4.100755955461004021e+00
2.044678582568315306e-01 3.696757388643597153e+00
2.055084071534969137e-01 3.402074718543943277e+00
2.065489560501622968e-01 3.250073456844191355e+00
2.075895049468276798e-01 2.869410108943309723e+00
2.086300538434930629e-01 2.549987878035068434e+00
2.096706027401584460e-01 2.563643164129192797e+00
2.107111516368238291e-01 2.283731535788184885e+00
2.117517005334892122e-01 2.321179912333050765e+00
2.127922494301545953e-01 2.254760422258865304e+00
2.138327983268199783e-01 1.771741876732928489e+00
2.148733472234853614e-01 1.666534924622485647e+00
2.159138961201507445e-01 1.420952208569726594e+00
2.169544450168161276e-01 1.256471201401446081e+00
2.179949939134815107e-01 1.104402642936570089e+00
2.190355428101468938e-01 9.397674243689593254e-01
2.200760917068122768e-01 8.829443861436772067e-01
2.211166406034776599e-01 7.385220482206662496e-01
2.221571895001430430e-01 1.069443084283570045e+00
2.231977383968084261e-01 1.106912008633411659e+00
2.242382872934738092e-01 1.131539146476040258e+00
2.252788361901391923e-01 5.534678566067832151e-01
2.263193850868045753e-01 5.953244270427440199e-01
2.273599339834699584e-01 1.026287527542823597e+00
2.284004828801353415e-01 1.029886434821641217e+00
2.294410317768007246e-01 7.310624170266493138e-01
2.304815806734661077e-01 6.564990029092783175e-01
2.315221295701314908e-01 7.181603760069599218e-01
2.325626784667968738e-01 7.205135218981766343e-01
2.336032273634622569e-01 6.378500739061543356e-01
2.346437762601276400e-01 8.814002689064928120e-01
2.356843251567930231e-01 9.966202517583475640e-01
2.367248740534584062e-01 1.112150171212324068e+00
2.377654229501237892e-01 1.126815087581800157e+00
2.388059718467891723e-01 1.217683033599445963e+00
2.398465207434545554e-01 1.482026423486793476e+00
2.408870696401199385e-01 1.181743852301902820e+00
2.419276185367853216e-01 1.063627736484413333e+00
2.429681674334507047e-01 1.271715984941256039e+00
2.440087163301160877e-01 1.528307616923612500e+00
2.450492652267814708e-01 1.467677777479764245e+00
2.460898141234468539e-01 1.694227683926527561e+00
2.471303630201122370e-01 1.620880456799056901e+00
2.481709119167776201e-01 1.484316440412253968e+00
2.492114608134430032e-01 1.535524494260947392e+00
2.502520097101083585e-01 1.707992083430355024e+00
2.512925586067737416e-01 1.945749588461175961e+00
2.523331075034391247e-01 1.950690467383740412e+00
2.533736564001045077e-01 1.860023046994662366e+00
2.544142052967698908e-01 1.838713248531735900e+00
2.554547541934352739e-01 1.963001983462053346e+00
2.564953030901006570e-01 2.051215297825837780e+00
2.575358519867660401e-01 2.031855797218533155e+00
2.585764008834314231e-01 1.982441822701542122e+00
2.596169497800968062e-01 1.994069414774813254e+00
2.606574986767621893e-01 2.145379905750832705e+00
2.616980475734275724e-01 1.921929398451570847e+00
2.627385964700929555e-01 2.121513324102295428e+00
2.637791453667583386e-01 2.013628206733709902e+00
2.648196942634237216e-01 1.907294265825754565e+00
2.658602431600891047e-01 1.875347830511415737e+00
2.669007920567544878e-01 2.158927594466177879e+00
2.679413409534198709e-01 2.170593162476571081e+00
2.689818898500852540e-01 2.217288530639457633e+00
2.700224387467506371e-01 2.062598630178101189e+00
2.710629876434160201e-01 1.911199262039080082e+00
2.721035365400814032e-01 1.898825849138848554e+00
2.731440854367467863e-01 1.841713460899001120e+00
2.741846343334121694e-01 1.885223142379512495e+00
2.752251832300775525e-01 1.906299887811528038e+00
2.762657321267429356e-01 1.741642717712810651e+00
2.773062810234083186e-01 1.701757554905636738e+00
2.783468299200737017e-01 1.691213265291541035e+00
2.793873788167390848e-01 1.549877987821911773e+00
2.804279277134044679e-01 1.455551844207011669e+00
2.814684766100698510e-01 1.570348926969053593e+00
2.825090255067352341e-01 1.520506142620451584e+00
2.835495744034006171e-01 1.531511306600492617e+00
2.845901233000660002e-01 1.596206900935243311e+00
2.856306721967313833e-01 1.512456716471973550e+00
2.866712210933967664e-01 1.519904497377421393e+00
2.877117699900621495e-01 1.524541675768698923e+00
2.887523188867275326e-01 1.503572869131961198e+00
2.897928677833929156e-01 1.324662455446791398e+00
2.908334166800582987e-01 1.228662013070707104e+00
2.918739655767236818e-01 1.138304446169136952e+00
2.929145144733890649e-01 1.023291777183107598e+00
2.939550633700544480e-01 1.033978223099275340e+00
2.949956122667198311e-01 1.144515109596618174e+00
2.960361611633852141e-01 1.170193978766079113e+00
2.970767100600505972e-01 1.225959997121261580e+00
2.981172589567159803e-01 9.870471699908662799e-01
2.991578078533813634e-01 1.065083839843357083e+00
3.001983567500468020e-01 9.099714154343523376e-01
3.012389056467121851e-01 7.461719435978757531e-01
3.022794545433775681e-01 9.600248176089074548e-01
3.033200034400429512e-01 1.024115507167355332e+00
3.043605523367083343e-01 7.545658691737102686e-01
3.054011012333737174e-01 6.254667188962343971e-01
3.064416501300391005e-01 7.198470825213227897e-01
3.074821990267044836e-01 8.254231012829436054e-01
3.085227479233698666e-01 8.196031265292020862e-01
3.095632968200352497e-01 6.433980521073472403e-01
3.106038457167006328e-01 6.648521811569949591e-01
3.116443946133660159e-01 7.469943227947091202e-01
3.126849435100313990e-01 5.468147733877977146e-01
3.137254924066967821e-01 3.985160013283284286e-01
3.147660413033621651e-01 4.802796489535339219e-01
3.158065902000275482e-01 4.112229283415160808e-01
3.168471390966929313e-01 4.003900978580574588e-01
3.178876879933583144e-01 3.048606432424527668e-01
3.189282368900236975e-01 4.570292369216772954e-01
3.199687857866890806e-01 8.730732769883076116e-02
3.210093346833544636e-01 2.970073417001657390e-01
3.220498835800198467e-01 7.618652205437363989e-01
3.230904324766852298e-01 4.672044402873041236e-01
3.241309813733506129e-01 5.250560335428779979e-01
3.251715302700159960e-01 2.483010115772863458e-01
3.262120791666813790e-01 0.000000000000000000e+00
3.272526280633467621e-01 3.517909203309841359e-01
3.282931769600121452e-01 5.234290183093541771e-01
3.293337258566775283e-01 5.963832764719967372e-01
3.303742747533429114e-01 7.192064885321016732e-01
3.314148236500082945e-01 5.873569111413345922e-01
3.324553725466736775e-01 7.175165739239055540e-01
3.334959214433390606e-01 8.024914809714509545e-01
3.345364703400044437e-01 6.099548539589960683e-01
3.355770192366698268e-01 4.652381186402969604e-01
3.366175681333352099e-01 5.311780446258254074e-01
3.376581170300005930e-01 5.802015419342119174e-01
3.386986659266659760e-01 6.702744553551553963e-01
3.397392148233313591e-01 5.341983902983038490e-01
3.407797637199967422e-01 7.041740849249364942e-01
3.418203126166621253e-01 9.295407557954433742e-01
3.428608615133275084e-01 8.636775440874338017e-01
3.439014104099928915e-01 8.843558585659287985e-01
3.449419593066582745e-01 7.529240645268515664e-01
3.459825082033236576e-01 5.091021073588635204e-01
3.470230570999890407e-01 6.927776188418306447e-01
3.480636059966544238e-01 6.156355987567927457e-01
3.491041548933198069e-01 5.362739165569969657e-01
3.501447037899851900e-01 6.079944983621352605e-01
3.511852526866505730e-01 8.056563067995128335e-01
3.522258015833159561e-01 7.221570192610400341e-01
3.532663504799813392e-01 7.802337832109138560e-01
3.543068993766467223e-01 9.204223619951932278e-01
3.553474482733121054e-01 8.063454743944191705e-01
3.563879971699774885e-01 1.023056681856740369e+00
3.574285460666428715e-01 9.658150906261120383e-01
3.584690949633082546e-01 8.788072684741408125e-01
3.595096438599736377e-01 7.802364082327564176e-01
3.605501927566390208e-01 9.263613773959953335e-01
3.615907416533044039e-01 8.813138192118010750e-01
3.626312905499697870e-01 6.948273026093936267e-01
3.636718394466351700e-01 7.408303629287722458e-01
3.647123883433005531e-01 7.814444894720331547e-01
3.657529372399659362e-01 1.011181338480561465e+00
3.667934861366313193e-01 1.110548706062278512e+00
3.678340350332967024e-01 8.008539985732490152e-01
3.688745839299620854e-01 6.778950997951405100e-01
3.699151328266274685e-01 6.634109483603296553e-01
3.709556817232928516e-01 6.564591713127647665e-01
3.719962306199582347e-01 8.214449339424483298e-01
3.730367795166236178e-01 9.030178389004923645e-01
3.740773284132890009e-01 8.650744045871725518e-01
3.751178773099543839e-01 8.619904038600871843e-01
3.761584262066197670e-01 8.757373027766135465e-01
3.771989751032851501e-01 8.243081317500262628e-01
3.782395239999505332e-01 7.299140403127566401e-01
3.792800728966159163e-01 6.215137960833168052e-01
3.803206217932812994e-01 7.010190809761134290e-01
3.813611706899466824e-01 7.747023687616270138e-01
3.824017195866120655e-01 6.606186425766971126e-01
3.834422684832774486e-01 5.970889694689311966e-01
3.844828173799428317e-01 4.111718515293496523e-01
3.855233662766082148e-01 5.675019716751137366e-01
3.865639151732735979e-01 7.025768727012184911e-01
3.876044640699389809e-01 7.126746827976262466e-01
3.886450129666043640e-01 6.634829228788774458e-01
3.896855618632697471e-01 7.691231418676842679e-01
3.907261107599351302e-01 6.382085995859725358e-01
3.917666596566005133e-01 6.830073013782786973e-01
3.928072085532658964e-01 8.682114845106134737e-01
3.938477574499312794e-01 6.782522210947483643e-01
3.948883063465966625e-01 6.392509763574913961e-01
3.959288552432620456e-01 5.889335856251207701e-01
3.969694041399274287e-01 4.313669768083947531e-01
3.980099530365928118e-01 3.005157456668179350e-01
3.990505019332581949e-01 4.108164172827279970e-01
4.000910508299235779e-01 5.675313523750347144e-01
4.011315997265889610e-01 5.048457567970849880e-01
4.021721486232543441e-01 3.628662475094408535e-01
4.032126975199197272e-01 5.668281033864701612e-01
4.042532464165851103e-01 5.937856053479357854e-01
4.052937953132504934e-01 7.279698035433277425e-01
4.063343442099158764e-01 7.624593191078332666e-01
4.073748931065812595e-01 5.590615962282257101e-01
4.084154420032466426e-01 3.745477428639780726e-01
4.094559908999120257e-01 4.186969605396697602e-01
4.104965397965774088e-01 7.263129913345913735e-01
4.115370886932427918e-01 4.897173911835999149e-01
4.125776375899081749e-01 5.941565494149116944e-01
4.136181864865735580e-01 5.892100649973137649e-01
4.146587353832389411e-01 5.638721490129583458e-01
4.156992842799043242e-01 4.861829305663221135e-01
4.167398331765697073e-01 5.604980309669009841e-01
4.177803820732350903e-01 4.684708864577871168e-01
4.188209309699004734e-01 4.294243683477354523e-01
4.198614798665658565e-01 3.480158658839691554e-01
4.209020287632312396e-01 4.532977746740911584e-01
4.219425776598966227e-01 4.562261775636891059e-01
4.229831265565620058e-01 5.238771531986081698e-01
4.240236754532273888e-01 7.191921085349761711e-01
4.250642243498927719e-01 5.821746310395781165e-01
4.261047732465581550e-01 4.976708112305310294e-01
4.271453221432235381e-01 5.790384560669963321e-01
4.281858710398889212e-01 6.162542222447484619e-01
4.292264199365543043e-01 4.910000434079293541e-01
4.302669688332196873e-01 5.242645920397777104e-01
4.313075177298850704e-01 6.892344954058877704e-01
4.323480666265504535e-01 5.620580712545049096e-01
4.333886155232158366e-01 4.822803607422407879e-01
4.344291644198812197e-01 6.249624589757232229e-01
