# q (1/Angstrom), Intensity (arb)
2.029070354705860696e-02 1.432355994441184748e+03
2.133125244372399004e-02 1.422426067850665959e+03
2.237180134038937659e-02 1.414738188577718802e+03
2.341235023705475968e-02 1.408824740251654930e+03
2.445289913372014276e-02 1.404560329620221864e+03
2.549344803038552584e-02 1.392033059921436688e+03
2.653399692705091240e-02 1.373177842237764253e+03
2.757454582371629548e-02 1.365680349664108689e+03
2.861509472038167856e-02 1.349028252807964918e+03
2.965564361704706164e-02 1.330243505688603591e+03
3.069619251371244473e-02 1.311130802774444419e+03
3.173674141037782781e-02 1.294216817440382329e+03
3.277729030704321089e-02 1.275454858761876267e+03
3.381783920370859398e-02 1.258971117120824601e+03
3.485838810037397706e-02 1.238395785240864143e+03
3.589893699703936014e-02 1.217854126984258073e+03
3.693948589370474322e-02 1.197626343233521538e+03
3.798003479037012631e-02 1.174492208388358904e+03
3.902058368703550939e-02 1.153662113883699476e+03
4.006113258370089247e-02 1.132697930265715058e+03
4.110168148036627556e-02 1.112646017237381557e+03
4.214223037703165864e-02 1.089104761959103826e+03
4.318277927369704866e-02 1.063566270108126218e+03
4.422332817036243174e-02 1.039729669651289669e+03
4.526387706702781483e-02 1.012071347104939150e+03
4.630442596369319791e-02 9.886867522590464432e+02
4.734497486035858099e-02 9.722976341082051022e+02
4.838552375702396408e-02 9.505455963993479145e+02
4.942607265368934716e-02 9.216147134753254022e+02
5.046662155035473024e-02 8.991245286301027591e+02
5.150717044702011332e-02 8.775677125638692360e+02
5.254771934368549641e-02 8.497107628734991067e+02
5.358826824035087949e-02 8.258253764010113400e+02
5.462881713701626257e-02 8.022267973292090346e+02
5.566936603368164566e-02 7.786674343286803150e+02
5.670991493034702874e-02 7.595697976228261723e+02
5.775046382701241182e-02 7.381726802089040120e+02
5.879101272367779490e-02 7.128105667836144903e+02
5.983156162034317799e-02 6.886597220871476566e+02
6.087211051700856107e-02 6.671756340232227558e+02
6.191265941367394415e-02 6.426797383184572254e+02
6.295320831033933417e-02 6.222546811835485414e+02
6.399375720700471726e-02 6.008188570324857665e+02
6.503430610367010034e-02 5.802216908859261366e+02
6.607485500033548342e-02 5.579870086702416074e+02
6.711540389700086651e-02 5.377306271992292750e+02
6.815595279366624959e-02 5.197687189091734581e+02
6.919650169033163267e-02 4.991547051425458790e+02
7.023705058699701576e-02 4.784228656707161917e+02
7.127759948366239884e-02 4.591606734328648827e+02
7.231814838032778192e-02 4.397191097738920575e+02
7.335869727699316500e-02 4.208026506850783903e+02
7.439924617365854809e-02 4.023894063693956582e+02
7.543979507032393117e-02 3.843301420095793901e+02
7.648034396698931425e-02 3.669361093350754004e+02
7.752089286365469734e-02 3.498205577307736007e+02
7.856144176032008042e-02 3.340851773058686263e+02
7.960199065698546350e-02 3.173773986960885622e+02
8.064253955365084658e-02 3.017201974913639901e+02
8.168308845031622967e-02 2.878232070345086981e+02
8.272363734698161275e-02 2.737381404349552554e+02
8.376418624364699583e-02 2.577186638236782983e+02
8.480473514031239279e-02 2.426480607010719552e+02
8.584528403697777588e-02 2.310276762652533193e+02
8.688583293364315896e-02 2.186809132821870492e+02
8.792638183030854204e-02 2.056421896000856293e+02
8.896693072697392513e-02 1.926158510535566393e+02
9.000747962363930821e-02 1.806556323511768767e+02
9.104802852030469129e-02 1.700607262844277159e+02
9.208857741697007437e-02 1.597006574711543010e+02
9.312912631363545746e-02 1.492464714307935196e+02
9.416967521030084054e-02 1.392135839428610780e+02
9.521022410696622362e-02 1.297773790717313034e+02
9.625077300363160671e-02 1.211015883438394667e+02
9.729132190029698979e-02 1.124699368620502753e+02
9.833187079696237287e-02 1.046346494126508730e+02
9.937241969362775595e-02 9.716938282192209897e+01
1.004129685902931390e-01 8.986342876170633076e+01
1.014535174869585221e-01 8.273657851296988497e+01
1.024940663836239052e-01 7.616842846915380960e+01
1.035346152802892883e-01 6.935988792227712452e+01
1.045751641769546714e-01 6.333480189035847019e+01
1.056157130736200545e-01 5.741904675880333286e+01
1.066562619702854375e-01 5.252732309507292996e+01
1.076968108669508206e-01 4.741528209978597630e+01
1.087373597636162037e-01 4.285929621588763894e+01
1.097779086602815868e-01 3.924209726661307940e+01
1.108184575569469699e-01 3.541449153938263805e+01
1.118590064536123529e-01 3.176450526387425910e+01
1.128995553502777360e-01 2.771366282144840909e+01
1.139401042469431191e-01 2.406488893514015359e+01
1.149806531436085022e-01 2.137830014305983894e+01
1.160212020402738853e-01 1.962622632385708599e+01
1.170617509369392684e-01 1.764998322582201595e+01
1.181022998336046514e-01 1.515591277369947676e+01
1.191428487302700345e-01 1.285222405905293286e+01
1.201833976269354176e-01 1.084963334806753110e+01
1.212239465236008007e-01 9.355018231252060446e+00
1.222644954202661838e-01 8.136179255157312440e+00
1.233050443169315669e-01 6.465664507397384853e+00
1.243455932135969499e-01 5.620545539185666684e+00
1.253861421102623330e-01 4.837234731937456900e+00
1.264266910069277161e-01 4.341613801303509490e+00
1.274672399035930992e-01 3.569319401547605963e+00
1.285077888002584823e-01 3.219293666725533853e+00
1.295483376969238654e-01 2.889273457970308101e+00
1.305888865935892484e-01 2.478326388039256756e+00
1.316294354902546315e-01 2.390384096433095351e+00
1.326699843869200146e-01 2.302138780116695926e+00
1.337105332835853977e-01 2.186772113822321728e+00
1.347510821802507808e-01 2.245216919856034110e+00
1.357916310769161639e-01 2.308724659573186955e+00
1.368321799735815469e-01 1.900789466931097849e+00
1.378727288702469300e-01 1.999319395240075181e+00
1.389132777669123131e-01 2.970343603257358467e+00
1.399538266635776962e-01 3.313992823694221102e+00
1.409943755602430793e-01 3.304097270949128529e+00
1.420349244569084624e-01 4.055705689204103237e+00
1.430754733535738454e-01 4.378530828590267987e+00
1.441160222502392285e-01 4.763623690488419271e+00
1.451565711469046116e-01 5.341631381184882343e+00
1.461971200435699947e-01 5.723535711591384967e+00
1.472376689402353778e-01 6.053010802876716667e+00
1.482782178369007609e-01 6.360312460345376451e+00
1.493187667335661439e-01 6.711734608506237265e+00
1.503593156302315270e-01 7.179240641891201591e+00
1.513998645268969101e-01 7.753565185363868295e+00
1.524404134235622932e-01 8.448831696038872963e+00
1.534809623202276763e-01 8.494263001750351094e+00
1.545215112168930593e-01 9.006993625193970843e+00
1.555620601135584424e-01 9.334277980590307777e+00
1.566026090102238255e-01 9.596490268724092942e+00
1.576431579068892086e-01 1.030655618666480322e+01
1.586837068035545917e-01 1.041997125506991040e+01
1.597242557002199748e-01 1.086390991985274468e+01
1.607648045968853578e-01 1.103749070881059424e+01
1.618053534935507409e-01 1.078334841438029557e+01
1.628459023902161240e-01 1.136004656145378533e+01
1.638864512868815071e-01 1.178107774489430426e+01
1.649270001835468902e-01 1.188178114466020929e+01
1.659675490802122733e-01 1.166858333396905678e+01
1.670080979768776563e-01 1.165716413927490080e+01
1.680486468735430672e-01 1.149036842344677112e+01
1.690891957702084503e-01 1.139868910172974381e+01
1.701297446668738333e-01 1.134314324419546338e+01
1.711702935635392164e-01 1.109716764660502974e+01
1.722108424602045995e-01 1.114789064072968117e+01
1.732513913568699826e-01 1.122109833037852411e+01
1.742919402535353657e-01 1.119374828432271229e+01
1.753324891502007488e-01 1.107677968769453969e+01
1.763730380468661318e-01 1.085636277525571813e+01
1.774135869435315149e-01 1.074057340333828492e+01
1.784541358401968980e-01 1.066233163638151282e+01
1.794946847368622811e-01 1.002205695797998075e+01
1.805352336335276642e-01 9.881126675676608073e+00
1.815757825301930473e-01 9.435653320356099272e+00
1.826163314268584303e-01 9.437950031815287133e+00
1.836568803235238134e-01 9.205550617150695558e+00
1.846974292201891965e-01 8.767115328049019496e+00
1.857379781168545796e-01 8.453790476552867972e+00
1.867785270135199627e-01 7.890351294858611197e+00
1.878190759101853458e-01 7.694889942848305964e+00
1.888596248068507288e-01 7.483999931639360170e+00
1.899001737035161119e-01 6.979149006202970185e+00
1.909407226001814950e-01 6.903238768019189564e+00
1.919812714968468781e-01 6.712861706099428005e+00
1.930218203935122612e-01 6.461375963416738699e+00
1.940623692901776443e-01 6.210643537823539617e+00
1.951029181868430273e-01 5.960229281210896346e+00
1.961434670835084104e-01 5.283898338478614676e+00
1.971840159801737935e-01 5.216890656057557862e+00
1.982245648768391766e-01 4.899438428391018618e+00
1.992651137735045597e-01 4.679291544080250276e+00
2.003056626701699428e-01 4.048855611223828532e+00
2.013462115668353813e-01 3.804490546598781719e+00
2.023867604635007644e-01 3.748011568887623213e+00
2.034273093601661475e-01 3.857223463733706836e+00
2.044678582568315306e-01 3.884263854307068442e+00
2.055084071534969137e-01 3.314378878796762962e+00
2.065489560501622968e-01 2.902458302912851451e+00
2.075895049468276798e-01 2.916931344605728782e+00
2.086300538434930629e-01 2.767430860567390738e+00
2.096706027401584460e-01 2.216186107203913735e+00
2.107111516368238291e-01 1.831296200039378874e+00
2.117517005334892122e-01 1.482627336273480978e+00
2.127922494301545953e-01 1.331693969847506764e+00
2.138327983268199783e-01 1.380182463411504301e+00
2.148733472234853614e-01 1.252168671950215639e+00
2.159138961201507445e-01 1.062436498396092333e+00
2.169544450168161276e-01 1.091280815499118262e+00
2.179949939134815107e-01 1.166583475325730035e+00
2.190355428101468938e-01 1.099248434525154750e+00
2.200760917068122768e-01 9.343137591721912827e-01
2.211166406034776599e-01 6.594401884481655429e-01
2.221571895001430430e-01 7.292376074529087759e-01
2.231977383968084261e-01 7.266530381684219719e-01
2.242382872934738092e-01 8.416390424234556633e-01
2.252788361901391923e-01 9.055253067649715604e-01
2.263193850868045753e-01 7.041514934613566368e-01
2.273599339834699584e-01 3.799469149395839906e-01
2.284004828801353415e-01 5.389757551373790534e-01
2.294410317768007246e-01 5.848076439756937361e-01
2.304815806734661077e-01 2.190940452143870232e-01
2.315221295701314908e-01 2.868693424857013952e-01
2.325626784667968738e-01 4.746057922677024976e-01
2.336032273634622569e-01 5.604226965011349648e-01
2.346437762601276400e-01 8.128767594023109666e-01
2.356843251567930231e-01 5.883695071872594440e-01
2.367248740534584062e-01 5.552066556254864338e-01
2.377654229501237892e-01 6.878021349593907985e-01
2.388059718467891723e-01 6.422709963405992539e-01
2.398465207434545554e-01 1.048686714029607003e+00
2.408870696401199385e-01 1.003945822975776281e+00
2.419276185367853216e-01 9.382397378715587877e-01
2.429681674334507047e-01 8.503455672675315213e-01
2.440087163301160877e-01 7.122952685824088803e-01
2.450492652267814708e-01 8.452509742957232675e-01
2.460898141234468539e-01 1.206277840279060598e+00
2.471303630201122370e-01 1.207023170258537448e+00
2.481709119167776201e-01 1.257693045950063038e+00
2.492114608134430032e-01 1.137068602230595360e+00
2.502520097101083585e-01 1.423611868857623364e+00
2.512925586067737416e-01 1.440338947116352131e+00
2.523331075034391247e-01 1.539731049081094483e+00
2.533736564001045077e-01 1.466964415824726586e+00
2.544142052967698908e-01 1.880557337668786744e+00
2.554547541934352739e-01 1.924101550325985954e+00
2.564953030901006570e-01 1.903992380268409335e+00
2.575358519867660401e-01 2.157305709239388136e+00
2.585764008834314231e-01 2.023765560310657463e+00
2.596169497800968062e-01 1.779363925959081882e+00
2.606574986767621893e-01 1.894758435200735391e+00
2.616980475734275724e-01 1.625050540661536758e+00
2.627385964700929555e-01 1.359013626993920809e+00
2.637791453667583386e-01 1.439865650454333235e+00
2.648196942634237216e-01 1.521072349766427578e+00
2.658602431600891047e-01 1.767751321759273964e+00
2.669007920567544878e-01 1.798780356438388850e+00
2.679413409534198709e-01 1.831384551710968367e+00
2.689818898500852540e-01 1.918825518848301215e+00
2.700224387467506371e-01 1.791154336547446491e+00
2.710629876434160201e-01 1.660177947771440898e+00
2.721035365400814032e-01 1.754603290625794898e+00
2.731440854367467863e-01 1.877204160880058481e+00
2.741846343334121694e-01 1.842001062273649126e+00
2.752251832300775525e-01 2.143765038549137358e+00
2.762657321267429356e-01 1.805305920170781064e+00
2.773062810234083186e-01 1.680940177051780893e+00
2.783468299200737017e-01 1.310456574280205899e+00
2.793873788167390848e-01 1.242863246406646027e+00
2.804279277134044679e-01 1.597201306733975201e+00
2.814684766100698510e-01 1.712430268883167628e+00
2.825090255067352341e-01 1.285553157337663066e+00
2.835495744034006171e-01 1.159731499626364126e+00
2.845901233000660002e-01 1.130407195053329872e+00
2.856306721967313833e-01 1.385925783594544214e+00
2.866712210933967664e-01 1.307044744948662185e+00
2.877117699900621495e-01 1.140812050216368334e+00
2.887523188867275326e-01 1.052930396157197634e+00
2.897928677833929156e-01 9.789106986433857571e-01
2.908334166800582987e-01 9.482914486296891710e-01
2.918739655767236818e-01 9.778480718611533007e-01
2.929145144733890649e-01 1.065641312536818930e+00
2.939550633700544480e-01 9.377476103879196501e-01
2.949956122667198311e-01 8.772989407293074748e-01
2.960361611633852141e-01 6.558140906181613161e-01
2.970767100600505972e-01 5.744098994888737764e-01
2.981172589567159803e-01 6.761202590244614896e-01
2.991578078533813634e-01 6.853122487116216632e-01
3.001983567500468020e-01 8.922675198058449553e-01
3.012389056467121851e-01 7.041433277200930263e-01
3.022794545433775681e-01 4.849767743657800168e-01
3.033200034400429512e-01 4.885845741525187691e-01
3.043605523367083343e-01 3.572245758142145178e-01
3.054011012333737174e-01 2.607305436102294038e-01
3.064416501300391005e-01 4.926299676818857165e-01
3.074821990267044836e-01 6.402081624721915887e-01
3.085227479233698666e-01 4.654162772940253490e-01
3.095632968200352497e-01 2.792621722199726264e-01
3.106038457167006328e-01 5.940221490961832274e-01
3.116443946133660159e-01 7.389175905697804581e-01
3.126849435100313990e-01 3.046514500661210434e-01
3.137254924066967821e-01 4.054700533866117951e-01
3.147660413033621651e-01 2.149908116392538204e-01
3.158065902000275482e-01 9.744856586294048384e-02
3.168471390966929313e-01 2.150002702473301497e-01
3.178876879933583144e-01 2.753493962943736051e-01
3.189282368900236975e-01 6.662575214627963760e-02
3.199687857866890806e-01 1.979017410389580789e-01
3.210093346833544636e-01 2.032436634401797448e-01
3.220498835800198467e-01 2.072933155428131613e-01
3.230904324766852298e-01 3.288945490579813224e-01
3.241309813733506129e-01 4.007039269520618063e-01
3.251715302700159960e-01 4.369764990142392946e-01
3.262120791666813790e-01 5.821810773361484337e-01
3.272526280633467621e-01 5.580170189482664966e-01
3.282931769600121452e-01 2.613442558301670715e-01
3.293337258566775283e-01 1.769490466733145695e-01
3.303742747533429114e-01 4.836243211519395402e-01
3.314148236500082945e-01 4.962820327442472035e-01
3.324553725466736775e-01 4.679542027396230708e-01
3.334959214433390606e-01 3.081738683822372593e-01
3.345364703400044437e-01 3.262380909591584555e-01
3.355770192366698268e-01 5.388355920920595565e-01
3.366175681333352099e-01 7.386461484399191590e-01
3.376581170300005930e-01 6.668124183841470654e-01
3.386986659266659760e-01 5.724244490870411539e-01
3.397392148233313591e-01 5.385272966857854726e-01
3.407797637199967422e-01 2.627281506771126374e-01
3.418203126166621253e-01 3.389500399297595834e-01
3.428608615133275084e-01 5.762734643362641407e-01
3.439014104099928915e-01 5.542345378522171018e-01
3.449419593066582745e-01 6.067822070826345282e-01
3.459825082033236576e-01 4.380806038003370873e-01
3.470230570999890407e-01 5.482136705972422419e-01
3.480636059966544238e-01 4.908268810109497338e-01
3.491041548933198069e-01 5.596715860572452073e-01
3.501447037899851900e-01 5.751144003708219543e-01
3.511852526866505730e-01 6.105716854024763052e-01
3.522258015833159561e-01 6.246869559871974786e-01
3.532663504799813392e-01 6.173684557499221626e-01
3.543068993766467223e-01 5.044264250364598468e-01
3.553474482733121054e-01 5.688115221313907455e-01
3.563879971699774885e-01 5.405290028609428532e-01
3.574285460666428715e-01 6.125526005595922641e-01
3.584690949633082546e-01 6.854594747386855147e-01
3.595096438599736377e-01 5.329319950554776142e-01
3.605501927566390208e-01 2.816309585230705181e-01
3.615907416533044039e-01 4.748221061403476995e-01
3.626312905499697870e-01 4.207729310324523908e-01
3.636718394466351700e-01 4.883275496584325026e-01
3.647123883433005531e-01 5.768845066897050344e-01
3.657529372399659362e-01 6.329978435297114459e-01
3.667934861366313193e-01 5.302064332618989795e-01
3.678340350332967024e-01 5.515941834830933033e-01
3.688745839299620854e-01 6.106070686079263510e-01
3.699151328266274685e-01 6.611698984514262634e-01
3.709556817232928516e-01 7.585958814600921585e-01
3.719962306199582347e-01 8.300253685636569401e-01
3.730367795166236178e-01 6.815945408590593502e-01
3.740773284132890009e-01 4.876506965966882490e-01
3.751178773099543839e-01 6.336051981618098239e-01
3.761584262066197670e-01 7.178577683120224151e-01
3.771989751032851501e-01 5.169465420564627323e-01
3.782395239999505332e-01 6.048520484157222654e-01
3.792800728966159163e-01 5.438506752908232045e-01
3.803206217932812994e-01 6.875130127113138201e-01
3.813611706899466824e-01 6.790972259196941252e-01
3.824017195866120655e-01 4.282007213810672397e-01
3.834422684832774486e-01 4.084087306748820367e-01
3.844828173799428317e-01 4.637717518134785166e-01
3.855233662766082148e-01 5.530568145026535376e-01
3.865639151732735979e-01 6.489222405399779348e-01
3.876044640699389809e-01 5.779488161969226212e-01
3.886450129666043640e-01 4.839590884395796877e-01
3.896855618632697471e-01 3.560601861665553258e-01
3.907261107599351302e-01 3.492625598483840577e-01
3.917666596566005133e-01 3.453168419740180184e-01
3.928072085532658964e-01 3.228037360794395738e-01
3.938477574499312794e-01 2.227700938859271673e-01
3.948883063465966625e-01 1.313303270702910197e-01
3.959288552432620456e-01 3.011879086184414689e-01
3.969694041399274287e-01 3.197657695533671074e-01
3.980099530365928118e-01 4.529627311197721440e-01
3.990505019332581949e-01 3.888509323886850666e-01
4.000910508299235779e-01 3.472810151291909619e-01
4.011315997265889610e-01 3.022736753695340894e-01
4.021721486232543441e-01 2.401455675144781310e-01
4.032126975199197272e-01 2.185516099205990770e-01
4.042532464165851103e-01 1.064179989858047293e-01
4.052937953132504934e-01 5.630191212441815196e-02
4.063343442099158764e-01 1.459028614220656550e-01
4.073748931065812595e-01 4.464860369049645783e-01
4.084154420032466426e-01 4.495173165839005947e-01
4.094559908999120257e-01 2.687403604100211396e-01
4.104965397965774088e-01 4.574431122014388507e-02
4.115370886932427918e-01 2.952267662348226906e-01
4.125776375899081749e-01 2.742039477922091351e-01
4.136181864865735580e-01 2.943909926061003546e-01
4.146587353832389411e-01 2.615535270359394815e-01
4.156992842799043242e-01 3.177105626068730260e-01
4.167398331765697073e-01 3.091870325549024301e-01
4.177803820732350903e-01 3.578014885271549872e-01
4.188209309699004734e-01 3.366787699102467002e-01
4.198614798665658565e-01 2.886726256144811487e-01
4.209020287632312396e-01 1.953124197818851826e-01
4.219425776598966227e-01 2.753493021020325671e-01
4.229831265565620058e-01 3.250487631103844421e-01
4.240236754532273888e-01 3.503211873885057059e-01
4.250642243498927719e-01 2.373788210024407874e-01
4.261047732465581550e-01 2.496391845822856226e-01
4.271453221432235381e-01 4.423866703902064046e-01
4.281858710398889212e-01 5.591328778097164331e-01
4.292264199365543043e-01 5.904584018612730745e-01
4.302669688332196873e-01 4.123981090417423445e-01
4.313075177298850704e-01 2.755622554187091566e-01
4.323480666265504535e-01 2.266473893312870302e-01
4.333886155232158366e-01 1.494969398441234887e-01
4.344291644198812197e-01 2.738538136071930751e-01
