# q (1/Angstrom), Intensity (arb)
2.029070354705860696e-02 1.364664085736917514e+03
2.133125244372399004e-02 1.355801210260613288e+03
2.237180134038937659e-02 1.347496979700284101e+03
2.341235023705475968e-02 1.340531007503570663e+03
2.445289913372014276e-02 1.333756710653593927e+03
2.549344803038552584e-02 1.322349786821856469e+03
2.653399692705091240e-02 1.302982993621464402e+03
2.757454582371629548e-02 1.292434799787650263e+03
2.861509472038167856e-02 1.280955868493778326e+03
2.965564361704706164e-02 1.267661550199819658e+03
3.069619251371244473e-02 1.247150159551899151e+03
3.173674141037782781e-02 1.231963937487570547e+03
3.277729030704321089e-02 1.212019386388489011e+03
3.381783920370859398e-02 1.194462818448069129e+03
3.485838810037397706e-02 1.176057850668885294e+03
3.589893699703936014e-02 1.157323099851062352e+03
3.693948589370474322e-02 1.140842225466445370e+03
3.798003479037012631e-02 1.119711113227958094e+03
3.902058368703550939e-02 1.096502983513159961e+03
4.006113258370089247e-02 1.076615328289455192e+03
4.110168148036627556e-02 1.052622842667370151e+03
4.214223037703165864e-02 1.033189531040738302e+03
4.318277927369704866e-02 1.010895831955561903e+03
4.422332817036243174e-02 9.899262629453415911e+02
4.526387706702781483e-02 9.671238072300079693e+02
4.630442596369319791e-02 9.423968707245851419e+02
4.734497486035858099e-02 9.196362673214412098e+02
4.838552375702396408e-02 8.973504827681545066e+02
4.942607265368934716e-02 8.747473553790118785e+02
5.046662155035473024e-02 8.532253701071242631e+02
5.150717044702011332e-02 8.306454083842116916e+02
5.254771934368549641e-02 8.082535972896854446e+02
5.358826824035087949e-02 7.857789496232732063e+02
5.462881713701626257e-02 7.632623091135677669e+02
5.566936603368164566e-02 7.420778195892480653e+02
5.670991493034702874e-02 7.177581562302050315e+02
5.775046382701241182e-02 6.955688410235806032e+02
5.879101272367779490e-02 6.737182876753638539e+02
5.983156162034317799e-02 6.540568539913396080e+02
6.087211051700856107e-02 6.330614250340778426e+02
6.191265941367394415e-02 6.124226857929558037e+02
6.295320831033933417e-02 5.911490362853639908e+02
6.399375720700471726e-02 5.694181492294824238e+02
6.503430610367010034e-02 5.489514157958653868e+02
6.607485500033548342e-02 5.285184481650675252e+02
6.711540389700086651e-02 5.095131478489799406e+02
6.815595279366624959e-02 4.893030192765120887e+02
6.919650169033163267e-02 4.692262557028905690e+02
7.023705058699701576e-02 4.504902048031698882e+02
7.127759948366239884e-02 4.329943711411942786e+02
7.231814838032778192e-02 4.140008597293697790e+02
7.335869727699316500e-02 3.953207801061615214e+02
7.439924617365854809e-02 3.791798811539572398e+02
7.543979507032393117e-02 3.614262623562494809e+02
7.648034396698931425e-02 3.464945205912059691e+02
7.752089286365469734e-02 3.311528763979981704e+02
7.856144176032008042e-02 3.157602064663805095e+02
7.960199065698546350e-02 2.996794654414526917e+02
8.064253955365084658e-02 2.847314285532341387e+02
8.168308845031622967e-02 2.701427716922259492e+02
8.272363734698161275e-02 2.573406944237291896e+02
8.376418624364699583e-02 2.432146731282152530e+02
8.480473514031239279e-02 2.297414590626278823e+02
8.584528403697777588e-02 2.171423655718112400e+02
8.688583293364315896e-02 2.040524825296537585e+02
8.792638183030854204e-02 1.933281584100400892e+02
8.896693072697392513e-02 1.830240723039993895e+02
9.000747962363930821e-02 1.715798830768466985e+02
9.104802852030469129e-02 1.613190673696289537e+02
9.208857741697007437e-02 1.510334039511191975e+02
9.312912631363545746e-02 1.408744661445209374e+02
9.416967521030084054e-02 1.313350489732602853e+02
9.521022410696622362e-02 1.221902140520766267e+02
9.625077300363160671e-02 1.134986855304827316e+02
9.729132190029698979e-02 1.060495682144009777e+02
9.833187079696237287e-02 9.862821132853028416e+01
9.937241969362775595e-02 9.122284241420965145e+01
1.004129685902931390e-01 8.386748658574752824e+01
1.014535174869585221e-01 7.772839191737139686e+01
1.024940663836239052e-01 7.117165397892802048e+01
1.035346152802892883e-01 6.438274459208045641e+01
1.045751641769546714e-01 5.830067838385048162e+01
1.056157130736200545e-01 5.445237139906282664e+01
1.066562619702854375e-01 4.977769131145654313e+01
1.076968108669508206e-01 4.524873449200148201e+01
1.087373597636162037e-01 4.115071754397863657e+01
1.097779086602815868e-01 3.717133562529708968e+01
1.108184575569469699e-01 3.344632263120819715e+01
1.118590064536123529e-01 2.923785634479752815e+01
1.128995553502777360e-01 2.587918785244466591e+01
1.139401042469431191e-01 2.261605037969344778e+01
1.149806531436085022e-01 2.007226273353997925e+01
1.160212020402738853e-01 1.775230964030708236e+01
1.170617509369392684e-01 1.540806912509008697e+01
1.181022998336046514e-01 1.352667664480153320e+01
1.191428487302700345e-01 1.189300249066223358e+01
1.201833976269354176e-01 1.048123170437289531e+01
1.212239465236008007e-01 9.403377616348500112e+00
1.222644954202661838e-01 7.391037761046739263e+00
1.233050443169315669e-01 6.018216196197755607e+00
1.243455932135969499e-01 4.953445559477152926e+00
1.253861421102623330e-01 4.315790589660892351e+00
1.264266910069277161e-01 3.650081396318938687e+00
1.274672399035930992e-01 3.345144588062360924e+00
1.285077888002584823e-01 2.599734962140495043e+00
1.295483376969238654e-01 2.290538375258201143e+00
1.305888865935892484e-01 2.080122218287172586e+00
1.316294354902546315e-01 1.931067530058903969e+00
1.326699843869200146e-01 1.712808379310224893e+00
1.337105332835853977e-01 1.583264691598884610e+00
1.347510821802507808e-01 1.615398226326611564e+00
1.357916310769161639e-01 2.009089881992174753e+00
1.368321799735815469e-01 2.209911986710494602e+00
1.378727288702469300e-01 1.877588858546253903e+00
1.389132777669123131e-01 2.081649449852740474e+00
1.399538266635776962e-01 2.595068603969096444e+00
1.409943755602430793e-01 2.941870274672510277e+00
1.420349244569084624e-01 3.340084350595482476e+00
1.430754733535738454e-01 4.073530760498172754e+00
1.441160222502392285e-01 4.338844946111528600e+00
1.451565711469046116e-01 4.710290427728132556e+00
1.461971200435699947e-01 5.023133288364647342e+00
1.472376689402353778e-01 5.333369477386803226e+00
1.482782178369007609e-01 6.049084919157891704e+00
1.493187667335661439e-01 6.545743686364083658e+00
1.503593156302315270e-01 6.591567360384750884e+00
1.513998645268969101e-01 6.923560705393796866e+00
1.524404134235622932e-01 7.511728823141382350e+00
1.534809623202276763e-01 7.840095994494880927e+00
1.545215112168930593e-01 8.225463738041575823e+00
1.555620601135584424e-01 8.472334259175219984e+00
1.566026090102238255e-01 8.945889222755901926e+00
1.576431579068892086e-01 9.112211477164244400e+00
1.586837068035545917e-01 9.455999004483558679e+00
1.597242557002199748e-01 9.516806898373744161e+00
1.607648045968853578e-01 9.661616415320217754e+00
1.618053534935507409e-01 9.897254189504131716e+00
1.628459023902161240e-01 1.006792825597721475e+01
1.638864512868815071e-01 1.018415506452770103e+01
1.649270001835468902e-01 1.041948755587763742e+01
1.659675490802122733e-01 1.056967801368861615e+01
1.670080979768776563e-01 1.075820334246149912e+01
1.680486468735430672e-01 1.050646874447509305e+01
1.690891957702084503e-01 1.055679255174247544e+01
1.701297446668738333e-01 1.083540245562156201e+01
1.711702935635392164e-01 1.065416180091430221e+01
1.722108424602045995e-01 9.827586347637833342e+00
1.732513913568699826e-01 1.024932551172224748e+01
1.742919402535353657e-01 1.067041143323172037e+01
1.753324891502007488e-01 1.047361796096213027e+01
1.763730380468661318e-01 1.012810217433722215e+01
1.774135869435315149e-01 1.002547316961175028e+01
1.784541358401968980e-01 9.863255777095332633e+00
1.794946847368622811e-01 9.311367913138454355e+00
1.805352336335276642e-01 8.522956330183710350e+00
1.815757825301930473e-01 8.964534288889289826e+00
1.826163314268584303e-01 8.848873419008306485e+00
1.836568803235238134e-01 8.614802039054602290e+00
1.846974292201891965e-01 8.118825403668914475e+00
1.857379781168545796e-01 7.872192025264588722e+00
1.867785270135199627e-01 7.745082699498787804e+00
1.878190759101853458e-01 7.639064824209228277e+00
1.888596248068507288e-01 7.441749642760122185e+00
1.899001737035161119e-01 6.772479586379787975e+00
1.909407226001814950e-01 6.470082012756094514e+00
1.919812714968468781e-01 6.275272986063598069e+00
1.930218203935122612e-01 6.157935019054356474e+00
1.940623692901776443e-01 5.577322898061005674e+00
1.951029181868430273e-01 5.284850606898725545e+00
1.961434670835084104e-01 4.863245097363460445e+00
1.971840159801737935e-01 4.329069454371179404e+00
1.982245648768391766e-01 4.149592597455487919e+00
1.992651137735045597e-01 4.318225647646240617e+00
2.003056626701699428e-01 3.895158148523332642e+00
2.013462115668353813e-01 3.485436146208062524e+00
2.023867604635007644e-01 3.441261748091598349e+00
2.034273093601661475e-01 3.476791743271142821e+00
2.044678582568315306e-01 3.122865684146219678e+00
2.055084071534969137e-01 2.388365491825247489e+00
2.065489560501622968e-01 2.202966437580506920e+00
2.075895049468276798e-01 2.037896913038601099e+00
2.086300538434930629e-01 1.599389145056317574e+00
2.096706027401584460e-01 1.907709345900769904e+00
2.107111516368238291e-01 1.953224454497910045e+00
2.117517005334892122e-01 1.597972535686437823e+00
2.127922494301545953e-01 1.610818132390750890e+00
2.138327983268199783e-01 1.440080651922318822e+00
2.148733472234853614e-01 9.473825259012507161e-01
2.159138961201507445e-01 9.237278919241944664e-01
2.169544450168161276e-01 9.976920394775383727e-01
2.179949939134815107e-01 1.044879411987487572e+00
2.190355428101468938e-01 1.016779888995817061e+00
2.200760917068122768e-01 8.455712108717001740e-01
2.211166406034776599e-01 5.810214449118369373e-01
2.221571895001430430e-01 3.029393607153174628e-01
2.231977383968084261e-01 2.837056110750637572e-01
2.242382872934738092e-01 4.595808434307997459e-01
2.252788361901391923e-01 3.525562308216763086e-01
2.263193850868045753e-01 3.712569012313373662e-01
2.273599339834699584e-01 3.260227742750458901e-01
2.284004828801353415e-01 6.158205982404325596e-01
2.294410317768007246e-01 7.721533611777431361e-01
2.304815806734661077e-01 7.308815699286732581e-01
2.315221295701314908e-01 6.331138406049419132e-01
2.325626784667968738e-01 6.090505573127984462e-01
2.336032273634622569e-01 6.200839299931715232e-01
2.346437762601276400e-01 5.156743384146409426e-01
2.356843251567930231e-01 7.383283676788856553e-01
2.367248740534584062e-01 9.860068384212965498e-01
2.377654229501237892e-01 1.024065368560865608e+00
2.388059718467891723e-01 5.636355291308525750e-01
2.398465207434545554e-01 5.162572220528680589e-01
2.408870696401199385e-01 6.443802279315704595e-01
2.419276185367853216e-01 7.875936643534267034e-01
2.429681674334507047e-01 8.357849973774342800e-01
2.440087163301160877e-01 9.255856192734235321e-01
2.450492652267814708e-01 8.539063582221366744e-01
2.460898141234468539e-01 8.263363631843425594e-01
2.471303630201122370e-01 9.762868413279015556e-01
2.481709119167776201e-01 9.918991151371585602e-01
2.492114608134430032e-01 9.431174687010610569e-01
2.502520097101083585e-01 1.145853386017890330e+00
2.512925586067737416e-01 1.544285788650302749e+00
2.523331075034391247e-01 1.476004912516906131e+00
2.533736564001045077e-01 1.479361273490873430e+00
2.544142052967698908e-01 1.613099661580381650e+00
2.554547541934352739e-01 1.533495388831159545e+00
2.564953030901006570e-01 1.640685048435162940e+00
2.575358519867660401e-01 1.747798308508297538e+00
2.585764008834314231e-01 1.630873651006250924e+00
2.596169497800968062e-01 1.626961380491902531e+00
2.606574986767621893e-01 1.422035196831494375e+00
2.616980475734275724e-01 1.614914977591176637e+00
2.627385964700929555e-01 1.952492201943012873e+00
2.637791453667583386e-01 2.053162004148099129e+00
2.648196942634237216e-01 1.873042535723094204e+00
2.658602431600891047e-01 1.906722674191428268e+00
2.669007920567544878e-01 1.681642045727187451e+00
2.679413409534198709e-01 1.629780790043355410e+00
2.689818898500852540e-01 1.509848456277506301e+00
2.700224387467506371e-01 1.518205233027106971e+00
2.710629876434160201e-01 1.894616771110086972e+00
2.721035365400814032e-01 1.712996508841641230e+00
2.731440854367467863e-01 1.420003443740402105e+00
2.741846343334121694e-01 1.391695722311265371e+00
2.752251832300775525e-01 1.590456668725408917e+00
2.762657321267429356e-01 1.588897724916272125e+00
2.773062810234083186e-01 1.625703741657826384e+00
2.783468299200737017e-01 1.659982462771417033e+00
2.793873788167390848e-01 1.636429589304253085e+00
2.804279277134044679e-01 1.377276589693000375e+00
2.814684766100698510e-01 1.227355080484159089e+00
2.825090255067352341e-01 1.442850628343176567e+00
2.835495744034006171e-01 1.444452750141465458e+00
2.845901233000660002e-01 1.178250002316314493e+00
2.856306721967313833e-01 1.214246276432994875e+00
2.866712210933967664e-01 1.163422681521797841e+00
2.877117699900621495e-01 1.174479426864493803e+00
2.887523188867275326e-01 1.260542803287513891e+00
2.897928677833929156e-01 1.193599357058413801e+00
2.908334166800582987e-01 1.139672786348821631e+00
2.918739655767236818e-01 9.713129104375113343e-01
2.929145144733890649e-01 8.257261882243902562e-01
2.939550633700544480e-01 1.042894229888105428e+00
2.949956122667198311e-01 9.651221129693752232e-01
2.960361611633852141e-01 6.807567259974014462e-01
2.970767100600505972e-01 7.225993939279966582e-01
2.981172589567159803e-01 6.792439962195508940e-01
2.991578078533813634e-01 7.051960620963271253e-01
3.001983567500468020e-01 5.950906746464355024e-01
3.012389056467121851e-01 6.096269833373284541e-01
3.022794545433775681e-01 8.281195101275180548e-01
3.033200034400429512e-01 5.961289171422414768e-01
3.043605523367083343e-01 5.296080165483587621e-01
3.054011012333737174e-01 6.369753230745445194e-01
3.064416501300391005e-01 5.122389637106863347e-01
3.074821990267044836e-01 2.717228131983198125e-01
3.085227479233698666e-01 1.978704715296935035e-01
3.095632968200352497e-01 4.990901122669093581e-01
3.106038457167006328e-01 7.245642830592800010e-01
3.116443946133660159e-01 6.147181305067483947e-01
3.126849435100313990e-01 7.240125520838560647e-01
3.137254924066967821e-01 6.068361498325778314e-01
3.147660413033621651e-01 3.754503871553538374e-01
3.158065902000275482e-01 1.744602241803789866e-01
3.168471390966929313e-01 2.068652802107990851e-01
3.178876879933583144e-01 4.239860593568423042e-01
3.189282368900236975e-01 3.599484091984095357e-01
3.199687857866890806e-01 4.804450060513687504e-01
3.210093346833544636e-01 3.771630817007292080e-01
3.220498835800198467e-01 2.131605556826983161e-01
3.230904324766852298e-01 2.341453989313428963e-01
3.241309813733506129e-01 3.688702421710630119e-01
3.251715302700159960e-01 4.082444538387477451e-01
3.262120791666813790e-01 7.863878552714353987e-02
3.272526280633467621e-01 0.000000000000000000e+00
3.282931769600121452e-01 1.906592501485491198e-01
3.293337258566775283e-01 1.024850020343848200e-01
3.303742747533429114e-01 3.531909342088326298e-01
3.314148236500082945e-01 5.978433790516248791e-01
3.324553725466736775e-01 5.034227915016984412e-01
3.334959214433390606e-01 3.896253665929165777e-01
3.345364703400044437e-01 3.886037586143835654e-01
3.355770192366698268e-01 4.377956915839078533e-01
3.366175681333352099e-01 4.240451336374349012e-01
3.376581170300005930e-01 3.532432926803252826e-01
3.386986659266659760e-01 4.150363653823241350e-01
3.397392148233313591e-01 4.960098139696107467e-01
3.407797637199967422e-01 3.517381778148731541e-01
3.418203126166621253e-01 4.600166576788140560e-01
3.428608615133275084e-01 4.137869589138922777e-01
3.439014104099928915e-01 3.643683850027770177e-01
3.449419593066582745e-01 3.253499773636967518e-01
3.459825082033236576e-01 6.439281777362815262e-01
3.470230570999890407e-01 5.280528097525625242e-01
3.480636059966544238e-01 4.920954086337623323e-01
3.491041548933198069e-01 4.022039746469303623e-01
3.501447037899851900e-01 4.533867262747435234e-01
3.511852526866505730e-01 5.024231995852339594e-01
3.522258015833159561e-01 6.361087974892676300e-01
3.532663504799813392e-01 5.821455269953688116e-01
3.543068993766467223e-01 6.196343568319555573e-01
3.553474482733121054e-01 6.286919062238816025e-01
3.563879971699774885e-01 5.094638901012231713e-01
3.574285460666428715e-01 6.631428436467174947e-01
3.584690949633082546e-01 9.025567230956141884e-01
3.595096438599736377e-01 7.635089708113085294e-01
3.605501927566390208e-01 5.925180694652532054e-01
3.615907416533044039e-01 7.017242215757235613e-01
3.626312905499697870e-01 6.980534887159279833e-01
3.636718394466351700e-01 5.652701950145591070e-01
3.647123883433005531e-01 6.526078720136787581e-01
3.657529372399659362e-01 4.576186587638595427e-01
3.667934861366313193e-01 5.018103562608970947e-01
3.678340350332967024e-01 4.726698349141749134e-01
3.688745839299620854e-01 3.847950496921619390e-01
3.699151328266274685e-01 6.217666873954073026e-01
3.709556817232928516e-01 7.216205547435485812e-01
3.719962306199582347e-01 6.697433535867070020e-01
3.730367795166236178e-01 4.609757599982344800e-01
3.740773284132890009e-01 3.501046979138600079e-01
3.751178773099543839e-01 1.986117192242531360e-01
3.761584262066197670e-01 4.603753015478631028e-01
3.771989751032851501e-01 6.593612145153748827e-01
3.782395239999505332e-01 4.380666190722877218e-01
3.792800728966159163e-01 4.359672501076978790e-01
3.803206217932812994e-01 5.948001567430942771e-01
3.813611706899466824e-01 4.469462695598167556e-01
3.824017195866120655e-01 5.541673680417247283e-01
3.834422684832774486e-01 5.435970976482700223e-01
3.844828173799428317e-01 4.976142761575452766e-01
3.855233662766082148e-01 2.976726105141551670e-01
3.865639151732735979e-01 4.964009170550234273e-01
3.876044640699389809e-01 4.036790087252946080e-01
3.886450129666043640e-01 2.722853732807557492e-01
3.896855618632697471e-01 3.898498624668675916e-01
3.907261107599351302e-01 5.315693789063082875e-01
3.917666596566005133e-01 5.184889726926478204e-01
3.928072085532658964e-01 5.021696783633089467e-01
3.938477574499312794e-01 3.015369341110734069e-01
3.948883063465966625e-01 1.735710778758203787e-01
3.959288552432620456e-01 1.880551419404525859e-01
3.969694041399274287e-01 2.030008028506955498e-01
3.980099530365928118e-01 3.752155787496747053e-02
3.990505019332581949e-01 1.202740984178589656e-01
4.000910508299235779e-01 1.904586060289616967e-01
4.011315997265889610e-01 3.408339243652775963e-01
4.021721486232543441e-01 2.632113614417264102e-01
4.032126975199197272e-01 4.010920738852590262e-01
4.042532464165851103e-01 3.347112581433826506e-01
4.052937953132504934e-01 4.262540847605897909e-01
4.063343442099158764e-01 2.756251202758654983e-01
4.073748931065812595e-01 3.310132951844764193e-01
4.084154420032466426e-01 3.059841134706253740e-01
4.094559908999120257e-01 1.188832369114898313e-01
4.104965397965774088e-01 2.153017542618833602e-01
4.115370886932427918e-01 2.126400900959524165e-01
4.125776375899081749e-01 3.536070369574559891e-01
4.136181864865735580e-01 4.359462352261154194e-01
4.146587353832389411e-01 5.453282545045823326e-01
4.156992842799043242e-01 3.351305835191062954e-01
4.167398331765697073e-01 2.025185217902674140e-01
4.177803820732350903e-01 3.585706213613271132e-01
4.188209309699004734e-01 5.617476092247066788e-01
4.198614798665658565e-01 5.932694691821680522e-01
4.209020287632312396e-01 5.674263605993843385e-01
4.219425776598966227e-01 4.147621264429695032e-01
4.229831265565620058e-01 4.884329459543508278e-01
4.240236754532273888e-01 4.469307236565462915e-01
4.250642243498927719e-01 4.764408511239963673e-01
4.261047732465581550e-01 4.561799566271957929e-01
4.271453221432235381e-01 3.376889002764897896e-01
4.281858710398889212e-01 2.374775023982600430e-01
4.292264199365543043e-01 2.632279916649586937e-01
4.302669688332196873e-01 2.664615120124125269e-01
4.313075177298850704e-01 2.471085416302614135e-01
4.323480666265504535e-01 3.043153674687566479e-01
4.333886155232158366e-01 4.973323673703013981e-01
4.344291644198812197e-01 2.227217860128689608e-01
