# q (1/Angstrom), Intensity (arb)
2.029070354705860696e-02 6.478321235743210309e+02
2.133125244372399004e-02 6.530571258533414039e+02
2.237180134038937659e-02 6.553054905427254653e+02
2.341235023705475968e-02 6.550936191212708763e+02
2.445289913372014276e-02 6.508785332505019596e+02
2.549344803038552584e-02 6.537273243632923823e+02
2.653399692705091240e-02 6.536640319938384209e+02
2.757454582371629548e-02 6.502301705399136154e+02
2.861509472038167856e-02 6.440857314512556968e+02
2.965564361704706164e-02 6.370845935039745882e+02
3.069619251371244473e-02 6.328408536375095537e+02
3.173674141037782781e-02 6.265791347414569827e+02
3.277729030704321089e-02 6.146617739091822159e+02
3.381783920370859398e-02 6.059683121309212765e+02
3.485838810037397706e-02 5.988971738230226265e+02
3.589893699703936014e-02 5.958890534070192189e+02
3.693948589370474322e-02 5.881258906053336659e+02
3.798003479037012631e-02 5.806849241986236621e+02
3.902058368703550939e-02 5.699800296808950861e+02
4.006113258370089247e-02 5.594701571497488430e+02
4.110168148036627556e-02 5.552667104893705528e+02
4.214223037703165864e-02 5.473300566112253591e+02
4.318277927369704866e-02 5.370508050518268419e+02
4.422332817036243174e-02 5.264581172340878084e+02
4.526387706702781483e-02 5.171467479504245830e+02
4.630442596369319791e-02 5.068699144589645016e+02
4.734497486035858099e-02 4.997178010248567261e+02
4.838552375702396408e-02 4.895552773861733158e+02
4.942607265368934716e-02 4.807467576611570621e+02
5.046662155035473024e-02 4.741692386720097261e+02
5.150717044702011332e-02 4.623983391316952520e+02
5.254771934368549641e-02 4.522173845570973754e+02
5.358826824035087949e-02 4.410121803365972255e+02
5.462881713701626257e-02 4.318634167306019549e+02
5.566936603368164566e-02 4.254768316547331324e+02
5.670991493034702874e-02 4.167861108994152346e+02
5.775046382701241182e-02 4.066181286097938141e+02
5.879101272367779490e-02 3.947849964906720857e+02
5.983156162034317799e-02 3.863499039404101723e+02
6.087211051700856107e-02 3.759567059169138474e+02
6.191265941367394415e-02 3.678800235744312204e+02
6.295320831033933417e-02 3.578143926659669773e+02
6.399375720700471726e-02 3.492017307025759010e+02
6.503430610367010034e-02 3.395930797214094810e+02
6.607485500033548342e-02 3.300101445749234017e+02
6.711540389700086651e-02 3.218598980470455331e+02
6.815595279366624959e-02 3.123010931151092677e+02
6.919650169033163267e-02 3.021310416961688361e+02
7.023705058699701576e-02 2.925230236206022028e+02
7.127759948366239884e-02 2.854748888400370106e+02
7.231814838032778192e-02 2.769233738124305546e+02
7.335869727699316500e-02 2.673174322958859079e+02
7.439924617365854809e-02 2.578237281907879606e+02
7.543979507032393117e-02 2.507706150413409318e+02
7.648034396698931425e-02 2.425919256341275911e+02
7.752089286365469734e-02 2.329540815974977477e+02
7.856144176032008042e-02 2.246444453026198858e+02
7.960199065698546350e-02 2.186261280422297943e+02
8.064253955365084658e-02 2.099949979951040575e+02
8.168308845031622967e-02 2.016642994953238315e+02
8.272363734698161275e-02 1.927909663884562974e+02
8.376418624364699583e-02 1.864911922302825076e+02
8.480473514031239279e-02 1.808521563870078808e+02
8.584528403697777588e-02 1.745146773518852683e+02
8.688583293364315896e-02 1.670450280643906922e+02
8.792638183030854204e-02 1.592605589299996893e+02
8.896693072697392513e-02 1.530903842816676956e+02
9.000747962363930821e-02 1.480646550506243102e+02
9.104802852030469129e-02 1.438815707613090353e+02
9.208857741697007437e-02 1.414449530246802453e+02
9.312912631363545746e-02 1.382946595417822095e+02
9.416967521030084054e-02 1.333368818467078825e+02
9.521022410696622362e-02 1.286723531734699009e+02
9.625077300363160671e-02 1.344269933745933372e+02
9.729132190029698979e-02 1.515574542592194405e+02
9.833187079696237287e-02 1.579615333535820980e+02
9.937241969362775595e-02 1.357129110062869017e+02
1.004129685902931390e-01 1.102066346655428646e+02
1.014535174869585221e-01 9.790600260412296052e+01
1.024940663836239052e-01 9.195078418839739243e+01
1.035346152802892883e-01 8.710740183052297425e+01
1.045751641769546714e-01 8.194590396069392568e+01
1.056157130736200545e-01 7.600479499715655152e+01
1.066562619702854375e-01 7.032003599713306130e+01
1.076968108669508206e-01 6.510255052066895587e+01
1.087373597636162037e-01 6.112732478939017966e+01
1.097779086602815868e-01 5.746519782471699500e+01
1.108184575569469699e-01 5.470801673506890239e+01
1.118590064536123529e-01 5.295139224898365882e+01
1.128995553502777360e-01 5.203124223398782533e+01
1.139401042469431191e-01 4.848887745297127339e+01
1.149806531436085022e-01 4.179525540303544773e+01
1.160212020402738853e-01 3.663541674793762581e+01
1.170617509369392684e-01 3.365899974991153698e+01
1.181022998336046514e-01 3.129487750544305058e+01
1.191428487302700345e-01 2.872302465635294766e+01
1.201833976269354176e-01 2.631177998369505744e+01
1.212239465236008007e-01 2.419152842346535692e+01
1.222644954202661838e-01 2.211921808088463592e+01
1.233050443169315669e-01 2.022560761631795145e+01
1.243455932135969499e-01 1.818756088738845733e+01
1.253861421102623330e-01 1.652484871485875217e+01
1.264266910069277161e-01 1.540901289318838963e+01
1.274672399035930992e-01 1.465762216741121193e+01
1.285077888002584823e-01 1.340848607249603575e+01
1.295483376969238654e-01 1.141582666809482305e+01
1.305888865935892484e-01 1.034071259321897074e+01
1.316294354902546315e-01 9.703790549252751418e+00
1.326699843869200146e-01 8.595760206760850508e+00
1.337105332835853977e-01 7.759255818327542187e+00
1.347510821802507808e-01 6.972359144150736654e+00
1.357916310769161639e-01 5.947159222026829895e+00
1.368321799735815469e-01 5.415929709131198422e+00
1.378727288702469300e-01 5.130681930140127633e+00
1.389132777669123131e-01 4.381942859033021165e+00
1.399538266635776962e-01 3.679777516497289014e+00
1.409943755602430793e-01 2.887614384681832291e+00
1.420349244569084624e-01 2.744773192399851069e+00
1.430754733535738454e-01 2.581473186786865881e+00
1.441160222502392285e-01 2.191512603285985961e+00
1.451565711469046116e-01 2.123262321269265840e+00
1.461971200435699947e-01 1.911076290204135830e+00
1.472376689402353778e-01 1.753155440246196406e+00
1.482782178369007609e-01 1.881945039934443287e+00
1.493187667335661439e-01 1.789537223300008861e+00
1.503593156302315270e-01 1.567264835624701647e+00
1.513998645268969101e-01 1.571760678343920858e+00
1.524404134235622932e-01 1.443322840284412933e+00
1.534809623202276763e-01 1.459151190721897251e+00
1.545215112168930593e-01 1.989682182646976827e+00
1.555620601135584424e-01 1.860078788558720220e+00
1.566026090102238255e-01 1.840625222739522115e+00
1.576431579068892086e-01 1.988443479809070880e+00
1.586837068035545917e-01 2.195282002956474798e+00
1.597242557002199748e-01 2.042910186299931041e+00
1.607648045968853578e-01 1.872413178801920708e+00
1.618053534935507409e-01 2.424582540767861616e+00
1.628459023902161240e-01 2.701562844839479283e+00
1.638864512868815071e-01 3.121225285437080998e+00
1.649270001835468902e-01 3.106191944557540552e+00
1.659675490802122733e-01 3.003356810224047990e+00
1.670080979768776563e-01 3.122492955273482806e+00
1.680486468735430672e-01 3.221721276845414650e+00
1.690891957702084503e-01 3.247028646323162349e+00
1.701297446668738333e-01 3.648840940198819993e+00
1.711702935635392164e-01 3.652178296384946066e+00
1.722108424602045995e-01 3.915437618312022749e+00
1.732513913568699826e-01 3.926485796762559488e+00
1.742919402535353657e-01 4.014000222557612574e+00
1.753324891502007488e-01 4.402403917002128964e+00
1.763730380468661318e-01 4.643662286110036064e+00
1.774135869435315149e-01 4.449003520653377564e+00
1.784541358401968980e-01 4.288944701618046196e+00
1.794946847368622811e-01 4.403095316022930916e+00
1.805352336335276642e-01 4.914734283586636110e+00
1.815757825301930473e-01 4.726657634718506529e+00
1.826163314268584303e-01 5.039686857278297794e+00
1.836568803235238134e-01 5.212563602043548627e+00
1.846974292201891965e-01 5.593939296040154829e+00
1.857379781168545796e-01 5.946940180991994396e+00
1.867785270135199627e-01 7.361493330336774221e+00
1.878190759101853458e-01 8.438102911071677426e+00
1.888596248068507288e-01 7.738767991507703670e+00
1.899001737035161119e-01 6.718826562085613574e+00
1.909407226001814950e-01 6.005050640537294981e+00
1.919812714968468781e-01 5.767078312995590039e+00
1.930218203935122612e-01 5.534963760763282892e+00
1.940623692901776443e-01 5.789186564268643309e+00
1.951029181868430273e-01 5.837219488689928681e+00
1.961434670835084104e-01 5.876463879387216593e+00
1.971840159801737935e-01 5.515509019558162862e+00
1.982245648768391766e-01 5.368072642558818330e+00
1.992651137735045597e-01 5.254964752503596515e+00
2.003056626701699428e-01 5.008503599616791035e+00
2.013462115668353813e-01 4.944485258355634016e+00
2.023867604635007644e-01 4.517260525986255715e+00
2.034273093601661475e-01 4.437334667979559555e+00
2.044678582568315306e-01 4.273031803587436173e+00
2.055084071534969137e-01 4.250242471927300869e+00
2.065489560501622968e-01 4.181270502150919555e+00
2.075895049468276798e-01 3.844263701786410081e+00
2.086300538434930629e-01 3.910632401923287205e+00
2.096706027401584460e-01 3.650659830194953770e+00
2.107111516368238291e-01 3.646239116719758755e+00
2.117517005334892122e-01 3.505282654484378924e+00
2.127922494301545953e-01 3.202776879799145604e+00
2.138327983268199783e-01 3.268587501601519563e+00
2.148733472234853614e-01 3.260649631207069632e+00
2.159138961201507445e-01 3.260259014438403824e+00
2.169544450168161276e-01 2.987467065006935485e+00
2.179949939134815107e-01 2.742754851450204256e+00
2.190355428101468938e-01 2.830150221551967604e+00
2.200760917068122768e-01 2.786206000865622201e+00
2.211166406034776599e-01 2.758775519217969929e+00
2.221571895001430430e-01 2.535664901380574321e+00
2.231977383968084261e-01 2.084405675926724655e+00
2.242382872934738092e-01 2.209495640167840946e+00
2.252788361901391923e-01 2.334098104702849952e+00
2.263193850868045753e-01 2.133861248108871678e+00
2.273599339834699584e-01 2.147864010126085077e+00
2.284004828801353415e-01 1.947337799686785331e+00
2.294410317768007246e-01 1.717000073128684079e+00
2.304815806734661077e-01 1.434844035387911276e+00
2.315221295701314908e-01 1.583103249590802619e+00
2.325626784667968738e-01 1.333656640043923147e+00
2.336032273634622569e-01 1.270027177778441541e+00
2.346437762601276400e-01 8.294020439804867806e-01
2.356843251567930231e-01 6.137664311883064272e-01
2.367248740534584062e-01 7.322930057014822580e-01
2.377654229501237892e-01 7.709449567316717378e-01
2.388059718467891723e-01 9.568513690241395864e-01
2.398465207434545554e-01 1.013309169986374769e+00
2.408870696401199385e-01 9.679191837090641570e-01
2.419276185367853216e-01 1.160205434653235557e+00
2.429681674334507047e-01 6.872735815181840735e-01
2.440087163301160877e-01 3.273694773717323869e-01
2.450492652267814708e-01 4.283020864956128548e-01
2.460898141234468539e-01 7.322126622932003670e-01
2.471303630201122370e-01 7.378812345663554595e-01
2.481709119167776201e-01 6.548698263406009801e-01
2.492114608134430032e-01 5.578349688217869584e-01
2.502520097101083585e-01 5.602398159655201937e-01
2.512925586067737416e-01 4.501507018271517779e-01
2.523331075034391247e-01 1.802778057163436642e-01
2.533736564001045077e-01 2.388416992458566313e-01
2.544142052967698908e-01 4.480727966519069128e-01
2.554547541934352739e-01 3.910276527089706633e-01
2.564953030901006570e-01 4.382310836429077483e-01
2.575358519867660401e-01 4.071870755572248868e-01
2.585764008834314231e-01 1.618679105320488532e-01
2.596169497800968062e-01 2.095185955167266911e-01
2.606574986767621893e-01 4.969499906550041146e-01
2.616980475734275724e-01 5.267977149282927485e-01
2.627385964700929555e-01 5.809219187256609018e-01
2.637791453667583386e-01 5.840664580146714968e-01
2.648196942634237216e-01 5.477429697393318975e-01
2.658602431600891047e-01 1.471757806030140614e-01
2.669007920567544878e-01 1.409012171220176413e-01
2.679413409534198709e-01 3.492713946585830342e-01
2.689818898500852540e-01 4.013479403973754245e-01
2.700224387467506371e-01 5.177266211553721575e-01
2.710629876434160201e-01 5.839873505427775058e-01
2.721035365400814032e-01 4.437585963210608497e-01
2.731440854367467863e-01 6.125960303480653124e-01
2.741846343334121694e-01 5.531100203469065946e-01
2.752251832300775525e-01 5.006037819521829135e-01
2.762657321267429356e-01 6.994402692753460826e-01
2.773062810234083186e-01 8.961383105913576230e-01
2.783468299200737017e-01 9.511819540295149977e-01
2.793873788167390848e-01 8.796256252105507656e-01
2.804279277134044679e-01 6.503109188376932082e-01
2.814684766100698510e-01 8.136454450209491540e-01
2.825090255067352341e-01 1.094219019141394966e+00
2.835495744034006171e-01 8.976950479697443086e-01
2.845901233000660002e-01 6.960449371851460398e-01
2.856306721967313833e-01 7.167706223711576285e-01
2.866712210933967664e-01 7.236832005039843807e-01
2.877117699900621495e-01 7.222417835195678038e-01
2.887523188867275326e-01 7.241986823828590047e-01
2.897928677833929156e-01 8.192332128120334289e-01
2.908334166800582987e-01 9.498850324395426981e-01
2.918739655767236818e-01 1.053734722098550236e+00
2.929145144733890649e-01 8.164327841841121369e-01
2.939550633700544480e-01 8.990287023492378182e-01
2.949956122667198311e-01 8.586066807868384387e-01
2.960361611633852141e-01 7.313526397499394704e-01
2.970767100600505972e-01 6.698491315401255974e-01
2.981172589567159803e-01 7.958126067549393667e-01
2.991578078533813634e-01 6.424529601292263692e-01
3.001983567500468020e-01 6.989705160583774557e-01
3.012389056467121851e-01 6.433086807786629890e-01
3.022794545433775681e-01 9.263375440721617338e-01
3.033200034400429512e-01 8.247744980774918133e-01
3.043605523367083343e-01 6.600044233482122991e-01
3.054011012333737174e-01 8.477036124436629905e-01
3.064416501300391005e-01 8.064376533182624485e-01
3.074821990267044836e-01 9.715783895648471002e-01
3.085227479233698666e-01 1.028696509658551861e+00
3.095632968200352497e-01 1.142516893495240993e+00
3.106038457167006328e-01 1.218621810926912019e+00
3.116443946133660159e-01 8.653400834034705724e-01
3.126849435100313990e-01 9.386658943683485745e-01
3.137254924066967821e-01 8.386299652819815265e-01
3.147660413033621651e-01 7.231156597480534742e-01
3.158065902000275482e-01 5.926761888901879161e-01
3.168471390966929313e-01 6.225504398632502046e-01
3.178876879933583144e-01 8.424751823861065247e-01
3.189282368900236975e-01 8.937169500217159168e-01
3.199687857866890806e-01 9.517435962496030299e-01
3.210093346833544636e-01 6.521421502380100321e-01
3.220498835800198467e-01 6.467875852472921849e-01
3.230904324766852298e-01 7.334774939000219263e-01
3.241309813733506129e-01 6.128760837209483725e-01
3.251715302700159960e-01 5.298681852032416373e-01
3.262120791666813790e-01 8.711421323763310909e-01
3.272526280633467621e-01 8.049751139878864592e-01
3.282931769600121452e-01 7.742941546264106023e-01
3.293337258566775283e-01 6.016561470628793984e-01
3.303742747533429114e-01 7.031219742168062226e-01
3.314148236500082945e-01 7.259986278720340636e-01
3.324553725466736775e-01 4.400101575928658804e-01
3.334959214433390606e-01 5.506296111444655139e-01
3.345364703400044437e-01 5.658712957215072947e-01
3.355770192366698268e-01 3.496233588567960737e-01
3.366175681333352099e-01 4.814046822580699825e-01
3.376581170300005930e-01 6.979712883207227492e-01
3.386986659266659760e-01 5.252856656076581032e-01
3.397392148233313591e-01 4.124064952918757854e-01
3.407797637199967422e-01 4.871886156880051999e-01
3.418203126166621253e-01 5.885886414083039142e-01
3.428608615133275084e-01 4.442819635342374340e-01
3.439014104099928915e-01 2.775478602516017190e-01
3.449419593066582745e-01 1.476423749970017241e-01
3.459825082033236576e-01 3.736028616419453385e-01
3.470230570999890407e-01 4.500978267927031595e-01
3.480636059966544238e-01 2.048934902116741341e-01
3.491041548933198069e-01 4.306179709578330517e-01
3.501447037899851900e-01 4.675056434452748988e-01
3.511852526866505730e-01 3.219766595834769873e-01
3.522258015833159561e-01 4.057170461966066455e-01
3.532663504799813392e-01 5.375365464302852558e-01
3.543068993766467223e-01 4.600769397155914930e-01
3.553474482733121054e-01 2.515077238164344919e-01
3.563879971699774885e-01 1.951015771714814662e-01
3.574285460666428715e-01 3.081557352253447846e-01
3.584690949633082546e-01 2.138579589184317342e-01
3.595096438599736377e-01 1.589113652533882259e-01
3.605501927566390208e-01 3.199920841254488835e-01
3.615907416533044039e-01 1.589635279343681873e-02
3.626312905499697870e-01 1.287483910115483354e-02
3.636718394466351700e-01 4.283477182933310701e-01
3.647123883433005531e-01 4.776589103790733759e-01
3.657529372399659362e-01 4.418595594309486785e-01
3.667934861366313193e-01 2.523291251021326786e-01
3.678340350332967024e-01 3.176927385889989353e-01
3.688745839299620854e-01 2.523291686096129638e-01
3.699151328266274685e-01 2.444669196845126180e-01
3.709556817232928516e-01 3.212478756452341599e-01
3.719962306199582347e-01 2.795838916740116531e-01
3.730367795166236178e-01 2.608969565487733178e-01
3.740773284132890009e-01 3.460711380886110078e-01
3.751178773099543839e-01 9.792223689436951872e-02
3.761584262066197670e-01 1.451092494000754130e-01
3.771989751032851501e-01 3.694602913988909165e-01
3.782395239999505332e-01 2.258988050547046100e-01
3.792800728966159163e-01 2.077846240327794192e-01
3.803206217932812994e-01 3.146245227774109310e-01
3.813611706899466824e-01 4.824188670670288559e-01
3.824017195866120655e-01 4.098354927802567715e-01
3.834422684832774486e-01 5.247890559799195387e-01
3.844828173799428317e-01 6.450989296171414367e-01
3.855233662766082148e-01 5.133172053933172663e-01
3.865639151732735979e-01 3.667184257458302454e-01
3.876044640699389809e-01 2.197325224980630765e-01
3.886450129666043640e-01 3.609307445133609349e-01
3.896855618632697471e-01 5.398378800762557717e-01
3.907261107599351302e-01 5.570252991177504498e-01
3.917666596566005133e-01 4.874473872731570623e-01
3.928072085532658964e-01 2.612237473902929707e-01
3.938477574499312794e-01 3.641775866693990338e-01
3.948883063465966625e-01 4.182748087619643229e-01
3.959288552432620456e-01 4.728767337048935815e-01
3.969694041399274287e-01 4.439872416196628535e-01
3.980099530365928118e-01 5.110526166032265394e-01
3.990505019332581949e-01 4.799508699007226653e-01
4.000910508299235779e-01 2.068954047876836455e-01
4.011315997265889610e-01 1.934440030738073801e-01
4.021721486232543441e-01 1.968034341452060687e-01
4.032126975199197272e-01 2.791072993296452864e-01
4.042532464165851103e-01 4.873092897530852952e-01
4.052937953132504934e-01 5.040831862342436409e-01
4.063343442099158764e-01 3.768836713503240787e-01
4.073748931065812595e-01 5.410533279561811071e-01
4.084154420032466426e-01 6.177270262589438232e-01
4.094559908999120257e-01 5.655827256708114703e-01
4.104965397965774088e-01 5.359919098776053659e-01
4.115370886932427918e-01 8.155092408689661454e-01
4.125776375899081749e-01 6.753443555879421467e-01
4.136181864865735580e-01 3.966995160601385351e-01
4.146587353832389411e-01 3.623811316701583962e-01
4.156992842799043242e-01 4.714528030431353045e-01
4.167398331765697073e-01 4.828010119477568196e-01
4.177803820732350903e-01 4.118890460503372708e-01
4.188209309699004734e-01 2.879432598702393875e-01
4.198614798665658565e-01 4.064386143793861095e-01
4.209020287632312396e-01 4.371854929466323370e-01
4.219425776598966227e-01 4.749111676115767011e-01
4.229831265565620058e-01 5.960148411828960491e-01
4.240236754532273888e-01 4.616603778664227775e-01
4.250642243498927719e-01 2.875893432676512873e-01
4.261047732465581550e-01 3.378135878993262509e-01
4.271453221432235381e-01 3.827635744500170745e-01
4.281858710398889212e-01 3.476059512100704296e-01
4.292264199365543043e-01 2.799688326345943779e-01
4.302669688332196873e-01 3.061464275919973943e-01
4.313075177298850704e-01 3.108163173341971230e-01
4.323480666265504535e-01 9.988118869624074136e-02
4.333886155232158366e-01 1.827520167876848234e-01
4.344291644198812197e-01 3.146001576947270451e-01
