# q (1/Angstrom), Intensity (arb)
2.029070354705860696e-02 6.555937522981698748e+02
2.133125244372399004e-02 6.528093985287976011e+02
2.237180134038937659e-02 6.512716072231552289e+02
2.341235023705475968e-02 6.491743539428746317e+02
2.445289913372014276e-02 6.473698449455362152e+02
2.549344803038552584e-02 6.415551036540005043e+02
2.653399692705091240e-02 6.392048500813809824e+02
2.757454582371629548e-02 6.331440328780778373e+02
2.861509472038167856e-02 6.233205313947187278e+02
2.965564361704706164e-02 6.152832641590531466e+02
3.069619251371244473e-02 6.117485137320394415e+02
3.173674141037782781e-02 6.055739627690820726e+02
3.277729030704321089e-02 5.976738461759241545e+02
3.381783920370859398e-02 5.905062675266854058e+02
3.485838810037397706e-02 5.807498995669437818e+02
3.589893699703936014e-02 5.713147945637007297e+02
3.693948589370474322e-02 5.599663769218464040e+02
3.798003479037012631e-02 5.475104574524683585e+02
3.902058368703550939e-02 5.382379969350487272e+02
4.006113258370089247e-02 5.298647562254725472e+02
4.110168148036627556e-02 5.204830420070752552e+02
4.214223037703165864e-02 5.127388349198221249e+02
4.318277927369704866e-02 5.024761671367389795e+02
4.422332817036243174e-02 4.900728291150955442e+02
4.526387706702781483e-02 4.792613754602319887e+02
4.630442596369319791e-02 4.662108259787543147e+02
4.734497486035858099e-02 4.575707928186046161e+02
4.838552375702396408e-02 4.481128912638915267e+02
4.942607265368934716e-02 4.374037292105618349e+02
5.046662155035473024e-02 4.238758831614285327e+02
5.150717044702011332e-02 4.157064319689303034e+02
5.254771934368549641e-02 4.051881284008313742e+02
5.358826824035087949e-02 3.953337056049963962e+02
5.462881713701626257e-02 3.842254560325262673e+02
5.566936603368164566e-02 3.726317309709680785e+02
5.670991493034702874e-02 3.605887499201782020e+02
5.775046382701241182e-02 3.513032056925651432e+02
5.879101272367779490e-02 3.441939357608854380e+02
5.983156162034317799e-02 3.342645115834891953e+02
6.087211051700856107e-02 3.226571752045032895e+02
6.191265941367394415e-02 3.118623570860843870e+02
6.295320831033933417e-02 3.018278800719961623e+02
6.399375720700471726e-02 2.914949228738927332e+02
6.503430610367010034e-02 2.812247286656114511e+02
6.607485500033548342e-02 2.727071201659669555e+02
6.711540389700086651e-02 2.639478512046850369e+02
6.815595279366624959e-02 2.553933136522017548e+02
6.919650169033163267e-02 2.456576648975922694e+02
7.023705058699701576e-02 2.357041639048760544e+02
7.127759948366239884e-02 2.269619668826903194e+02
7.231814838032778192e-02 2.190946434195946892e+02
7.335869727699316500e-02 2.113991880751808026e+02
7.439924617365854809e-02 2.036471585430196569e+02
7.543979507032393117e-02 1.950709225308422390e+02
7.648034396698931425e-02 1.870566620073169304e+02
7.752089286365469734e-02 1.797275742027922547e+02
7.856144176032008042e-02 1.720551755402904064e+02
7.960199065698546350e-02 1.654890130474680632e+02
8.064253955365084658e-02 1.582259991676057211e+02
8.168308845031622967e-02 1.534214551231866892e+02
8.272363734698161275e-02 1.526931814588322140e+02
8.376418624364699583e-02 1.653266351207201410e+02
8.480473514031239279e-02 1.986497692492258693e+02
8.584528403697777588e-02 2.276491867326355703e+02
8.688583293364315896e-02 2.355446346068561070e+02
8.792638183030854204e-02 2.796945945068659398e+02
8.896693072697392513e-02 4.501078492123069736e+02
9.000747962363930821e-02 6.642177029269626019e+02
9.104802852030469129e-02 6.467276224053080114e+02
9.208857741697007437e-02 4.137783809625172466e+02
9.312912631363545746e-02 2.511605425663948665e+02
9.416967521030084054e-02 2.012631978421931933e+02
9.521022410696622362e-02 1.845588678405686380e+02
9.625077300363160671e-02 1.707403138746868763e+02
9.729132190029698979e-02 1.527282329171651440e+02
9.833187079696237287e-02 1.317382391557195263e+02
9.937241969362775595e-02 1.133060892171643275e+02
1.004129685902931390e-01 1.004753453660467528e+02
1.014535174869585221e-01 9.457152830038849345e+01
1.024940663836239052e-01 1.044163605620639146e+02
1.035346152802892883e-01 1.228182726922441645e+02
1.045751641769546714e-01 1.215745232081826686e+02
1.056157130736200545e-01 9.101158433343434240e+01
1.066562619702854375e-01 5.870282933175429463e+01
1.076968108669508206e-01 4.170195571490111064e+01
1.087373597636162037e-01 3.441092139201016664e+01
1.097779086602815868e-01 3.006318426517891851e+01
1.108184575569469699e-01 2.609519561261168974e+01
1.118590064536123529e-01 2.337361823217476342e+01
1.128995553502777360e-01 2.106522255176138714e+01
1.139401042469431191e-01 1.841919040638367733e+01
1.149806531436085022e-01 1.640112870695622860e+01
1.160212020402738853e-01 1.449503964122365574e+01
1.170617509369392684e-01 1.337742348416767157e+01
1.181022998336046514e-01 1.159056254954970910e+01
1.191428487302700345e-01 1.016587619491994587e+01
1.201833976269354176e-01 9.028000595097168457e+00
1.212239465236008007e-01 7.862048198137308930e+00
1.222644954202661838e-01 7.009072089123925764e+00
1.233050443169315669e-01 6.353174929401269821e+00
1.243455932135969499e-01 5.691264512492168137e+00
1.253861421102623330e-01 4.752706809021994161e+00
1.264266910069277161e-01 4.144734870648875358e+00
1.274672399035930992e-01 3.983341917011983924e+00
1.285077888002584823e-01 3.509900815841234589e+00
1.295483376969238654e-01 2.596371067181941328e+00
1.305888865935892484e-01 2.075101157393497431e+00
1.316294354902546315e-01 2.343223451018147330e+00
1.326699843869200146e-01 2.247571554572864727e+00
1.337105332835853977e-01 1.780134456293225753e+00
1.347510821802507808e-01 1.975287110420680392e+00
1.357916310769161639e-01 1.898490219011513602e+00
1.368321799735815469e-01 1.905978568193702927e+00
1.378727288702469300e-01 1.832643686988859599e+00
1.389132777669123131e-01 1.335617809474335616e+00
1.399538266635776962e-01 1.281487244828177552e+00
1.409943755602430793e-01 1.643356520922786501e+00
1.420349244569084624e-01 1.805813288359907176e+00
1.430754733535738454e-01 2.142647085715232436e+00
1.441160222502392285e-01 2.958736583896126149e+00
1.451565711469046116e-01 4.381281914758424989e+00
1.461971200435699947e-01 7.327275422256050774e+00
1.472376689402353778e-01 1.099742284683951965e+01
1.482782178369007609e-01 1.105911020658371768e+01
1.493187667335661439e-01 8.005772613368407065e+00
1.503593156302315270e-01 5.888279239410337595e+00
1.513998645268969101e-01 5.321124771494062600e+00
1.524404134235622932e-01 4.608153576793021955e+00
1.534809623202276763e-01 5.008927542493111673e+00
1.545215112168930593e-01 4.608883861098085788e+00
1.555620601135584424e-01 4.864683649056601666e+00
1.566026090102238255e-01 5.478638182201635232e+00
1.576431579068892086e-01 5.842912568714492494e+00
1.586837068035545917e-01 5.924719077867582229e+00
1.597242557002199748e-01 6.119018342934403165e+00
1.607648045968853578e-01 6.477976619445463768e+00
1.618053534935507409e-01 6.682818033084636511e+00
1.628459023902161240e-01 6.803203485253582983e+00
1.638864512868815071e-01 6.590838009651644569e+00
1.649270001835468902e-01 6.734197381743562971e+00
1.659675490802122733e-01 6.568568242538361801e+00
1.670080979768776563e-01 7.175981717764464918e+00
1.680486468735430672e-01 7.696348608454783857e+00
1.690891957702084503e-01 8.569307410014072701e+00
1.701297446668738333e-01 1.189943508776951475e+01
1.711702935635392164e-01 1.970652830449395054e+01
1.722108424602045995e-01 3.155861286493276197e+01
1.732513913568699826e-01 3.540174944238790999e+01
1.742919402535353657e-01 2.798340261183669853e+01
1.753324891502007488e-01 1.857706081057211378e+01
1.763730380468661318e-01 1.315296304547748463e+01
1.774135869435315149e-01 1.135246411697571389e+01
1.784541358401968980e-01 1.106464512677130685e+01
1.794946847368622811e-01 1.163602139634741661e+01
1.805352336335276642e-01 1.218386336206984666e+01
1.815757825301930473e-01 1.094432959283994578e+01
1.826163314268584303e-01 8.912497894769106921e+00
1.836568803235238134e-01 6.638885577651880254e+00
1.846974292201891965e-01 5.463717687399874734e+00
1.857379781168545796e-01 5.127686228671596069e+00
1.867785270135199627e-01 4.735925950521696848e+00
1.878190759101853458e-01 4.427628222914872680e+00
1.888596248068507288e-01 4.761651499289126122e+00
1.899001737035161119e-01 4.910953290575253760e+00
1.909407226001814950e-01 4.494980997824054469e+00
1.919812714968468781e-01 4.187141359318221845e+00
1.930218203935122612e-01 3.975156117822237434e+00
1.940623692901776443e-01 3.910332413943407914e+00
1.951029181868430273e-01 3.545159739156286349e+00
1.961434670835084104e-01 3.445287216743714964e+00
1.971840159801737935e-01 3.325884437014632766e+00
1.982245648768391766e-01 2.926252923202035561e+00
1.992651137735045597e-01 3.043137798073612288e+00
2.003056626701699428e-01 2.712878873985474115e+00
2.013462115668353813e-01 2.509333176873774107e+00
2.023867604635007644e-01 2.622845854241898422e+00
2.034273093601661475e-01 2.580790620457992901e+00
2.044678582568315306e-01 2.516062462638476660e+00
2.055084071534969137e-01 2.064510805088946910e+00
2.065489560501622968e-01 1.776185079502226927e+00
2.075895049468276798e-01 2.182469703279114270e+00
2.086300538434930629e-01 1.886214368442104217e+00
2.096706027401584460e-01 1.363562592665900297e+00
2.107111516368238291e-01 1.650386918776984402e+00
2.117517005334892122e-01 1.700041925986610636e+00
2.127922494301545953e-01 1.633292872117827699e+00
2.138327983268199783e-01 1.274928615155662470e+00
2.148733472234853614e-01 1.211392776694463436e+00
2.159138961201507445e-01 8.341648208228598094e-01
2.169544450168161276e-01 8.186260518543200249e-01
2.179949939134815107e-01 8.596149031741937563e-01
2.190355428101468938e-01 6.837830203212433844e-01
2.200760917068122768e-01 7.245900093610977422e-01
2.211166406034776599e-01 5.727848574717455676e-01
2.221571895001430430e-01 7.601327180330770261e-01
2.231977383968084261e-01 6.306280429249042641e-01
2.242382872934738092e-01 5.392428832968789720e-01
2.252788361901391923e-01 6.290395689591612438e-01
2.263193850868045753e-01 5.507376331256246260e-01
2.273599339834699584e-01 4.655177489215134301e-01
2.284004828801353415e-01 5.428893797560263579e-01
2.294410317768007246e-01 5.158594177230746425e-01
2.304815806734661077e-01 4.194436886622057159e-01
2.315221295701314908e-01 5.301499454663094468e-01
2.325626784667968738e-01 4.521301776922470594e-01
2.336032273634622569e-01 5.207688520392963483e-01
2.346437762601276400e-01 6.645541720302006183e-01
2.356843251567930231e-01 7.318441752202069495e-01
2.367248740534584062e-01 1.822016626054860922e-01
2.377654229501237892e-01 1.118685415074516243e-01
2.388059718467891723e-01 5.891794263148142363e-02
2.398465207434545554e-01 5.918611624425906825e-02
2.408870696401199385e-01 4.539884071491542272e-01
2.419276185367853216e-01 6.242111397410674556e-01
2.429681674334507047e-01 6.063645904244197027e-01
2.440087163301160877e-01 6.139941825051451474e-01
2.450492652267814708e-01 7.734125771558026941e-01
2.460898141234468539e-01 8.381727205278757253e-01
2.471303630201122370e-01 9.633636819532718221e-01
2.481709119167776201e-01 1.012528880609220749e+00
2.492114608134430032e-01 9.902971087621743607e-01
2.502520097101083585e-01 7.503241820481889590e-01
2.512925586067737416e-01 1.093161538494950236e+00
2.523331075034391247e-01 1.011612883899633886e+00
2.533736564001045077e-01 1.201110977426996129e+00
2.544142052967698908e-01 1.552048362848935881e+00
2.554547541934352739e-01 1.618937253117675112e+00
2.564953030901006570e-01 1.417682873465679450e+00
2.575358519867660401e-01 1.278581863986229195e+00
2.585764008834314231e-01 1.282901849563614860e+00
2.596169497800968062e-01 1.301185703566332563e+00
2.606574986767621893e-01 1.181921183198578973e+00
2.616980475734275724e-01 1.144280021774505940e+00
2.627385964700929555e-01 1.129568302265511193e+00
2.637791453667583386e-01 1.235025084174992571e+00
2.648196942634237216e-01 1.478139521402038525e+00
2.658602431600891047e-01 1.432022257885964933e+00
2.669007920567544878e-01 1.310538186274353478e+00
2.679413409534198709e-01 1.511946711197506232e+00
2.689818898500852540e-01 1.822009442185077432e+00
2.700224387467506371e-01 2.119903829806705886e+00
2.710629876434160201e-01 2.314876154287077270e+00
2.721035365400814032e-01 2.374196229383436219e+00
2.731440854367467863e-01 2.148645204125525510e+00
2.741846343334121694e-01 1.601549871569215355e+00
2.752251832300775525e-01 1.370290950896247750e+00
2.762657321267429356e-01 1.122184272766634905e+00
2.773062810234083186e-01 9.233376290995813918e-01
2.783468299200737017e-01 9.539800696244462586e-01
2.793873788167390848e-01 1.005924057962655382e+00
2.804279277134044679e-01 1.176556199860900875e+00
2.814684766100698510e-01 8.855782211721177077e-01
2.825090255067352341e-01 4.797632916871634734e-01
2.835495744034006171e-01 5.520029049626771211e-01
2.845901233000660002e-01 6.963597987705156811e-01
2.856306721967313833e-01 9.325519693212989125e-01
2.866712210933967664e-01 9.294519137341303860e-01
2.877117699900621495e-01 1.025255891839599087e+00
2.887523188867275326e-01 9.522032219152691823e-01
2.897928677833929156e-01 1.015911438420726398e+00
2.908334166800582987e-01 8.247116209066440717e-01
2.918739655767236818e-01 7.418609489077319097e-01
2.929145144733890649e-01 8.770025212874372755e-01
2.939550633700544480e-01 7.634620745846198986e-01
2.949956122667198311e-01 9.554768038696295207e-01
2.960361611633852141e-01 8.444145417204076409e-01
2.970767100600505972e-01 6.819886042015710359e-01
2.981172589567159803e-01 7.197685829103583899e-01
2.991578078533813634e-01 8.108798033472268685e-01
3.001983567500468020e-01 7.651109119480210552e-01
3.012389056467121851e-01 7.438290793162565251e-01
3.022794545433775681e-01 7.150095994695426782e-01
3.033200034400429512e-01 4.751120005484459341e-01
3.043605523367083343e-01 4.396766872996344944e-01
3.054011012333737174e-01 6.148459558731751429e-01
3.064416501300391005e-01 7.654482623047442758e-01
3.074821990267044836e-01 6.645622688366685793e-01
3.085227479233698666e-01 5.600457891255068432e-01
3.095632968200352497e-01 7.252219966056117073e-01
3.106038457167006328e-01 4.792598997540764572e-01
3.116443946133660159e-01 4.088170695855843917e-01
3.126849435100313990e-01 5.547393118245054211e-01
3.137254924066967821e-01 5.694065919531112741e-01
3.147660413033621651e-01 5.415738248813006805e-01
3.158065902000275482e-01 3.302170685659895355e-01
3.168471390966929313e-01 3.236506114171362469e-01
3.178876879933583144e-01 3.689459194303807976e-01
3.189282368900236975e-01 4.474585651450624368e-01
3.199687857866890806e-01 4.023313260539254088e-01
3.210093346833544636e-01 5.255170510445594800e-01
3.220498835800198467e-01 5.750039692943609282e-01
3.230904324766852298e-01 5.970007559788257367e-01
3.241309813733506129e-01 5.068531293713363084e-01
3.251715302700159960e-01 4.495012317929116819e-01
3.262120791666813790e-01 6.093751132675357951e-01
3.272526280633467621e-01 5.907345295749593106e-01
3.282931769600121452e-01 2.120552256554724124e-01
3.293337258566775283e-01 0.000000000000000000e+00
3.303742747533429114e-01 1.191759564933576598e-01
3.314148236500082945e-01 1.480208328521896988e-01
3.324553725466736775e-01 2.738021902952212372e-01
3.334959214433390606e-01 3.938224117711364158e-01
3.345364703400044437e-01 3.385794629092515606e-01
3.355770192366698268e-01 3.694229369415431563e-01
3.366175681333352099e-01 5.159096826556890392e-01
3.376581170300005930e-01 4.076295975706223373e-01
3.386986659266659760e-01 4.073739414075738807e-01
3.397392148233313591e-01 3.889131386704143267e-01
3.407797637199967422e-01 4.812860074089790885e-01
3.418203126166621253e-01 4.491906166909522824e-01
3.428608615133275084e-01 2.407267470868426074e-01
3.439014104099928915e-01 1.828471106178923833e-01
3.449419593066582745e-01 2.723855697997308312e-01
3.459825082033236576e-01 5.174921047650222761e-01
3.470230570999890407e-01 4.708202148254692077e-01
3.480636059966544238e-01 5.934164057270230330e-01
3.491041548933198069e-01 5.461345904896468539e-01
3.501447037899851900e-01 6.023384324782057320e-01
3.511852526866505730e-01 4.424957960926185763e-01
3.522258015833159561e-01 2.849967904024879317e-01
3.532663504799813392e-01 4.850632905526808258e-01
3.543068993766467223e-01 4.428278256225937071e-01
3.553474482733121054e-01 4.188823067880669271e-01
3.563879971699774885e-01 4.641431234429411745e-01
3.574285460666428715e-01 5.032884331372784459e-01
3.584690949633082546e-01 5.247349683806206144e-01
3.595096438599736377e-01 5.123755471831827890e-01
3.605501927566390208e-01 5.858867632040620776e-01
3.615907416533044039e-01 4.539838993727514094e-01
3.626312905499697870e-01 2.777841994493392974e-01
3.636718394466351700e-01 3.628878060151095042e-01
3.647123883433005531e-01 3.903479425360671939e-01
3.657529372399659362e-01 3.907257989109496066e-01
3.667934861366313193e-01 3.986266779040690267e-01
3.678340350332967024e-01 5.381679786636546226e-01
3.688745839299620854e-01 6.722123857363584420e-01
3.699151328266274685e-01 5.319506747247721989e-01
3.709556817232928516e-01 6.242006699286335447e-01
3.719962306199582347e-01 9.690856520352006953e-01
3.730367795166236178e-01 8.585588019603136445e-01
3.740773284132890009e-01 8.142396514318086531e-01
3.751178773099543839e-01 7.801117221776436850e-01
3.761584262066197670e-01 6.959161342322310873e-01
3.771989751032851501e-01 5.833491425555976662e-01
3.782395239999505332e-01 6.041666400347054378e-01
3.792800728966159163e-01 5.976064175562321168e-01
3.803206217932812994e-01 5.151846100620467439e-01
3.813611706899466824e-01 4.175122117626735019e-01
3.824017195866120655e-01 2.881563555504733642e-01
3.834422684832774486e-01 5.061180109458405241e-01
3.844828173799428317e-01 3.226517379759634707e-01
3.855233662766082148e-01 3.717779600464261591e-01
3.865639151732735979e-01 3.962570131669700402e-01
3.876044640699389809e-01 2.804803556656239039e-01
3.886450129666043640e-01 2.501712992853697415e-01
3.896855618632697471e-01 4.040174749789677833e-01
3.907261107599351302e-01 6.213720112935270379e-01
3.917666596566005133e-01 4.409648862045756346e-01
3.928072085532658964e-01 5.800728423529584177e-01
3.938477574499312794e-01 6.097267816249143380e-01
3.948883063465966625e-01 3.888698175701890136e-01
3.959288552432620456e-01 6.233948218728890822e-01
3.969694041399274287e-01 7.024359239839554903e-01
3.980099530365928118e-01 5.519816196953115650e-01
3.990505019332581949e-01 4.144011181567073265e-01
4.000910508299235779e-01 2.297418276175982044e-01
4.011315997265889610e-01 1.565529676077055399e-01
4.021721486232543441e-01 2.746980853636600273e-01
4.032126975199197272e-01 2.755197030430096561e-01
4.042532464165851103e-01 3.750954248240283562e-01
4.052937953132504934e-01 4.836055257396978391e-01
4.063343442099158764e-01 3.768074602600215428e-01
4.073748931065812595e-01 4.456930611034444212e-01
4.084154420032466426e-01 2.269117012407662060e-01
4.094559908999120257e-01 3.524076460185767701e-01
4.104965397965774088e-01 3.992904134999442078e-01
4.115370886932427918e-01 3.067250824094038819e-01
4.125776375899081749e-01 2.455877302313460575e-01
4.136181864865735580e-01 3.607584160369547988e-01
4.146587353832389411e-01 5.164239639209711186e-01
4.156992842799043242e-01 5.873272375431177750e-01
4.167398331765697073e-01 3.881833617187560037e-01
4.177803820732350903e-01 5.278081974588069158e-01
4.188209309699004734e-01 3.196754037635329837e-01
4.198614798665658565e-01 2.227142854497046187e-01
4.209020287632312396e-01 1.289418273609861387e-01
4.219425776598966227e-01 2.973639852496710034e-01
4.229831265565620058e-01 3.463193736221050756e-01
4.240236754532273888e-01 2.956982815985824686e-01
4.250642243498927719e-01 1.912750263205573731e-01
4.261047732465581550e-01 3.158885040442953596e-01
4.271453221432235381e-01 2.386007935203764418e-01
4.281858710398889212e-01 1.651493478650145619e-01
4.292264199365543043e-01 2.593962374089144873e-01
4.302669688332196873e-01 4.513981328822644912e-01
4.313075177298850704e-01 3.763186041263502091e-01
4.323480666265504535e-01 2.427238165980760698e-01
4.333886155232158366e-01 2.805246477315535003e-01
4.344291644198812197e-01 2.337654566099054421e-01
