# q (1/Angstrom), Intensity (arb)
2.029070354705860696e-02 1.402349466279095850e+03
2.133125244372399004e-02 1.396066363432708613e+03
2.237180134038937659e-02 1.393629883117879444e+03
2.341235023705475968e-02 1.381071304842383597e+03
2.445289913372014276e-02 1.370957960215863068e+03
2.549344803038552584e-02 1.364043072924088392e+03
2.653399692705091240e-02 1.354946542153813425e+03
2.757454582371629548e-02 1.337394273768659104e+03
2.861509472038167856e-02 1.322873552435209149e+03
2.965564361704706164e-02 1.304672136517187255e+03
3.069619251371244473e-02 1.284969980679129776e+03
3.173674141037782781e-02 1.270214561896905252e+03
3.277729030704321089e-02 1.252407100250155281e+03
3.381783920370859398e-02 1.234077841454327427e+03
3.485838810037397706e-02 1.212515944062052313e+03
3.589893699703936014e-02 1.192516987317991834e+03
3.693948589370474322e-02 1.174962451812534027e+03
3.798003479037012631e-02 1.153081044149648733e+03
3.902058368703550939e-02 1.134347846135677855e+03
4.006113258370089247e-02 1.107955518891214979e+03
4.110168148036627556e-02 1.086718833482772652e+03
4.214223037703165864e-02 1.066847841535950465e+03
4.318277927369704866e-02 1.043996695711953635e+03
4.422332817036243174e-02 1.020654815502030146e+03
4.526387706702781483e-02 9.973919759053463849e+02
4.630442596369319791e-02 9.758971474709284166e+02
4.734497486035858099e-02 9.548455794474068625e+02
4.838552375702396408e-02 9.301381655568105771e+02
4.942607265368934716e-02 9.067091831791705090e+02
5.046662155035473024e-02 8.824844512522500963e+02
5.150717044702011332e-02 8.589698081698213628e+02
5.254771934368549641e-02 8.339949785010522874e+02
5.358826824035087949e-02 8.110272782755503158e+02
5.462881713701626257e-02 7.907514689822361333e+02
5.566936603368164566e-02 7.671029809755318638e+02
5.670991493034702874e-02 7.425653151061025028e+02
5.775046382701241182e-02 7.204808818779490593e+02
5.879101272367779490e-02 6.994339573765389559e+02
5.983156162034317799e-02 6.796254655148522943e+02
6.087211051700856107e-02 6.552708329160163885e+02
6.191265941367394415e-02 6.310793281682672387e+02
6.295320831033933417e-02 6.115025588340583909e+02
6.399375720700471726e-02 5.917865212462731961e+02
6.503430610367010034e-02 5.698199869671453826e+02
6.607485500033548342e-02 5.511148257279496647e+02
6.711540389700086651e-02 5.305760349616560916e+02
6.815595279366624959e-02 5.091225391692338462e+02
6.919650169033163267e-02 4.881361048716000255e+02
7.023705058699701576e-02 4.697858632330600699e+02
7.127759948366239884e-02 4.506361262874253271e+02
7.231814838032778192e-02 4.352964423596571351e+02
7.335869727699316500e-02 4.160586571310794852e+02
7.439924617365854809e-02 3.966767233266961625e+02
7.543979507032393117e-02 3.784226378639404516e+02
7.648034396698931425e-02 3.629854983212904926e+02
7.752089286365469734e-02 3.459063062082083775e+02
7.856144176032008042e-02 3.289375649321375477e+02
7.960199065698546350e-02 3.131232734927607453e+02
8.064253955365084658e-02 2.975112402544549468e+02
8.168308845031622967e-02 2.836870105963382116e+02
8.272363734698161275e-02 2.695097098347061433e+02
8.376418624364699583e-02 2.544850592530026177e+02
8.480473514031239279e-02 2.425482567258665654e+02
8.584528403697777588e-02 2.292425582886500024e+02
8.688583293364315896e-02 2.159842634050256720e+02
8.792638183030854204e-02 2.030547102268089077e+02
8.896693072697392513e-02 1.908042081639592595e+02
9.000747962363930821e-02 1.804901088712967407e+02
9.104802852030469129e-02 1.691094754189397236e+02
9.208857741697007437e-02 1.595148990380634757e+02
9.312912631363545746e-02 1.488098242654180012e+02
9.416967521030084054e-02 1.390421743736159215e+02
9.521022410696622362e-02 1.292796023714539615e+02
9.625077300363160671e-02 1.196748770395206236e+02
9.729132190029698979e-02 1.119017462978298312e+02
9.833187079696237287e-02 1.037825646388100438e+02
9.937241969362775595e-02 9.602375725918878402e+01
1.004129685902931390e-01 8.889923710630890241e+01
1.014535174869585221e-01 8.251585475056995733e+01
1.024940663836239052e-01 7.575931570168185658e+01
1.035346152802892883e-01 6.912599281031108944e+01
1.045751641769546714e-01 6.335684292039159260e+01
1.056157130736200545e-01 5.796462827668165119e+01
1.066562619702854375e-01 5.272045426437067306e+01
1.076968108669508206e-01 4.818600283098521686e+01
1.087373597636162037e-01 4.394309349301869361e+01
1.097779086602815868e-01 3.897009438825787697e+01
1.108184575569469699e-01 3.499362996451755947e+01
1.118590064536123529e-01 3.157885041116215064e+01
1.128995553502777360e-01 2.805074599353231690e+01
1.139401042469431191e-01 2.474322042315904469e+01
1.149806531436085022e-01 2.203152421469834366e+01
1.160212020402738853e-01 1.958919609009740270e+01
1.170617509369392684e-01 1.715299684128180502e+01
1.181022998336046514e-01 1.491414910407991101e+01
1.191428487302700345e-01 1.284212684056094389e+01
1.201833976269354176e-01 1.121507784955322506e+01
1.212239465236008007e-01 9.670976905171748683e+00
1.222644954202661838e-01 8.232282054389571613e+00
1.233050443169315669e-01 6.922529363883654696e+00
1.243455932135969499e-01 5.534218945539606693e+00
1.253861421102623330e-01 5.118836830296118023e+00
1.264266910069277161e-01 4.407548615032816031e+00
1.274672399035930992e-01 3.327749718242472454e+00
1.285077888002584823e-01 2.831177694021846492e+00
1.295483376969238654e-01 2.240498096288973784e+00
1.305888865935892484e-01 1.421518383786718687e+00
1.316294354902546315e-01 1.786351972742792782e+00
1.326699843869200146e-01 1.856594529838531571e+00
1.337105332835853977e-01 1.679134067926639773e+00
1.347510821802507808e-01 1.885974717278834589e+00
1.357916310769161639e-01 1.847658155557418524e+00
1.368321799735815469e-01 1.677556140928643913e+00
1.378727288702469300e-01 2.177206356170110269e+00
1.389132777669123131e-01 2.382450068323883841e+00
1.399538266635776962e-01 2.543197318458929601e+00
1.409943755602430793e-01 2.863386751897948557e+00
1.420349244569084624e-01 3.507436353515252847e+00
1.430754733535738454e-01 3.904878664956036971e+00
1.441160222502392285e-01 4.404959072367645945e+00
1.451565711469046116e-01 4.538881158187393794e+00
1.461971200435699947e-01 4.832157749392685275e+00
1.472376689402353778e-01 5.647488363472326967e+00
1.482782178369007609e-01 6.054413785776723955e+00
1.493187667335661439e-01 6.282564190851203989e+00
1.503593156302315270e-01 6.251749056905275381e+00
1.513998645268969101e-01 6.967208975932450699e+00
1.524404134235622932e-01 7.758097868501231176e+00
1.534809623202276763e-01 7.800294027772835648e+00
1.545215112168930593e-01 8.267293833962945371e+00
1.555620601135584424e-01 8.628144029702561113e+00
1.566026090102238255e-01 9.175732992191825588e+00
1.576431579068892086e-01 9.331830139594956108e+00
1.586837068035545917e-01 9.747673671762321135e+00
1.597242557002199748e-01 9.978843262935221503e+00
1.607648045968853578e-01 1.014391518112932289e+01
1.618053534935507409e-01 1.018112230293570519e+01
1.628459023902161240e-01 1.008232274697315489e+01
1.638864512868815071e-01 1.036476426457328159e+01
1.649270001835468902e-01 1.072647947763304188e+01
1.659675490802122733e-01 1.098510393293545917e+01
1.670080979768776563e-01 1.122506885030922064e+01
1.680486468735430672e-01 1.141856489522543683e+01
1.690891957702084503e-01 1.132493541337337462e+01
1.701297446668738333e-01 1.126736819595233996e+01
1.711702935635392164e-01 1.121956565751959545e+01
1.722108424602045995e-01 1.081027210759380353e+01
1.732513913568699826e-01 1.058256989403813719e+01
1.742919402535353657e-01 1.062777155866230672e+01
1.753324891502007488e-01 1.084359870669152315e+01
1.763730380468661318e-01 1.021993749285450548e+01
1.774135869435315149e-01 9.944471909349253735e+00
1.784541358401968980e-01 1.016255873071999360e+01
1.794946847368622811e-01 9.740251478518622719e+00
1.805352336335276642e-01 9.309021853417718262e+00
1.815757825301930473e-01 9.176430107114100565e+00
1.826163314268584303e-01 8.870661547853462281e+00
1.836568803235238134e-01 8.974373294798358103e+00
1.846974292201891965e-01 8.757779315464532033e+00
1.857379781168545796e-01 8.313637799652557447e+00
1.867785270135199627e-01 7.913871096639276459e+00
1.878190759101853458e-01 7.614019785595544931e+00
1.888596248068507288e-01 7.197400146695585477e+00
1.899001737035161119e-01 7.338303025909439725e+00
1.909407226001814950e-01 6.909551110994698320e+00
1.919812714968468781e-01 6.268360442202212113e+00
1.930218203935122612e-01 6.176983612603748952e+00
1.940623692901776443e-01 5.963381538679385585e+00
1.951029181868430273e-01 5.461512863619201852e+00
1.961434670835084104e-01 5.141153672102038996e+00
1.971840159801737935e-01 5.050110340948975818e+00
1.982245648768391766e-01 4.802575444087541001e+00
1.992651137735045597e-01 4.095084582463538680e+00
2.003056626701699428e-01 4.108852873213329815e+00
2.013462115668353813e-01 3.869603925944204548e+00
2.023867604635007644e-01 3.518722576886617048e+00
2.034273093601661475e-01 3.631602500754418372e+00
2.044678582568315306e-01 3.240736039590721873e+00
2.055084071534969137e-01 2.757781836782900342e+00
2.065489560501622968e-01 2.648316807809170115e+00
2.075895049468276798e-01 2.720144732951524702e+00
2.086300538434930629e-01 2.050515286321022757e+00
2.096706027401584460e-01 1.807343400396398181e+00
2.107111516368238291e-01 1.821383315865290342e+00
2.117517005334892122e-01 1.654699573383922484e+00
2.127922494301545953e-01 1.586682828531657208e+00
2.138327983268199783e-01 1.110796267174102070e+00
2.148733472234853614e-01 1.153093987569331347e+00
2.159138961201507445e-01 1.303186930814302258e+00
2.169544450168161276e-01 1.087253080468528310e+00
2.179949939134815107e-01 8.606810133070652569e-01
2.190355428101468938e-01 7.613312137147651981e-01
2.200760917068122768e-01 5.025803519884703974e-01
2.211166406034776599e-01 5.951617060304670304e-01
2.221571895001430430e-01 4.744573445919186838e-01
2.231977383968084261e-01 4.157550986226112855e-01
2.242382872934738092e-01 5.015866253947329767e-01
2.252788361901391923e-01 5.001334905229910532e-01
2.263193850868045753e-01 5.143355242278246919e-01
2.273599339834699584e-01 6.742335080395989166e-01
2.284004828801353415e-01 5.133490186177915859e-01
2.294410317768007246e-01 6.972268376510442067e-01
2.304815806734661077e-01 6.240641174504659716e-01
2.315221295701314908e-01 3.010999593637748717e-01
2.325626784667968738e-01 4.679745177901288855e-01
2.336032273634622569e-01 8.242366987105889109e-01
2.346437762601276400e-01 5.953877385390882182e-01
2.356843251567930231e-01 1.998437689494103608e-01
2.367248740534584062e-01 3.181604931370252132e-01
2.377654229501237892e-01 3.550125623777979911e-01
2.388059718467891723e-01 6.309316354076592859e-01
2.398465207434545554e-01 4.420761370374819421e-01
2.408870696401199385e-01 3.662708396582878834e-01
2.419276185367853216e-01 4.880924025821720136e-01
2.429681674334507047e-01 7.093929325254819673e-01
2.440087163301160877e-01 8.374302245358826724e-01
2.450492652267814708e-01 1.061396347110058258e+00
2.460898141234468539e-01 8.901036510229616283e-01
2.471303630201122370e-01 9.072100862191447845e-01
2.481709119167776201e-01 8.769775508251029805e-01
2.492114608134430032e-01 8.693943258436753752e-01
2.502520097101083585e-01 1.211172619818576379e+00
2.512925586067737416e-01 1.237707604910063708e+00
2.523331075034391247e-01 1.247440129112867169e+00
2.533736564001045077e-01 1.049182469245462102e+00
2.544142052967698908e-01 1.112230521221441393e+00
2.554547541934352739e-01 1.286114973566096609e+00
2.564953030901006570e-01 1.067217417370230237e+00
2.575358519867660401e-01 1.229981221622512777e+00
2.585764008834314231e-01 1.669965710555377569e+00
2.596169497800968062e-01 1.462315247372654170e+00
2.606574986767621893e-01 1.327371544519259317e+00
2.616980475734275724e-01 1.312635389886022352e+00
2.627385964700929555e-01 1.400886571066969566e+00
2.637791453667583386e-01 1.546611386489683326e+00
2.648196942634237216e-01 1.483353218303001597e+00
2.658602431600891047e-01 1.347891320544622573e+00
2.669007920567544878e-01 1.554733918474642707e+00
2.679413409534198709e-01 1.630595842812038399e+00
2.689818898500852540e-01 1.557162105096768556e+00
2.700224387467506371e-01 1.601505413663499411e+00
2.710629876434160201e-01 1.491004804108424509e+00
2.721035365400814032e-01 1.359507960878364230e+00
2.731440854367467863e-01 1.344628518077417567e+00
2.741846343334121694e-01 1.416432644928438123e+00
2.752251832300775525e-01 1.637580069595774290e+00
2.762657321267429356e-01 1.564604980203839091e+00
2.773062810234083186e-01 1.635039281840480641e+00
2.783468299200737017e-01 1.667883479767240829e+00
2.793873788167390848e-01 1.423945576259892931e+00
2.804279277134044679e-01 1.368755283126379396e+00
2.814684766100698510e-01 1.350150559617947721e+00
2.825090255067352341e-01 1.525779963920022908e+00
2.835495744034006171e-01 1.414942087497962575e+00
2.845901233000660002e-01 1.095031634310867474e+00
2.856306721967313833e-01 9.605385742983330033e-01
2.866712210933967664e-01 9.000873773782629428e-01
2.877117699900621495e-01 7.477488441968098698e-01
2.887523188867275326e-01 7.215095460955751605e-01
2.897928677833929156e-01 6.667061825114117823e-01
2.908334166800582987e-01 7.342063368027140768e-01
2.918739655767236818e-01 1.016925881476645088e+00
2.929145144733890649e-01 9.326713236172849975e-01
2.939550633700544480e-01 4.941890768756813657e-01
2.949956122667198311e-01 6.033064908062506504e-01
2.960361611633852141e-01 7.479563817197920628e-01
2.970767100600505972e-01 7.579454351856860228e-01
2.981172589567159803e-01 7.816589949611234545e-01
2.991578078533813634e-01 7.023826260241854413e-01
3.001983567500468020e-01 3.628459397366725625e-01
3.012389056467121851e-01 5.193207135202762004e-01
3.022794545433775681e-01 7.327107723271168993e-01
3.033200034400429512e-01 7.469007558083617937e-01
3.043605523367083343e-01 4.928065584476541972e-01
3.054011012333737174e-01 6.861221508824151272e-01
3.064416501300391005e-01 7.546013190210771882e-01
3.074821990267044836e-01 4.324300888318894920e-01
3.085227479233698666e-01 2.769191856817379005e-01
3.095632968200352497e-01 1.310927296416686261e-01
3.106038457167006328e-01 5.948044936777563407e-02
3.116443946133660159e-01 1.120917405684700441e-01
3.126849435100313990e-01 3.105179145231282689e-01
3.137254924066967821e-01 1.461672737257835308e-01
3.147660413033621651e-01 1.451793201917936926e-01
3.158065902000275482e-01 1.322048107998519129e-01
3.168471390966929313e-01 2.776246943534843581e-01
3.178876879933583144e-01 2.911258219694126126e-01
3.189282368900236975e-01 2.734319112869663115e-01
3.199687857866890806e-01 4.379941891080250116e-01
3.210093346833544636e-01 3.910277076579262712e-01
3.220498835800198467e-01 3.210451018678242008e-01
3.230904324766852298e-01 4.534466735823876604e-01
3.241309813733506129e-01 2.579737668448736088e-01
3.251715302700159960e-01 2.424059616026639219e-01
3.262120791666813790e-01 1.368989365378965317e-01
3.272526280633467621e-01 0.000000000000000000e+00
3.282931769600121452e-01 1.836585611919296923e-01
3.293337258566775283e-01 3.619508340982058314e-01
3.303742747533429114e-01 1.951819451561362939e-01
3.314148236500082945e-01 8.494796534856519088e-02
3.324553725466736775e-01 2.288615066527199815e-01
3.334959214433390606e-01 3.223231831345039211e-01
3.345364703400044437e-01 3.654163378172121668e-01
3.355770192366698268e-01 4.180829216973975804e-01
3.366175681333352099e-01 3.571472736385423730e-01
3.376581170300005930e-01 1.205896287364609520e-01
3.386986659266659760e-01 1.655882196019611285e-01
3.397392148233313591e-01 3.362512961118078181e-01
3.407797637199967422e-01 2.864665828814594306e-01
3.418203126166621253e-01 3.340992974374437097e-01
3.428608615133275084e-01 5.462237051024558809e-01
3.439014104099928915e-01 4.919976099610963161e-01
3.449419593066582745e-01 3.248131008257537644e-01
3.459825082033236576e-01 4.087967541779669034e-01
3.470230570999890407e-01 4.489195807768240343e-01
3.480636059966544238e-01 5.660137250315564472e-01
3.491041548933198069e-01 2.264931752208312332e-01
3.501447037899851900e-01 3.414132173401114301e-01
3.511852526866505730e-01 7.531240403109222825e-01
3.522258015833159561e-01 7.450808638467520950e-01
3.532663504799813392e-01 4.445376678371459889e-01
3.543068993766467223e-01 5.491998724458646564e-01
3.553474482733121054e-01 5.524354940770024314e-01
3.563879971699774885e-01 4.386207012142548933e-01
3.574285460666428715e-01 5.998060771010074177e-01
3.584690949633082546e-01 6.685887851184233455e-01
3.595096438599736377e-01 5.144432619235423942e-01
3.605501927566390208e-01 4.658706293001593224e-01
3.615907416533044039e-01 5.023874870261586523e-01
3.626312905499697870e-01 4.127059027201944730e-01
3.636718394466351700e-01 5.427746667519066648e-01
3.647123883433005531e-01 5.323489318053766794e-01
3.657529372399659362e-01 6.145413189702715329e-01
3.667934861366313193e-01 5.798933215802755115e-01
3.678340350332967024e-01 5.967197711459029108e-01
3.688745839299620854e-01 5.782076955273076635e-01
3.699151328266274685e-01 5.854273857216938381e-01
3.709556817232928516e-01 6.493124517182522482e-01
3.719962306199582347e-01 7.109180512408919128e-01
3.730367795166236178e-01 6.708156878678011026e-01
3.740773284132890009e-01 3.759491350322328174e-01
3.751178773099543839e-01 3.631587433162977163e-01
3.761584262066197670e-01 4.920500711681192740e-01
3.771989751032851501e-01 5.047471301076811301e-01
3.782395239999505332e-01 3.887010018717127480e-01
3.792800728966159163e-01 3.215383595082563772e-01
3.803206217932812994e-01 4.047147566196294122e-01
3.813611706899466824e-01 4.422020942777677988e-01
3.824017195866120655e-01 2.361047253773058685e-01
3.834422684832774486e-01 2.891078718078823329e-01
3.844828173799428317e-01 4.672320146709871835e-01
3.855233662766082148e-01 6.498157978032921278e-01
3.865639151732735979e-01 6.632439322824268402e-01
3.876044640699389809e-01 5.950550787189676782e-01
3.886450129666043640e-01 3.224312015372525764e-01
3.896855618632697471e-01 3.331947058923141469e-01
3.907261107599351302e-01 3.827464087696910156e-01
3.917666596566005133e-01 3.095677641672800462e-01
3.928072085532658964e-01 3.971246789509912389e-01
3.938477574499312794e-01 3.172572691354780261e-01
3.948883063465966625e-01 2.988205504286085556e-01
3.959288552432620456e-01 2.897292264329145439e-01
3.969694041399274287e-01 2.627235987366454140e-01
3.980099530365928118e-01 1.937428707374593273e-01
3.990505019332581949e-01 2.034782981700224980e-01
4.000910508299235779e-01 3.926025404663811003e-01
4.011315997265889610e-01 4.527681234690987822e-01
4.021721486232543441e-01 2.445780693830492680e-01
4.032126975199197272e-01 2.882940668515345806e-01
4.042532464165851103e-01 3.798326180404245633e-01
4.052937953132504934e-01 3.373182653247575047e-01
4.063343442099158764e-01 2.774233207420060410e-01
4.073748931065812595e-01 5.134630916420235280e-02
4.084154420032466426e-01 2.822792754360712308e-01
4.094559908999120257e-01 4.328108361042382057e-01
4.104965397965774088e-01 1.799271524899026531e-01
4.115370886932427918e-01 2.255804945060440048e-01
4.125776375899081749e-01 3.195908771153241901e-01
4.136181864865735580e-01 4.381444571514911956e-01
4.146587353832389411e-01 3.655476559436223738e-01
4.156992842799043242e-01 2.119703965213552976e-01
4.167398331765697073e-01 2.424417815448371982e-01
4.177803820732350903e-01 1.445284546807670267e-01
4.188209309699004734e-01 1.702914462905198434e-01
4.198614798665658565e-01 1.734752054477723959e-01
4.209020287632312396e-01 2.062429613580860632e-01
4.219425776598966227e-01 1.759489868226680187e-01
4.229831265565620058e-01 3.228346888923709912e-01
4.240236754532273888e-01 1.143291049197969755e-01
4.250642243498927719e-01 2.445473912168338870e-01
4.261047732465581550e-01 3.429652695374940663e-01
4.271453221432235381e-01 3.696144264868159723e-01
4.281858710398889212e-01 5.193731141358313153e-01
4.292264199365543043e-01 4.618030303644857781e-01
4.302669688332196873e-01 5.285728194801002644e-01
4.313075177298850704e-01 4.350705942858894559e-01
4.323480666265504535e-01 9.123152252744404223e-02
4.333886155232158366e-01 1.686995922357361621e-01
4.344291644198812197e-01 4.000696718493763626e-01
