# q (1/Angstrom), Intensity (arb)
2.029070354705860696e-02 1.403828340447995288e+03
2.133125244372399004e-02 1.401165302580433263e+03
2.237180134038937659e-02 1.393770090928789159e+03
2.341235023705475968e-02 1.381041597504226502e+03
2.445289913372014276e-02 1.374061165467540832e+03
2.549344803038552584e-02 1.367273351623583721e+03
2.653399692705091240e-02 1.354409899310561968e+03
2.757454582371629548e-02 1.337641798944949414e+03
2.861509472038167856e-02 1.320269627702436992e+03
2.965564361704706164e-02 1.299868482370108950e+03
3.069619251371244473e-02 1.281527137125275885e+03
3.173674141037782781e-02 1.270445605580686333e+03
3.277729030704321089e-02 1.255084827643691369e+03
3.381783920370859398e-02 1.233970535161753332e+03
3.485838810037397706e-02 1.211964681296666413e+03
3.589893699703936014e-02 1.189695181309085001e+03
3.693948589370474322e-02 1.172121697373246207e+03
3.798003479037012631e-02 1.154483071223417028e+03
3.902058368703550939e-02 1.131405034296407393e+03
4.006113258370089247e-02 1.106975906522209470e+03
4.110168148036627556e-02 1.088308964629711681e+03
4.214223037703165864e-02 1.066833746832205179e+03
4.318277927369704866e-02 1.041352065776959080e+03
4.422332817036243174e-02 1.016910515856506777e+03
4.526387706702781483e-02 9.929672412960237580e+02
4.630442596369319791e-02 9.703898150152549533e+02
4.734497486035858099e-02 9.503165834378738737e+02
4.838552375702396408e-02 9.271280045199559936e+02
4.942607265368934716e-02 9.053934074539637322e+02
5.046662155035473024e-02 8.812963248544319868e+02
5.150717044702011332e-02 8.582689630337530389e+02
5.254771934368549641e-02 8.349097902504831836e+02
5.358826824035087949e-02 8.122275352923394394e+02
5.462881713701626257e-02 7.868843125355571146e+02
5.566936603368164566e-02 7.629018512315958560e+02
5.670991493034702874e-02 7.409839731939175635e+02
5.775046382701241182e-02 7.212148252798407384e+02
5.879101272367779490e-02 6.973044575725232335e+02
5.983156162034317799e-02 6.746392194877495285e+02
6.087211051700856107e-02 6.551189272285215566e+02
6.191265941367394415e-02 6.342191477126747259e+02
6.295320831033933417e-02 6.124330905089716452e+02
6.399375720700471726e-02 5.916055236807105757e+02
6.503430610367010034e-02 5.705540461156441552e+02
6.607485500033548342e-02 5.507161396209228315e+02
6.711540389700086651e-02 5.292990579780017697e+02
6.815595279366624959e-02 5.074747996922528728e+02
6.919650169033163267e-02 4.893033745040875715e+02
7.023705058699701576e-02 4.682414411553384070e+02
7.127759948366239884e-02 4.474806160650397260e+02
7.231814838032778192e-02 4.295106601735238883e+02
7.335869727699316500e-02 4.134036349931926111e+02
7.439924617365854809e-02 3.955366772431584081e+02
7.543979507032393117e-02 3.775742544714989890e+02
7.648034396698931425e-02 3.620617363508128506e+02
7.752089286365469734e-02 3.468055947413813556e+02
7.856144176032008042e-02 3.307923443602142015e+02
7.960199065698546350e-02 3.140038622658763643e+02
8.064253955365084658e-02 2.987727207522523258e+02
8.168308845031622967e-02 2.835087407857995458e+02
8.272363734698161275e-02 2.690383854267677748e+02
8.376418624364699583e-02 2.552368779456962216e+02
8.480473514031239279e-02 2.410441635604594239e+02
8.584528403697777588e-02 2.274953077222170066e+02
8.688583293364315896e-02 2.148005055007598969e+02
8.792638183030854204e-02 2.017422435135850378e+02
8.896693072697392513e-02 1.909596945193922295e+02
9.000747962363930821e-02 1.795973284777938090e+02
9.104802852030469129e-02 1.680818173441496697e+02
9.208857741697007437e-02 1.569049669213563902e+02
9.312912631363545746e-02 1.482099911163732600e+02
9.416967521030084054e-02 1.387239345749753170e+02
9.521022410696622362e-02 1.284169249113408569e+02
9.625077300363160671e-02 1.196649024108630783e+02
9.729132190029698979e-02 1.115536946546340005e+02
9.833187079696237287e-02 1.036793358115893824e+02
9.937241969362775595e-02 9.580658266643834509e+01
1.004129685902931390e-01 8.900802740755491982e+01
1.014535174869585221e-01 8.217869078569529506e+01
1.024940663836239052e-01 7.513399905975281001e+01
1.035346152802892883e-01 6.892308108867571548e+01
1.045751641769546714e-01 6.315699847397353750e+01
1.056157130736200545e-01 5.750336352536079687e+01
1.066562619702854375e-01 5.250811018369345362e+01
1.076968108669508206e-01 4.821373200396084968e+01
1.087373597636162037e-01 4.348935741282403455e+01
1.097779086602815868e-01 3.876160127290361856e+01
1.108184575569469699e-01 3.509754351961806407e+01
1.118590064536123529e-01 3.111612880657242641e+01
1.128995553502777360e-01 2.743766034164175238e+01
1.139401042469431191e-01 2.466875558135446767e+01
1.149806531436085022e-01 2.153466957326760678e+01
1.160212020402738853e-01 1.917508082373324640e+01
1.170617509369392684e-01 1.726096772921004430e+01
1.181022998336046514e-01 1.503372047945656931e+01
1.191428487302700345e-01 1.235251813488419970e+01
1.201833976269354176e-01 1.045120650356659553e+01
1.212239465236008007e-01 9.255437295868219394e+00
1.222644954202661838e-01 7.901894652200319058e+00
1.233050443169315669e-01 6.983094063300612220e+00
1.243455932135969499e-01 5.722179750267336829e+00
1.253861421102623330e-01 5.105753288821382796e+00
1.264266910069277161e-01 4.241468285028204832e+00
1.274672399035930992e-01 3.299561698475429239e+00
1.285077888002584823e-01 2.695022751783369586e+00
1.295483376969238654e-01 2.420215705396941530e+00
1.305888865935892484e-01 1.836465923653776144e+00
1.316294354902546315e-01 1.913722393709981873e+00
1.326699843869200146e-01 1.794637334499022074e+00
1.337105332835853977e-01 1.203449217100228452e+00
1.347510821802507808e-01 1.352178371517638311e+00
1.357916310769161639e-01 1.988936927900773810e+00
1.368321799735815469e-01 2.159584945628871822e+00
1.378727288702469300e-01 2.498726997690411622e+00
1.389132777669123131e-01 2.318222075161813223e+00
1.399538266635776962e-01 2.863513303013597522e+00
1.409943755602430793e-01 3.359131686821811513e+00
1.420349244569084624e-01 3.417953159640426009e+00
1.430754733535738454e-01 3.434368731181805856e+00
1.441160222502392285e-01 3.968067457063071402e+00
1.451565711469046116e-01 4.536641913824752237e+00
1.461971200435699947e-01 4.993541313359557421e+00
1.472376689402353778e-01 5.438764637527995660e+00
1.482782178369007609e-01 6.008442167538113665e+00
1.493187667335661439e-01 6.855028968334039519e+00
1.503593156302315270e-01 7.130326349288687027e+00
1.513998645268969101e-01 7.877463996411776748e+00
1.524404134235622932e-01 7.724658693048169766e+00
1.534809623202276763e-01 7.747855613160467669e+00
1.545215112168930593e-01 8.362653493269775140e+00
1.555620601135584424e-01 8.677784682881807043e+00
1.566026090102238255e-01 9.164730089810255720e+00
1.576431579068892086e-01 9.557499403607110366e+00
1.586837068035545917e-01 9.679993108044932626e+00
1.597242557002199748e-01 1.008786368333437622e+01
1.607648045968853578e-01 1.000270361428900401e+01
1.618053534935507409e-01 9.924831073640213219e+00
1.628459023902161240e-01 1.041751249222458142e+01
1.638864512868815071e-01 1.055551536081100039e+01
1.649270001835468902e-01 1.051003056370021937e+01
1.659675490802122733e-01 1.051768793760305698e+01
1.670080979768776563e-01 1.017412790131729139e+01
1.680486468735430672e-01 1.057911277688782548e+01
1.690891957702084503e-01 1.077840487298248462e+01
1.701297446668738333e-01 1.042373979738648160e+01
1.711702935635392164e-01 1.058689428336089833e+01
1.722108424602045995e-01 1.075814607309288817e+01
1.732513913568699826e-01 1.110749330123737622e+01
1.742919402535353657e-01 1.115391603387683972e+01
1.753324891502007488e-01 1.099151511276178539e+01
1.763730380468661318e-01 1.079576289645475740e+01
1.774135869435315149e-01 1.026908868175179279e+01
1.784541358401968980e-01 9.588490829222507728e+00
1.794946847368622811e-01 9.716735618675091501e+00
1.805352336335276642e-01 1.016136044389851989e+01
1.815757825301930473e-01 9.906259323150333529e+00
1.826163314268584303e-01 9.093724982296460979e+00
1.836568803235238134e-01 8.930977634154935174e+00
1.846974292201891965e-01 8.628752805144102922e+00
1.857379781168545796e-01 8.126454216945049325e+00
1.867785270135199627e-01 7.814446133485873247e+00
1.878190759101853458e-01 7.394590909004431722e+00
1.888596248068507288e-01 7.120727620047922812e+00
1.899001737035161119e-01 7.396835228817682406e+00
1.909407226001814950e-01 7.063780882548204687e+00
1.919812714968468781e-01 6.508037887564213975e+00
1.930218203935122612e-01 6.200958537217093891e+00
1.940623692901776443e-01 5.582730100565147069e+00
1.951029181868430273e-01 5.628418583284847898e+00
1.961434670835084104e-01 5.567072701069704976e+00
1.971840159801737935e-01 4.916544762794774925e+00
1.982245648768391766e-01 4.694060578941883222e+00
1.992651137735045597e-01 4.236935167226533849e+00
2.003056626701699428e-01 4.175262649144094951e+00
2.013462115668353813e-01 3.929115561190059225e+00
2.023867604635007644e-01 3.744889102611349330e+00
2.034273093601661475e-01 3.923553446955700963e+00
2.044678582568315306e-01 3.534189471000107829e+00
2.055084071534969137e-01 2.813952663713891411e+00
2.065489560501622968e-01 2.640935099382744511e+00
2.075895049468276798e-01 2.397147698353471412e+00
2.086300538434930629e-01 2.392444073581138753e+00
2.096706027401584460e-01 2.150409680756418140e+00
2.107111516368238291e-01 1.729457820690917913e+00
2.117517005334892122e-01 1.599009232341643383e+00
2.127922494301545953e-01 1.494307332287704071e+00
2.138327983268199783e-01 1.576101356186320857e+00
2.148733472234853614e-01 1.329713031906244680e+00
2.159138961201507445e-01 1.439249599348769948e+00
2.169544450168161276e-01 1.271728303656821879e+00
2.179949939134815107e-01 1.039222207106799800e+00
2.190355428101468938e-01 9.835182283260834879e-01
2.200760917068122768e-01 8.849499522353561076e-01
2.211166406034776599e-01 9.466085717597323423e-01
2.221571895001430430e-01 7.809218451055954802e-01
2.231977383968084261e-01 5.950958771037626605e-01
2.242382872934738092e-01 4.911799267533218938e-01
2.252788361901391923e-01 3.799316606427645127e-01
2.263193850868045753e-01 3.422834036574222694e-01
2.273599339834699584e-01 3.113058248466487044e-01
2.284004828801353415e-01 1.606512901345986677e-01
2.294410317768007246e-01 3.294339884818242581e-02
2.304815806734661077e-01 4.243066326233879693e-01
2.315221295701314908e-01 3.230563110499886648e-01
2.325626784667968738e-01 7.588061712254372537e-01
2.336032273634622569e-01 6.373519266809033468e-01
2.346437762601276400e-01 5.480190583487996037e-01
2.356843251567930231e-01 5.996832268071834449e-01
2.367248740534584062e-01 7.162804155565787312e-01
2.377654229501237892e-01 6.156437892583674909e-01
2.388059718467891723e-01 6.493567795997883252e-01
2.398465207434545554e-01 7.668510445762848349e-01
2.408870696401199385e-01 8.725099575891448467e-01
2.419276185367853216e-01 9.825795007495763400e-01
2.429681674334507047e-01 8.791043486466492141e-01
2.440087163301160877e-01 8.895464289397168045e-01
2.450492652267814708e-01 1.112613399729198704e+00
2.460898141234468539e-01 9.714539328877940250e-01
2.471303630201122370e-01 1.135320093081180204e+00
2.481709119167776201e-01 1.204385900064536941e+00
2.492114608134430032e-01 9.320605748414010350e-01
2.502520097101083585e-01 1.281848814025678962e+00
2.512925586067737416e-01 1.303537568033799943e+00
2.523331075034391247e-01 1.167067431807563338e+00
2.533736564001045077e-01 1.406538919015659417e+00
2.544142052967698908e-01 1.416202084445394860e+00
2.554547541934352739e-01 1.483860959103882493e+00
2.564953030901006570e-01 1.577505624759002245e+00
2.575358519867660401e-01 1.699463938973622135e+00
2.585764008834314231e-01 1.641042832739849189e+00
2.596169497800968062e-01 1.575472417748567722e+00
2.606574986767621893e-01 1.600988578716918909e+00
2.616980475734275724e-01 1.551520652695451474e+00
2.627385964700929555e-01 1.516887970302303046e+00
2.637791453667583386e-01 1.760088857801790141e+00
2.648196942634237216e-01 1.848110863424373917e+00
2.658602431600891047e-01 1.585253940966168784e+00
2.669007920567544878e-01 1.809546745264384526e+00
2.679413409534198709e-01 1.893070721201109308e+00
2.689818898500852540e-01 1.827758504805107265e+00
2.700224387467506371e-01 1.723431564675212968e+00
2.710629876434160201e-01 1.757294675384905247e+00
2.721035365400814032e-01 1.652619561567515660e+00
2.731440854367467863e-01 1.561146719065558131e+00
2.741846343334121694e-01 1.602766730180476884e+00
2.752251832300775525e-01 1.604931597255788489e+00
2.762657321267429356e-01 1.528393995639543590e+00
2.773062810234083186e-01 1.749313995202001593e+00
2.783468299200737017e-01 1.631105862263741102e+00
2.793873788167390848e-01 1.380582521780649330e+00
2.804279277134044679e-01 1.283022264334853446e+00
2.814684766100698510e-01 1.068254435836287541e+00
2.825090255067352341e-01 1.304056088231956068e+00
2.835495744034006171e-01 1.107582872358026549e+00
2.845901233000660002e-01 1.272856546037068881e+00
2.856306721967313833e-01 1.056820011575002383e+00
2.866712210933967664e-01 8.638269459629484004e-01
2.877117699900621495e-01 8.125908013381994976e-01
2.887523188867275326e-01 1.000348378615505851e+00
2.897928677833929156e-01 1.233998020241674709e+00
2.908334166800582987e-01 1.194910462712552857e+00
2.918739655767236818e-01 1.149342437509467629e+00
2.929145144733890649e-01 1.108113599738516086e+00
2.939550633700544480e-01 9.492578079125131296e-01
2.949956122667198311e-01 9.955698700320034789e-01
2.960361611633852141e-01 9.097628766422296565e-01
2.970767100600505972e-01 9.031732078626610871e-01
2.981172589567159803e-01 8.001083198294054455e-01
2.991578078533813634e-01 8.918155707505555085e-01
3.001983567500468020e-01 6.661981844518791718e-01
3.012389056467121851e-01 5.653881502137991788e-01
3.022794545433775681e-01 4.919411768478028080e-01
3.033200034400429512e-01 6.261023731014390137e-01
3.043605523367083343e-01 4.740152461834803432e-01
3.054011012333737174e-01 4.516917525958241697e-01
3.064416501300391005e-01 4.682625538452427350e-01
3.074821990267044836e-01 5.163984259374920782e-01
3.085227479233698666e-01 4.975983082892199150e-01
3.095632968200352497e-01 5.871644298277871599e-01
3.106038457167006328e-01 4.851337936346808988e-01
3.116443946133660159e-01 4.253408379509728832e-01
3.126849435100313990e-01 4.630831380853486223e-01
3.137254924066967821e-01 4.250076935624420571e-01
3.147660413033621651e-01 4.550897503858166715e-01
3.158065902000275482e-01 3.270806109033017606e-01
3.168471390966929313e-01 3.756100929738401817e-01
3.178876879933583144e-01 5.655693120539204699e-01
3.189282368900236975e-01 4.415239145593687908e-01
3.199687857866890806e-01 3.490863394297605282e-01
3.210093346833544636e-01 3.265330698857837888e-01
3.220498835800198467e-01 4.309049837610672284e-01
3.230904324766852298e-01 5.110262483398066991e-01
3.241309813733506129e-01 5.325772368641494836e-01
3.251715302700159960e-01 2.498528675630389273e-01
3.262120791666813790e-01 3.745363122935003730e-01
3.272526280633467621e-01 4.406571555090401660e-01
3.282931769600121452e-01 5.972260609511401697e-01
3.293337258566775283e-01 5.646076795155501316e-01
3.303742747533429114e-01 6.611199057298726700e-01
3.314148236500082945e-01 6.949164544449786263e-01
3.324553725466736775e-01 1.812786137574207146e-01
3.334959214433390606e-01 1.855829362182745967e-01
3.345364703400044437e-01 2.455709331790956185e-01
3.355770192366698268e-01 3.503340605888887183e-01
3.366175681333352099e-01 4.484727580392267043e-01
3.376581170300005930e-01 6.402076407562695692e-01
3.386986659266659760e-01 6.455474931667701810e-01
3.397392148233313591e-01 6.899271023939661518e-01
3.407797637199967422e-01 5.864772870642838143e-01
3.418203126166621253e-01 4.452563371725268837e-01
3.428608615133275084e-01 5.723271340879669822e-01
3.439014104099928915e-01 8.663741525350232564e-01
3.449419593066582745e-01 8.486370401161948962e-01
3.459825082033236576e-01 3.964145882750251815e-01
3.470230570999890407e-01 5.010960151431582688e-01
3.480636059966544238e-01 5.066705846353585230e-01
3.491041548933198069e-01 7.382646715197402898e-01
3.501447037899851900e-01 9.887312118404310013e-01
3.511852526866505730e-01 9.290351397291622959e-01
3.522258015833159561e-01 7.625202880557964136e-01
3.532663504799813392e-01 5.506457612988029382e-01
3.543068993766467223e-01 6.692116362503490734e-01
3.553474482733121054e-01 5.741270767822932442e-01
3.563879971699774885e-01 5.397756541562905852e-01
3.574285460666428715e-01 5.219272809033164151e-01
3.584690949633082546e-01 6.494534732977612634e-01
3.595096438599736377e-01 7.315116258559442031e-01
3.605501927566390208e-01 6.196295223918397710e-01
3.615907416533044039e-01 7.182158197254260301e-01
3.626312905499697870e-01 6.691489836106576661e-01
3.636718394466351700e-01 5.531022617475578329e-01
3.647123883433005531e-01 3.645098894533909117e-01
3.657529372399659362e-01 5.099849993836187423e-01
3.667934861366313193e-01 6.350708228121746401e-01
3.678340350332967024e-01 6.721250031445258344e-01
3.688745839299620854e-01 6.237555194077017973e-01
3.699151328266274685e-01 7.804333973208059660e-01
3.709556817232928516e-01 6.582928313416260835e-01
3.719962306199582347e-01 5.046560802606379070e-01
3.730367795166236178e-01 5.387577269149232961e-01
3.740773284132890009e-01 5.640594432367649347e-01
3.751178773099543839e-01 5.179109178081056086e-01
3.761584262066197670e-01 4.052053419447254612e-01
3.771989751032851501e-01 5.335928201961159800e-01
3.782395239999505332e-01 6.744994790432095044e-01
3.792800728966159163e-01 6.222742467573709746e-01
3.803206217932812994e-01 4.239373000621036169e-01
3.813611706899466824e-01 5.196575377922698635e-01
3.824017195866120655e-01 8.487424055453196559e-01
3.834422684832774486e-01 7.338175868387111223e-01
3.844828173799428317e-01 2.835887623895239074e-01
3.855233662766082148e-01 3.030433724225325420e-01
3.865639151732735979e-01 3.991429593930178044e-01
3.876044640699389809e-01 3.942867883294169928e-01
3.886450129666043640e-01 5.688136191316957024e-01
3.896855618632697471e-01 6.329091085429965347e-01
3.907261107599351302e-01 6.005194932986519518e-01
3.917666596566005133e-01 4.011170905082082072e-01
3.928072085532658964e-01 4.454582895453995661e-01
3.938477574499312794e-01 4.281025696075460019e-01
3.948883063465966625e-01 5.977636921635429701e-01
3.959288552432620456e-01 3.419135655700209497e-01
3.969694041399274287e-01 3.734187775839394874e-01
3.980099530365928118e-01 3.051161315441568433e-01
3.990505019332581949e-01 2.923063821897819992e-01
4.000910508299235779e-01 3.193390951428121127e-01
4.011315997265889610e-01 5.552633261790340669e-01
4.021721486232543441e-01 5.344479200647036521e-01
4.032126975199197272e-01 5.791826264601880325e-01
4.042532464165851103e-01 4.937286414626242959e-01
4.052937953132504934e-01 5.210306968224927004e-01
4.063343442099158764e-01 4.106826625235626693e-01
4.073748931065812595e-01 2.732001047522167880e-01
4.084154420032466426e-01 3.573971511173290594e-01
4.094559908999120257e-01 4.371602484553420709e-01
4.104965397965774088e-01 2.677830855299383472e-01
4.115370886932427918e-01 2.437172937747575929e-01
4.125776375899081749e-01 2.835787538926197726e-01
4.136181864865735580e-01 3.365707625442126982e-01
4.146587353832389411e-01 2.166816222362015765e-01
4.156992842799043242e-01 2.653915141855947013e-01
4.167398331765697073e-01 2.820709981840572311e-01
4.177803820732350903e-01 3.286410347594888037e-01
4.188209309699004734e-01 2.948679713625530496e-01
4.198614798665658565e-01 3.983178631902433153e-01
4.209020287632312396e-01 4.352041303989153676e-01
4.219425776598966227e-01 3.953849875577155615e-01
4.229831265565620058e-01 3.179372299912870403e-01
4.240236754532273888e-01 0.000000000000000000e+00
4.250642243498927719e-01 2.497256386590613886e-01
4.261047732465581550e-01 5.114988190216038788e-01
4.271453221432235381e-01 5.058235641607815580e-01
4.281858710398889212e-01 2.674914775681891399e-01
4.292264199365543043e-01 2.393630544339053756e-01
4.302669688332196873e-01 2.088324943377450893e-01
4.313075177298850704e-01 2.536741194209852779e-01
4.323480666265504535e-01 5.792998413968106775e-01
4.333886155232158366e-01 4.753111169080881382e-01
4.344291644198812197e-01 5.131173093062066926e-01
