# q (1/Angstrom), Intensity (arb)
2.029070354705860696e-02 4.106672841754374872e+02
2.133125244372399004e-02 4.160833580005668182e+02
2.237180134038937659e-02 4.175601183100746994e+02
2.341235023705475968e-02 4.169068308033456560e+02
2.445289913372014276e-02 4.135653369048341119e+02
2.549344803038552584e-02 4.096409807785264547e+02
2.653399692705091240e-02 4.062141166987507859e+02
2.757454582371629548e-02 4.033771678216275518e+02
2.861509472038167856e-02 4.018605677608263704e+02
2.965564361704706164e-02 3.989124067530735829e+02
3.069619251371244473e-02 3.960209410536652967e+02
3.173674141037782781e-02 3.904739266120817547e+02
3.277729030704321089e-02 3.864257899453597815e+02
3.381783920370859398e-02 3.797106228417625857e+02
3.485838810037397706e-02 3.739804825386541438e+02
3.589893699703936014e-02 3.705003507330418984e+02
3.693948589370474322e-02 3.653240440142765806e+02
3.798003479037012631e-02 3.611158206056112476e+02
3.902058368703550939e-02 3.560367909747741351e+02
4.006113258370089247e-02 3.478346704401456577e+02
4.110168148036627556e-02 3.419520015976623881e+02
4.214223037703165864e-02 3.348540052026663147e+02
4.318277927369704866e-02 3.295499398100148483e+02
4.422332817036243174e-02 3.211850511229492326e+02
4.526387706702781483e-02 3.166431578340598207e+02
4.630442596369319791e-02 3.120201241694550731e+02
4.734497486035858099e-02 3.055556023157810728e+02
4.838552375702396408e-02 2.980731046779355893e+02
4.942607265368934716e-02 2.893897872725559637e+02
5.046662155035473024e-02 2.831528781527440515e+02
5.150717044702011332e-02 2.791809400281964599e+02
5.254771934368549641e-02 2.732106759599947168e+02
5.358826824035087949e-02 2.655263257070786267e+02
5.462881713701626257e-02 2.602119798779085045e+02
5.566936603368164566e-02 2.542648673479547199e+02
5.670991493034702874e-02 2.475053234763634862e+02
5.775046382701241182e-02 2.390838851354289147e+02
5.879101272367779490e-02 2.323665812117791631e+02
5.983156162034317799e-02 2.273877311471228495e+02
6.087211051700856107e-02 2.207503739139710319e+02
6.191265941367394415e-02 2.129607278559220163e+02
6.295320831033933417e-02 2.077124782749682765e+02
6.399375720700471726e-02 2.023177232825117358e+02
6.503430610367010034e-02 1.948818173624895849e+02
6.607485500033548342e-02 1.889851070356600076e+02
6.711540389700086651e-02 1.842036691066276433e+02
6.815595279366624959e-02 1.783013108779941831e+02
6.919650169033163267e-02 1.715305741662216690e+02
7.023705058699701576e-02 1.651017025756903251e+02
7.127759948366239884e-02 1.604520897701518436e+02
7.231814838032778192e-02 1.552200498389734094e+02
7.335869727699316500e-02 1.501499016676459917e+02
7.439924617365854809e-02 1.448997864928701347e+02
7.543979507032393117e-02 1.383043072620006910e+02
7.648034396698931425e-02 1.333247480151113109e+02
7.752089286365469734e-02 1.289692813568747454e+02
7.856144176032008042e-02 1.246321124173412898e+02
7.960199065698546350e-02 1.208761584463209999e+02
8.064253955365084658e-02 1.166935670728964851e+02
8.168308845031622967e-02 1.123634578163845674e+02
8.272363734698161275e-02 1.097314168355352990e+02
8.376418624364699583e-02 1.072394925392329696e+02
8.480473514031239279e-02 1.123296281286954894e+02
8.584528403697777588e-02 1.388950759600888034e+02
8.688583293364315896e-02 1.814835736755638891e+02
8.792638183030854204e-02 2.069697849785803214e+02
8.896693072697392513e-02 2.176799319279762699e+02
9.000747962363930821e-02 2.944916932358773352e+02
9.104802852030469129e-02 5.236312638051206250e+02
9.208857741697007437e-02 7.422867051378086671e+02
9.312912631363545746e-02 6.526321313214235715e+02
9.416967521030084054e-02 3.816445978033085566e+02
9.521022410696622362e-02 2.353966864503969987e+02
9.625077300363160671e-02 1.949471936103255700e+02
9.729132190029698979e-02 1.794137667750296146e+02
9.833187079696237287e-02 1.652405804449485061e+02
9.937241969362775595e-02 1.466119144478170995e+02
1.004129685902931390e-01 1.244924772532927051e+02
1.014535174869585221e-01 1.058260865071115120e+02
1.024940663836239052e-01 9.334976449404439336e+01
1.035346152802892883e-01 8.890792186186531865e+01
1.045751641769546714e-01 9.986821723857164557e+01
1.056157130736200545e-01 1.236324354125337663e+02
1.066562619702854375e-01 1.263573197817930804e+02
1.076968108669508206e-01 9.369954175353798576e+01
1.087373597636162037e-01 5.696811014670163331e+01
1.097779086602815868e-01 3.843547906147158244e+01
1.108184575569469699e-01 3.049315197475752370e+01
1.118590064536123529e-01 2.588793684287126950e+01
1.128995553502777360e-01 2.234267891636969239e+01
1.139401042469431191e-01 1.985246002679576094e+01
1.149806531436085022e-01 1.772618715661429434e+01
1.160212020402738853e-01 1.636135088775431967e+01
1.170617509369392684e-01 1.453407710234377959e+01
1.181022998336046514e-01 1.341040989490605284e+01
1.191428487302700345e-01 1.247213833402208394e+01
1.201833976269354176e-01 1.095914066365477169e+01
1.212239465236008007e-01 9.471898779075353048e+00
1.222644954202661838e-01 8.341355565124970894e+00
1.233050443169315669e-01 7.392656850649892419e+00
1.243455932135969499e-01 6.845070873982336934e+00
1.253861421102623330e-01 6.240800152434523795e+00
1.264266910069277161e-01 5.736255268984656652e+00
1.274672399035930992e-01 5.174102102227138289e+00
1.285077888002584823e-01 4.810899673564843937e+00
1.295483376969238654e-01 4.091157752044544793e+00
1.305888865935892484e-01 3.263585422674900371e+00
1.316294354902546315e-01 3.055315046631182696e+00
1.326699843869200146e-01 3.048465081483186623e+00
1.337105332835853977e-01 2.839143994795726655e+00
1.347510821802507808e-01 2.029848897108408323e+00
1.357916310769161639e-01 1.946992974127180531e+00
1.368321799735815469e-01 2.155854275347493854e+00
1.378727288702469300e-01 1.693644228728501844e+00
1.389132777669123131e-01 1.230105235981078238e+00
1.399538266635776962e-01 1.311794996264623592e+00
1.409943755602430793e-01 1.677965100454823499e+00
1.420349244569084624e-01 1.744638267020746980e+00
1.430754733535738454e-01 1.652943210328707835e+00
1.441160222502392285e-01 1.333999149415184604e+00
1.451565711469046116e-01 1.573095474103251235e+00
1.461971200435699947e-01 2.090330626138303671e+00
1.472376689402353778e-01 2.325244550115204589e+00
1.482782178369007609e-01 3.920391554750537466e+00
1.493187667335661439e-01 7.845436682116304183e+00
1.503593156302315270e-01 1.126646221826526428e+01
1.513998645268969101e-01 1.048020663910902428e+01
1.524404134235622932e-01 6.922715290477615468e+00
1.534809623202276763e-01 4.673205138246725454e+00
1.545215112168930593e-01 3.819875407970460657e+00
1.555620601135584424e-01 3.787867431065397028e+00
1.566026090102238255e-01 4.152528235262366252e+00
1.576431579068892086e-01 4.162106487076457029e+00
1.586837068035545917e-01 4.267669292672099601e+00
1.597242557002199748e-01 4.483022484744289216e+00
1.607648045968853578e-01 4.476661622396068907e+00
1.618053534935507409e-01 4.579332546804380399e+00
1.628459023902161240e-01 5.070988669133917881e+00
1.638864512868815071e-01 5.123701367894156533e+00
1.649270001835468902e-01 5.121204492217035664e+00
1.659675490802122733e-01 5.062278176561992638e+00
1.670080979768776563e-01 5.231823245476398654e+00
1.680486468735430672e-01 5.261112848865341363e+00
1.690891957702084503e-01 5.642477090014423879e+00
1.701297446668738333e-01 5.632650878404845685e+00
1.711702935635392164e-01 5.935755854578935953e+00
1.722108424602045995e-01 6.450952146214227412e+00
1.732513913568699826e-01 8.697163872256496120e+00
1.742919402535353657e-01 1.545888733805067616e+01
1.753324891502007488e-01 2.793352814168306253e+01
1.763730380468661318e-01 3.730901342589923075e+01
1.774135869435315149e-01 3.357572379107018179e+01
1.784541358401968980e-01 2.258759451159697917e+01
1.794946847368622811e-01 1.526992180566433177e+01
1.805352336335276642e-01 1.145827663675116881e+01
1.815757825301930473e-01 9.626007609147730903e+00
1.826163314268584303e-01 1.000361821277753194e+01
1.836568803235238134e-01 1.172525111371366791e+01
1.846974292201891965e-01 1.150316083423743407e+01
1.857379781168545796e-01 9.035553958798846708e+00
1.867785270135199627e-01 6.739084861839899077e+00
1.878190759101853458e-01 5.375915813747997873e+00
1.888596248068507288e-01 4.640444064039776606e+00
1.899001737035161119e-01 3.970842041745633821e+00
1.909407226001814950e-01 3.939514022832074858e+00
1.919812714968468781e-01 3.979752147381180549e+00
1.930218203935122612e-01 3.576869318587355906e+00
1.940623692901776443e-01 3.247830731124551562e+00
1.951029181868430273e-01 3.608553465303835139e+00
1.961434670835084104e-01 3.366191594753971117e+00
1.971840159801737935e-01 3.336637991548684568e+00
1.982245648768391766e-01 3.096402164352308972e+00
1.992651137735045597e-01 2.963384260422046168e+00
2.003056626701699428e-01 2.920432497139742622e+00
2.013462115668353813e-01 3.017221995003289692e+00
2.023867604635007644e-01 2.549005618752186564e+00
2.034273093601661475e-01 2.484420322392558944e+00
2.044678582568315306e-01 2.481159932648939304e+00
2.055084071534969137e-01 2.013435140051136329e+00
2.065489560501622968e-01 2.141648785544340683e+00
2.075895049468276798e-01 2.215354536939980079e+00
2.086300538434930629e-01 2.310719062192383433e+00
2.096706027401584460e-01 2.037624588921310931e+00
2.107111516368238291e-01 1.631393980922990039e+00
2.117517005334892122e-01 2.054054611161870270e+00
2.127922494301545953e-01 2.223988621628564033e+00
2.138327983268199783e-01 1.839826540991804649e+00
2.148733472234853614e-01 1.346595300847706511e+00
2.159138961201507445e-01 1.512847836392708700e+00
2.169544450168161276e-01 1.570968985514841876e+00
2.179949939134815107e-01 1.297511873879429345e+00
2.190355428101468938e-01 1.260178739351342614e+00
2.200760917068122768e-01 9.113606110969669771e-01
2.211166406034776599e-01 7.131346649279777239e-01
2.221571895001430430e-01 9.695307024242900695e-01
2.231977383968084261e-01 9.955439964947991882e-01
2.242382872934738092e-01 8.755861507640219088e-01
2.252788361901391923e-01 8.821922271139932548e-01
2.263193850868045753e-01 9.911365295252849705e-01
2.273599339834699584e-01 8.896973625395787622e-01
2.284004828801353415e-01 6.912045513776625683e-01
2.294410317768007246e-01 7.727731298150146699e-01
2.304815806734661077e-01 7.965315763402216476e-01
2.315221295701314908e-01 7.108647958334692873e-01
2.325626784667968738e-01 3.157705693701622351e-01
2.336032273634622569e-01 5.543517060152076681e-01
2.346437762601276400e-01 7.757506557694817673e-01
2.356843251567930231e-01 5.441012436633378968e-01
2.367248740534584062e-01 4.410669977777708084e-01
2.377654229501237892e-01 6.282904116528342797e-01
2.388059718467891723e-01 9.356415103965325386e-01
2.398465207434545554e-01 4.910077069512688297e-01
2.408870696401199385e-01 3.207475073360548379e-01
2.419276185367853216e-01 5.503513548228013974e-01
2.429681674334507047e-01 7.748262132391623425e-01
2.440087163301160877e-01 5.348894481190491490e-01
2.450492652267814708e-01 4.116043614125004524e-01
2.460898141234468539e-01 3.973285573608009713e-01
2.471303630201122370e-01 4.528174267927411734e-01
2.481709119167776201e-01 5.816717390240846441e-01
2.492114608134430032e-01 6.321404694171555150e-01
2.502520097101083585e-01 4.660094806781422960e-01
2.512925586067737416e-01 3.709256238291338548e-01
2.523331075034391247e-01 5.373577952005526015e-01
2.533736564001045077e-01 7.172274258968798222e-01
2.544142052967698908e-01 7.388015710941253644e-01
2.554547541934352739e-01 7.620172321486613498e-01
2.564953030901006570e-01 8.444545339293121344e-01
2.575358519867660401e-01 7.549101031632829972e-01
2.585764008834314231e-01 1.227345119514751559e+00
2.596169497800968062e-01 1.550196387066307580e+00
2.606574986767621893e-01 1.716794552905547278e+00
2.616980475734275724e-01 1.649348016786458260e+00
2.627385964700929555e-01 1.223404946217797828e+00
2.637791453667583386e-01 1.137831313059418648e+00
2.648196942634237216e-01 9.600055693421758463e-01
2.658602431600891047e-01 9.347650986485831481e-01
2.669007920567544878e-01 1.118464617452861631e+00
2.679413409534198709e-01 1.244940306088036408e+00
2.689818898500852540e-01 1.235220742707820563e+00
2.700224387467506371e-01 1.164668726236993024e+00
2.710629876434160201e-01 8.183767289762293728e-01
2.721035365400814032e-01 7.614468836865100343e-01
2.731440854367467863e-01 1.015971705167675765e+00
2.741846343334121694e-01 1.788848443114318343e+00
2.752251832300775525e-01 2.211442871723736658e+00
2.762657321267429356e-01 2.440131419853713624e+00
2.773062810234083186e-01 2.163149386136932861e+00
2.783468299200737017e-01 1.472272195703531850e+00
2.793873788167390848e-01 1.086609438265043082e+00
2.804279277134044679e-01 1.050091647519050042e+00
2.814684766100698510e-01 9.645460477759861817e-01
2.825090255067352341e-01 9.678154473946705139e-01
2.835495744034006171e-01 8.447419799958346687e-01
2.845901233000660002e-01 7.993888177405032991e-01
2.856306721967313833e-01 7.337577900109870654e-01
2.866712210933967664e-01 7.967618182790268122e-01
2.877117699900621495e-01 9.684166732725074667e-01
2.887523188867275326e-01 9.284504671578091006e-01
2.897928677833929156e-01 6.875343007441472309e-01
2.908334166800582987e-01 6.406379722459263348e-01
2.918739655767236818e-01 6.279902072551770686e-01
2.929145144733890649e-01 6.176291154744042444e-01
2.939550633700544480e-01 5.101965945813411452e-01
2.949956122667198311e-01 9.014173673932255326e-01
2.960361611633852141e-01 9.315149633474426594e-01
2.970767100600505972e-01 8.280407687543167583e-01
2.981172589567159803e-01 7.473794049672406459e-01
2.991578078533813634e-01 8.520275683368403463e-01
3.001983567500468020e-01 9.224911958898474040e-01
3.012389056467121851e-01 9.652882416483627992e-01
3.022794545433775681e-01 1.146321307108880916e+00
3.033200034400429512e-01 8.183023883217046546e-01
3.043605523367083343e-01 7.473626474394272634e-01
3.054011012333737174e-01 7.944087095511385144e-01
3.064416501300391005e-01 8.357732260826615800e-01
3.074821990267044836e-01 7.708952766726113737e-01
3.085227479233698666e-01 5.929824339082792051e-01
3.095632968200352497e-01 5.793869850499149265e-01
3.106038457167006328e-01 5.012037882698692215e-01
3.116443946133660159e-01 7.217080553544157340e-01
3.126849435100313990e-01 7.715547616628875005e-01
3.137254924066967821e-01 7.105811213546786576e-01
3.147660413033621651e-01 5.628873354975851839e-01
3.158065902000275482e-01 5.445252207629138752e-01
3.168471390966929313e-01 8.678197321022871336e-01
3.178876879933583144e-01 8.820412145646692181e-01
3.189282368900236975e-01 6.917574346314552258e-01
3.199687857866890806e-01 3.796865757756329174e-01
3.210093346833544636e-01 4.470032482253039063e-01
3.220498835800198467e-01 5.180580334477582483e-01
3.230904324766852298e-01 5.353638686761215126e-01
3.241309813733506129e-01 6.077471395601641291e-01
3.251715302700159960e-01 4.704463790092248132e-01
3.262120791666813790e-01 3.912446860628868706e-01
3.272526280633467621e-01 3.703425587592583668e-01
3.282931769600121452e-01 5.112568413030942338e-01
3.293337258566775283e-01 4.296924424476884496e-01
3.303742747533429114e-01 2.683536729031921197e-01
3.314148236500082945e-01 1.440143170547365514e-01
3.324553725466736775e-01 0.000000000000000000e+00
3.334959214433390606e-01 2.471309377518586814e-01
3.345364703400044437e-01 3.312071482642373610e-01
3.355770192366698268e-01 4.686145437747484266e-01
3.366175681333352099e-01 5.210162325760840929e-01
3.376581170300005930e-01 3.500687907406856425e-01
3.386986659266659760e-01 1.747871752248677524e-01
3.397392148233313591e-01 4.323301641281851460e-01
3.407797637199967422e-01 6.302695489408414176e-01
3.418203126166621253e-01 7.515817695348978589e-01
3.428608615133275084e-01 6.779894870398521789e-01
3.439014104099928915e-01 2.221464616110075951e-01
3.449419593066582745e-01 1.244599208134573587e-01
3.459825082033236576e-01 4.715166178938652308e-01
3.470230570999890407e-01 3.940996868688522170e-01
3.480636059966544238e-01 7.056602893081702632e-01
3.491041548933198069e-01 6.413373340511761000e-01
3.501447037899851900e-01 6.775447712322311133e-01
3.511852526866505730e-01 7.264944359141978225e-01
3.522258015833159561e-01 6.456911736494213017e-01
3.532663504799813392e-01 5.372882290730309762e-01
3.543068993766467223e-01 4.357892012042192675e-01
3.553474482733121054e-01 6.436627650962947200e-01
3.563879971699774885e-01 5.923471826141906149e-01
3.574285460666428715e-01 5.533067859014870749e-01
3.584690949633082546e-01 2.354581977431884354e-01
3.595096438599736377e-01 6.264314391560432682e-02
3.605501927566390208e-01 4.411121435955855929e-01
3.615907416533044039e-01 6.036034057840531375e-01
3.626312905499697870e-01 4.591232783249097338e-01
3.636718394466351700e-01 4.333667574597406258e-01
3.647123883433005531e-01 6.721097846970884859e-01
3.657529372399659362e-01 5.854470785954219991e-01
3.667934861366313193e-01 4.952012381845598554e-01
3.678340350332967024e-01 4.036590686033321163e-01
3.688745839299620854e-01 4.372409298473449724e-01
3.699151328266274685e-01 5.919749546914765403e-01
3.709556817232928516e-01 5.174034778765204123e-01
3.719962306199582347e-01 4.557320202024754963e-01
3.730367795166236178e-01 5.432118391155889014e-01
3.740773284132890009e-01 6.923294226097311821e-01
3.751178773099543839e-01 5.796045450393521037e-01
3.761584262066197670e-01 5.556281908481075504e-01
3.771989751032851501e-01 6.025945716712080014e-01
3.782395239999505332e-01 6.807420265179366936e-01
3.792800728966159163e-01 7.302483066142997359e-01
3.803206217932812994e-01 8.762615255676458048e-01
3.813611706899466824e-01 1.005978631751034413e+00
3.824017195866120655e-01 7.044946333066057775e-01
3.834422684832774486e-01 6.367539688276586674e-01
3.844828173799428317e-01 6.714801625210462532e-01
3.855233662766082148e-01 6.964696343747824869e-01
3.865639151732735979e-01 5.183467793455172057e-01
3.876044640699389809e-01 6.041163997617999826e-01
3.886450129666043640e-01 6.275691453396916586e-01
3.896855618632697471e-01 5.974381723363713093e-01
3.907261107599351302e-01 5.002542805457217412e-01
3.917666596566005133e-01 4.583019781195183384e-01
3.928072085532658964e-01 4.523704813485203147e-01
3.938477574499312794e-01 4.175814270645794579e-01
3.948883063465966625e-01 3.328293582694143993e-01
3.959288552432620456e-01 3.015868352303598954e-01
3.969694041399274287e-01 4.896405664566216842e-01
3.980099530365928118e-01 5.555109545325471743e-01
3.990505019332581949e-01 4.440835423860818310e-01
4.000910508299235779e-01 5.369426787629372200e-01
4.011315997265889610e-01 5.711035355690334825e-01
4.021721486232543441e-01 6.044594710734365606e-01
4.032126975199197272e-01 5.296908899246020042e-01
4.042532464165851103e-01 6.320038825979779062e-01
4.052937953132504934e-01 8.283617182234159770e-01
4.063343442099158764e-01 5.391990990808785966e-01
4.073748931065812595e-01 4.411660935738836997e-01
4.084154420032466426e-01 5.372053929697671038e-01
4.094559908999120257e-01 4.221848646574635211e-01
4.104965397965774088e-01 5.149020938284998294e-01
4.115370886932427918e-01 6.488128787755584881e-01
4.125776375899081749e-01 4.372754792752076014e-01
4.136181864865735580e-01 3.324668780737525253e-01
4.146587353832389411e-01 3.353373707583422458e-01
4.156992842799043242e-01 4.502918630304826308e-01
4.167398331765697073e-01 4.232766132567782336e-01
4.177803820732350903e-01 3.266946816616638216e-01
4.188209309699004734e-01 2.040627560715506661e-01
4.198614798665658565e-01 2.426489634005548623e-01
4.209020287632312396e-01 2.727284721043830018e-01
4.219425776598966227e-01 5.029875373826833140e-01
4.229831265565620058e-01 4.581129894463202845e-01
4.240236754532273888e-01 3.858528755311461111e-01
4.250642243498927719e-01 3.356086571996819146e-01
4.261047732465581550e-01 2.364147843717496755e-01
4.271453221432235381e-01 3.418651824321123911e-01
4.281858710398889212e-01 3.933707469831801973e-01
4.292264199365543043e-01 3.489054058148148840e-01
4.302669688332196873e-01 4.523069508397270511e-01
4.313075177298850704e-01 5.132293054892151929e-01
4.323480666265504535e-01 5.100063241196792774e-01
4.333886155232158366e-01 4.333541445655875179e-01
4.344291644198812197e-01 3.607387656510319118e-01
