# q (1/Angstrom), Intensity (arb)
2.029070354705860696e-02 1.396600109916729934e+03
2.133125244372399004e-02 1.397953612864344905e+03
2.237180134038937659e-02 1.393160980953450007e+03
2.341235023705475968e-02 1.383210721333770607e+03
2.445289913372014276e-02 1.367796051694620928e+03
2.549344803038552584e-02 1.352148833915129671e+03
2.653399692705091240e-02 1.339686918242574393e+03
2.757454582371629548e-02 1.326812069600489849e+03
2.861509472038167856e-02 1.311341076327999644e+03
2.965564361704706164e-02 1.297436203790564377e+03
3.069619251371244473e-02 1.276518828167159199e+03
3.173674141037782781e-02 1.262166544359807176e+03
3.277729030704321089e-02 1.245071867488393991e+03
3.381783920370859398e-02 1.227800531634034542e+03
3.485838810037397706e-02 1.204754522945631379e+03
3.589893699703936014e-02 1.178005203964556358e+03
3.693948589370474322e-02 1.162646511149846901e+03
3.798003479037012631e-02 1.145767300139775898e+03
3.902058368703550939e-02 1.125173099476189691e+03
4.006113258370089247e-02 1.100555305940199105e+03
4.110168148036627556e-02 1.081000090414735496e+03
4.214223037703165864e-02 1.058776904852424877e+03
4.318277927369704866e-02 1.034763501452066521e+03
4.422332817036243174e-02 1.012143750280294626e+03
4.526387706702781483e-02 9.901433538937621961e+02
4.630442596369319791e-02 9.696671287591688042e+02
4.734497486035858099e-02 9.491117712694176589e+02
4.838552375702396408e-02 9.223843770083573190e+02
4.942607265368934716e-02 9.015012784714177769e+02
5.046662155035473024e-02 8.800071580778907219e+02
5.150717044702011332e-02 8.552566700148950076e+02
5.254771934368549641e-02 8.333037023698647090e+02
5.358826824035087949e-02 8.101218209178467760e+02
5.462881713701626257e-02 7.859814129698094121e+02
5.566936603368164566e-02 7.636516615402249499e+02
5.670991493034702874e-02 7.411301235884430980e+02
5.775046382701241182e-02 7.204172385788973543e+02
5.879101272367779490e-02 6.983400851560410274e+02
5.983156162034317799e-02 6.758331145271530431e+02
6.087211051700856107e-02 6.548012420319632838e+02
6.191265941367394415e-02 6.332123391313816683e+02
6.295320831033933417e-02 6.130613500006047616e+02
6.399375720700471726e-02 5.916652577373986333e+02
6.503430610367010034e-02 5.697021252028202980e+02
6.607485500033548342e-02 5.485075522667217456e+02
6.711540389700086651e-02 5.292063409107519192e+02
6.815595279366624959e-02 5.104352714417101993e+02
6.919650169033163267e-02 4.890669888995785186e+02
7.023705058699701576e-02 4.690797935758827748e+02
7.127759948366239884e-02 4.504854199409710986e+02
7.231814838032778192e-02 4.311591772065858095e+02
7.335869727699316500e-02 4.145983259944374595e+02
7.439924617365854809e-02 3.982473682769718835e+02
7.543979507032393117e-02 3.780184600110620181e+02
7.648034396698931425e-02 3.614945426856580184e+02
7.752089286365469734e-02 3.461195442018234871e+02
7.856144176032008042e-02 3.309093192384493705e+02
7.960199065698546350e-02 3.151189147062005986e+02
8.064253955365084658e-02 2.990337570287687754e+02
8.168308845031622967e-02 2.827331420833001516e+02
8.272363734698161275e-02 2.690879115462354889e+02
8.376418624364699583e-02 2.556942773697352038e+02
8.480473514031239279e-02 2.421934683297618278e+02
8.584528403697777588e-02 2.289629819226481118e+02
8.688583293364315896e-02 2.169013820213344843e+02
8.792638183030854204e-02 2.053512470876998748e+02
8.896693072697392513e-02 1.929619477594281136e+02
9.000747962363930821e-02 1.805684991864233382e+02
9.104802852030469129e-02 1.703470409649179373e+02
9.208857741697007437e-02 1.595836604019407332e+02
9.312912631363545746e-02 1.500972559131539583e+02
9.416967521030084054e-02 1.410006379003331745e+02
9.521022410696622362e-02 1.315865990142880833e+02
9.625077300363160671e-02 1.226471569256708847e+02
9.729132190029698979e-02 1.133686846196684712e+02
9.833187079696237287e-02 1.041236479842488052e+02
9.937241969362775595e-02 9.660137239105787899e+01
1.004129685902931390e-01 9.006848165142628204e+01
1.014535174869585221e-01 8.380007852089731557e+01
1.024940663836239052e-01 7.720446561694397758e+01
1.035346152802892883e-01 6.984378272477844973e+01
1.045751641769546714e-01 6.493203728093963889e+01
1.056157130736200545e-01 5.962687742999595031e+01
1.066562619702854375e-01 5.397119560690173046e+01
1.076968108669508206e-01 4.945411412074549418e+01
1.087373597636162037e-01 4.444670809196956895e+01
1.097779086602815868e-01 4.022905290578012227e+01
1.108184575569469699e-01 3.606301050798612806e+01
1.118590064536123529e-01 3.198375398737208997e+01
1.128995553502777360e-01 2.858172336994449836e+01
1.139401042469431191e-01 2.553381652531077606e+01
1.149806531436085022e-01 2.299237797470551925e+01
1.160212020402738853e-01 2.108123075462726348e+01
1.170617509369392684e-01 1.874078688362077827e+01
1.181022998336046514e-01 1.577787345781450057e+01
1.191428487302700345e-01 1.357568121353429547e+01
1.201833976269354176e-01 1.169436814988653595e+01
1.212239465236008007e-01 1.020902630906250153e+01
1.222644954202661838e-01 8.787127804242352624e+00
1.233050443169315669e-01 7.480595525607455443e+00
1.243455932135969499e-01 6.139667476714173233e+00
1.253861421102623330e-01 4.786953777505438268e+00
1.264266910069277161e-01 4.178652598093741233e+00
1.274672399035930992e-01 3.596953029435752569e+00
1.285077888002584823e-01 2.844267450728835911e+00
1.295483376969238654e-01 2.473223744561551030e+00
1.305888865935892484e-01 2.270402573316935957e+00
1.316294354902546315e-01 1.781649328694385304e+00
1.326699843869200146e-01 1.908433599234584221e+00
1.337105332835853977e-01 2.166345143153286301e+00
1.347510821802507808e-01 2.082418703334880661e+00
1.357916310769161639e-01 2.419736380845712631e+00
1.368321799735815469e-01 2.245450724086126115e+00
1.378727288702469300e-01 2.046334132928848248e+00
1.389132777669123131e-01 2.417330668193045540e+00
1.399538266635776962e-01 2.772377810221072991e+00
1.409943755602430793e-01 3.431812095852606603e+00
1.420349244569084624e-01 3.469033561680916478e+00
1.430754733535738454e-01 3.635947496768984877e+00
1.441160222502392285e-01 3.912070023148849884e+00
1.451565711469046116e-01 4.457940642892260996e+00
1.461971200435699947e-01 5.001222704184009160e+00
1.472376689402353778e-01 5.196438814929244643e+00
1.482782178369007609e-01 5.502566722581377689e+00
1.493187667335661439e-01 6.101578748182518552e+00
1.503593156302315270e-01 6.595871989166774085e+00
1.513998645268969101e-01 6.862777580415638568e+00
1.524404134235622932e-01 7.380080566259913155e+00
1.534809623202276763e-01 7.959287758492600062e+00
1.545215112168930593e-01 8.054479342086402482e+00
1.555620601135584424e-01 8.619815750780993824e+00
1.566026090102238255e-01 8.889967149694797399e+00
1.576431579068892086e-01 9.262866602178696951e+00
1.586837068035545917e-01 9.497405199336526493e+00
1.597242557002199748e-01 9.657415258956966397e+00
1.607648045968853578e-01 1.001563551138166019e+01
1.618053534935507409e-01 1.031177624642788970e+01
1.628459023902161240e-01 1.039797765772217986e+01
1.638864512868815071e-01 1.033851198521672643e+01
1.649270001835468902e-01 1.071762771949256532e+01
1.659675490802122733e-01 1.056258501672868277e+01
1.670080979768776563e-01 1.042400419053335980e+01
1.680486468735430672e-01 1.072273839168064313e+01
1.690891957702084503e-01 1.121083550090454040e+01
1.701297446668738333e-01 1.171389333596428628e+01
1.711702935635392164e-01 1.127388894754794535e+01
1.722108424602045995e-01 1.070877304766667493e+01
1.732513913568699826e-01 1.107463778224059325e+01
1.742919402535353657e-01 1.132368507704527261e+01
1.753324891502007488e-01 1.058389060731481379e+01
1.763730380468661318e-01 1.031856364909734580e+01
1.774135869435315149e-01 9.907171854388948873e+00
1.784541358401968980e-01 9.533908180450435310e+00
1.794946847368622811e-01 9.528488502513550173e+00
1.805352336335276642e-01 9.701253587769187448e+00
1.815757825301930473e-01 9.841488585048569604e+00
1.826163314268584303e-01 9.562919436124392547e+00
1.836568803235238134e-01 9.079183049526914573e+00
1.846974292201891965e-01 8.690570982995502902e+00
1.857379781168545796e-01 8.355387546225077955e+00
1.867785270135199627e-01 7.935268146249665477e+00
1.878190759101853458e-01 7.714563221455538411e+00
1.888596248068507288e-01 7.450860694409307428e+00
1.899001737035161119e-01 7.644731680804117246e+00
1.909407226001814950e-01 7.477469027540664115e+00
1.919812714968468781e-01 7.026960824035786146e+00
1.930218203935122612e-01 6.886242237076373840e+00
1.940623692901776443e-01 6.435880983340339867e+00
1.951029181868430273e-01 6.158050918184489575e+00
1.961434670835084104e-01 5.842171376626087209e+00
1.971840159801737935e-01 5.467536909540157808e+00
1.982245648768391766e-01 5.068707204602933558e+00
1.992651137735045597e-01 4.767243981343192161e+00
2.003056626701699428e-01 4.965728702511885473e+00
2.013462115668353813e-01 4.706967525487730342e+00
2.023867604635007644e-01 3.891964774639944835e+00
2.034273093601661475e-01 3.581097862545572497e+00
2.044678582568315306e-01 3.273946371232550945e+00
2.055084071534969137e-01 2.906759854891365791e+00
2.065489560501622968e-01 2.927254893968108007e+00
2.075895049468276798e-01 2.577652408144306406e+00
2.086300538434930629e-01 2.250061573918220148e+00
2.096706027401584460e-01 2.240811336124846065e+00
2.107111516368238291e-01 2.123530237958171085e+00
2.117517005334892122e-01 2.208527600906126764e+00
2.127922494301545953e-01 1.752119425950120046e+00
2.138327983268199783e-01 1.680373659844953238e+00
2.148733472234853614e-01 1.712434097792186805e+00
2.159138961201507445e-01 1.499122162344772136e+00
2.169544450168161276e-01 1.358603485169162184e+00
2.179949939134815107e-01 1.033510878635517827e+00
2.190355428101468938e-01 8.236771205522011030e-01
2.200760917068122768e-01 7.235540656138397253e-01
2.211166406034776599e-01 7.519077786168004707e-01
2.221571895001430430e-01 9.357364298890402665e-01
2.231977383968084261e-01 7.180374545421308596e-01
2.242382872934738092e-01 7.775795597694816763e-01
2.252788361901391923e-01 5.880821266216500476e-01
2.263193850868045753e-01 2.181200656182866737e-01
2.273599339834699584e-01 3.686209939056013241e-01
2.284004828801353415e-01 5.843518307654633759e-01
2.294410317768007246e-01 3.582167498956430052e-01
2.304815806734661077e-01 5.079675096268552181e-01
2.315221295701314908e-01 7.263670116683620392e-01
2.325626784667968738e-01 6.796091926829674890e-01
2.336032273634622569e-01 9.279649673782301988e-01
2.346437762601276400e-01 1.086852361286798185e+00
2.356843251567930231e-01 6.066768113645579774e-01
2.367248740534584062e-01 4.826476090645783756e-01
2.377654229501237892e-01 5.022449811955844723e-01
2.388059718467891723e-01 9.104379027155324877e-01
2.398465207434545554e-01 8.563153230925806270e-01
2.408870696401199385e-01 1.104739120329064406e+00
2.419276185367853216e-01 1.213460342979956863e+00
2.429681674334507047e-01 9.403837363728086984e-01
2.440087163301160877e-01 7.803669014630649770e-01
2.450492652267814708e-01 9.311534801681666806e-01
2.460898141234468539e-01 1.177802026843163929e+00
2.471303630201122370e-01 1.178763385850231771e+00
2.481709119167776201e-01 9.847330175085566850e-01
2.492114608134430032e-01 1.172573262492704771e+00
2.502520097101083585e-01 1.338093742601873970e+00
2.512925586067737416e-01 1.643696606366230384e+00
2.523331075034391247e-01 1.755221713962541230e+00
2.533736564001045077e-01 1.501610798790729007e+00
2.544142052967698908e-01 1.554227693999870041e+00
2.554547541934352739e-01 1.505859677609052483e+00
2.564953030901006570e-01 1.529806862055846040e+00
2.575358519867660401e-01 1.470207275801012514e+00
2.585764008834314231e-01 1.493719330883983787e+00
2.596169497800968062e-01 1.648119330073669175e+00
2.606574986767621893e-01 1.514550003402170830e+00
2.616980475734275724e-01 1.481182128568683254e+00
2.627385964700929555e-01 1.654867555721398986e+00
2.637791453667583386e-01 1.957321549981461573e+00
2.648196942634237216e-01 1.929881946773416956e+00
2.658602431600891047e-01 1.838734065466542944e+00
2.669007920567544878e-01 1.769497701152108249e+00
2.679413409534198709e-01 1.777823779626700684e+00
2.689818898500852540e-01 1.769692471374234799e+00
2.700224387467506371e-01 1.782870923249749495e+00
2.710629876434160201e-01 1.755942906558235705e+00
2.721035365400814032e-01 1.580143152043678612e+00
2.731440854367467863e-01 1.753456592291289695e+00
2.741846343334121694e-01 1.774218592540460548e+00
2.752251832300775525e-01 1.642971948104602120e+00
2.762657321267429356e-01 1.774729960715831112e+00
2.773062810234083186e-01 1.437250825022996281e+00
2.783468299200737017e-01 1.288768383189871969e+00
2.793873788167390848e-01 1.509762943256284018e+00
2.804279277134044679e-01 1.572406985325713435e+00
2.814684766100698510e-01 1.686605628887701158e+00
2.825090255067352341e-01 1.535535470692838800e+00
2.835495744034006171e-01 1.492409452186432617e+00
2.845901233000660002e-01 1.411544125602638644e+00
2.856306721967313833e-01 1.348791024065377542e+00
2.866712210933967664e-01 1.498837762658236983e+00
2.877117699900621495e-01 1.356741623225317994e+00
2.887523188867275326e-01 1.163519115339422427e+00
2.897928677833929156e-01 1.198215479950082596e+00
2.908334166800582987e-01 1.046534748394559955e+00
2.918739655767236818e-01 9.327760044946771245e-01
2.929145144733890649e-01 6.487584060658697638e-01
2.939550633700544480e-01 7.476165730280754929e-01
2.949956122667198311e-01 1.043332819244852772e+00
2.960361611633852141e-01 1.077781619712631311e+00
2.970767100600505972e-01 1.141975264585994410e+00
2.981172589567159803e-01 1.126015037435671218e+00
2.991578078533813634e-01 1.024699029207635448e+00
3.001983567500468020e-01 8.727625929218554290e-01
3.012389056467121851e-01 9.467864381485355807e-01
3.022794545433775681e-01 9.630559158587672641e-01
3.033200034400429512e-01 8.198730395068096755e-01
3.043605523367083343e-01 4.749912248648655577e-01
3.054011012333737174e-01 4.279085518717096193e-01
3.064416501300391005e-01 5.749603601059654068e-01
3.074821990267044836e-01 6.099088348844539098e-01
3.085227479233698666e-01 6.379894137227140050e-01
3.095632968200352497e-01 6.456914764147576591e-01
3.106038457167006328e-01 8.963809540579639190e-01
3.116443946133660159e-01 5.441792938961889092e-01
3.126849435100313990e-01 0.000000000000000000e+00
3.137254924066967821e-01 3.000331254545152149e-01
3.147660413033621651e-01 2.403031254157141916e-01
3.158065902000275482e-01 2.783835567792465326e-01
3.168471390966929313e-01 4.097364670365912787e-01
3.178876879933583144e-01 3.528338737800709168e-01
3.189282368900236975e-01 3.628903362185056380e-01
3.199687857866890806e-01 4.501314961563593897e-01
3.210093346833544636e-01 2.485456273993307263e-01
3.220498835800198467e-01 1.973021126466676378e-01
3.230904324766852298e-01 4.913360042484278267e-01
3.241309813733506129e-01 6.041970436915491405e-01
3.251715302700159960e-01 7.486727529773951062e-01
3.262120791666813790e-01 5.883983498794229661e-01
3.272526280633467621e-01 7.468692598185029397e-01
3.282931769600121452e-01 5.462951365700803308e-01
3.293337258566775283e-01 4.347368643176885428e-01
3.303742747533429114e-01 5.718427814421040978e-01
3.314148236500082945e-01 5.981851846133316997e-01
3.324553725466736775e-01 5.609282729744009544e-01
3.334959214433390606e-01 5.432897756940135991e-01
3.345364703400044437e-01 3.811980382403739043e-01
3.355770192366698268e-01 4.650509159254845315e-01
3.366175681333352099e-01 6.914554743101639644e-01
3.376581170300005930e-01 6.826206099472500455e-01
3.386986659266659760e-01 4.674252578785313972e-01
3.397392148233313591e-01 4.898051943436918521e-01
3.407797637199967422e-01 8.600340291076982169e-01
3.418203126166621253e-01 7.663274644816873149e-01
3.428608615133275084e-01 5.655082306318846008e-01
3.439014104099928915e-01 6.108084917056721963e-01
3.449419593066582745e-01 7.581727212825661866e-01
3.459825082033236576e-01 7.587862054596783423e-01
3.470230570999890407e-01 6.557698494988351001e-01
3.480636059966544238e-01 8.249124430862977420e-01
3.491041548933198069e-01 7.145664188813256601e-01
3.501447037899851900e-01 7.206313090204155003e-01
3.511852526866505730e-01 5.838081174032616616e-01
3.522258015833159561e-01 6.684099023985545784e-01
3.532663504799813392e-01 6.111588908021090560e-01
3.543068993766467223e-01 6.681391105770693173e-01
3.553474482733121054e-01 6.693750815026042744e-01
3.563879971699774885e-01 6.787228572068215726e-01
3.574285460666428715e-01 6.251944758165102201e-01
3.584690949633082546e-01 6.711138686142028575e-01
3.595096438599736377e-01 8.026889728256136891e-01
3.605501927566390208e-01 7.637543129299864120e-01
3.615907416533044039e-01 7.474152295999729745e-01
3.626312905499697870e-01 8.486679621151438369e-01
3.636718394466351700e-01 8.896832106716878741e-01
3.647123883433005531e-01 8.369931070787934857e-01
3.657529372399659362e-01 6.724332037764817471e-01
3.667934861366313193e-01 6.367369922636960666e-01
3.678340350332967024e-01 6.684667321595476608e-01
3.688745839299620854e-01 7.935890346202754131e-01
3.699151328266274685e-01 7.945855719291543551e-01
3.709556817232928516e-01 8.080417751629624945e-01
3.719962306199582347e-01 6.945865453620854169e-01
3.730367795166236178e-01 5.867114020465429292e-01
3.740773284132890009e-01 6.968623653811043539e-01
3.751178773099543839e-01 8.117986260383744934e-01
3.761584262066197670e-01 8.437288046090891669e-01
3.771989751032851501e-01 7.090171048917284224e-01
3.782395239999505332e-01 5.890832532660965626e-01
3.792800728966159163e-01 4.029156044745612064e-01
3.803206217932812994e-01 5.369018085623906700e-01
3.813611706899466824e-01 6.091606609087243385e-01
3.824017195866120655e-01 4.999449852371355973e-01
3.834422684832774486e-01 6.176222331205387661e-01
3.844828173799428317e-01 6.636089438471657331e-01
3.855233662766082148e-01 6.742510053493475652e-01
3.865639151732735979e-01 5.011015132808616102e-01
3.876044640699389809e-01 6.462157639433918632e-01
3.886450129666043640e-01 6.243024196635147405e-01
3.896855618632697471e-01 5.704066196452046711e-01
3.907261107599351302e-01 5.028489774248612321e-01
3.917666596566005133e-01 4.730225999687291960e-01
3.928072085532658964e-01 5.169475381562023131e-01
3.938477574499312794e-01 6.728443281173213109e-01
3.948883063465966625e-01 4.927322417739148364e-01
3.959288552432620456e-01 6.044307756716342794e-01
3.969694041399274287e-01 6.008673027990596438e-01
3.980099530365928118e-01 5.187897626014787988e-01
3.990505019332581949e-01 6.761148463406811970e-01
4.000910508299235779e-01 5.457914894918367565e-01
4.011315997265889610e-01 4.492722362456333940e-01
4.021721486232543441e-01 3.651981034003881632e-01
4.032126975199197272e-01 3.180983077920167545e-01
4.042532464165851103e-01 3.709820831343719760e-01
4.052937953132504934e-01 5.017875686182442507e-01
4.063343442099158764e-01 4.673027506077964688e-01
4.073748931065812595e-01 4.191145379692748918e-01
4.084154420032466426e-01 3.475604517744308453e-01
4.094559908999120257e-01 3.724657782043543364e-01
4.104965397965774088e-01 4.458428329816968017e-01
4.115370886932427918e-01 4.324713365434504908e-01
4.125776375899081749e-01 3.073854235187098993e-01
4.136181864865735580e-01 3.467868360147221551e-01
4.146587353832389411e-01 3.871921133075311161e-01
4.156992842799043242e-01 3.823718522161172473e-01
4.167398331765697073e-01 6.685565670545479122e-01
4.177803820732350903e-01 5.752040496352144316e-01
4.188209309699004734e-01 5.265358143991107909e-01
4.198614798665658565e-01 6.306708297034475663e-01
4.209020287632312396e-01 3.703978012507356254e-01
4.219425776598966227e-01 2.058640562620084324e-01
4.229831265565620058e-01 2.936540052971956527e-01
4.240236754532273888e-01 3.212849087247278135e-01
4.250642243498927719e-01 4.572336999697199644e-01
4.261047732465581550e-01 5.912306045570971946e-01
4.271453221432235381e-01 3.381341605315242305e-01
4.281858710398889212e-01 2.269946131959272861e-01
4.292264199365543043e-01 3.476814515039805542e-01
4.302669688332196873e-01 3.027542586723335205e-01
4.313075177298850704e-01 3.949084295328582073e-01
4.323480666265504535e-01 5.088367513830718281e-01
4.333886155232158366e-01 7.175716198103572196e-01
4.344291644198812197e-01 5.636480330665030181e-01
