# q (1/Angstrom), Intensity (arb)
2.029070354705860696e-02 1.397975305052455042e+03
2.133125244372399004e-02 1.398010041013794535e+03
2.237180134038937659e-02 1.393296196491839964e+03
2.341235023705475968e-02 1.387435672371845840e+03
2.445289913372014276e-02 1.374614843220200328e+03
2.549344803038552584e-02 1.365236995005898507e+03
2.653399692705091240e-02 1.354928439253451870e+03
2.757454582371629548e-02 1.341071695037551535e+03
2.861509472038167856e-02 1.326280099600864560e+03
2.965564361704706164e-02 1.305538974375405360e+03
3.069619251371244473e-02 1.289884029448754973e+03
3.173674141037782781e-02 1.274569496881497344e+03
3.277729030704321089e-02 1.252562369056844545e+03
3.381783920370859398e-02 1.231719846299606616e+03
3.485838810037397706e-02 1.210516719872940939e+03
3.589893699703936014e-02 1.191459487789964214e+03
3.693948589370474322e-02 1.170567415994252542e+03
3.798003479037012631e-02 1.153447118347048672e+03
3.902058368703550939e-02 1.132073047193248613e+03
4.006113258370089247e-02 1.108106461934293065e+03
4.110168148036627556e-02 1.085929887250347520e+03
4.214223037703165864e-02 1.062328441066765890e+03
4.318277927369704866e-02 1.042352105962605265e+03
4.422332817036243174e-02 1.016371660853404023e+03
4.526387706702781483e-02 9.931711378208908627e+02
4.630442596369319791e-02 9.714269518654006106e+02
4.734497486035858099e-02 9.513217312937415500e+02
4.838552375702396408e-02 9.258025347291080607e+02
4.942607265368934716e-02 9.017814852949018132e+02
5.046662155035473024e-02 8.794358540084682545e+02
5.150717044702011332e-02 8.591868250816115733e+02
5.254771934368549641e-02 8.359396534626635002e+02
5.358826824035087949e-02 8.114527955826108609e+02
5.462881713701626257e-02 7.887336824906532229e+02
5.566936603368164566e-02 7.656791363751295876e+02
5.670991493034702874e-02 7.437081786977084903e+02
5.775046382701241182e-02 7.214634988168985501e+02
5.879101272367779490e-02 6.987139089298030967e+02
5.983156162034317799e-02 6.755496622020586983e+02
6.087211051700856107e-02 6.541687024656747553e+02
6.191265941367394415e-02 6.335427858057921640e+02
6.295320831033933417e-02 6.098190074022303406e+02
6.399375720700471726e-02 5.905938728902845014e+02
6.503430610367010034e-02 5.702815237164350037e+02
6.607485500033548342e-02 5.492181442557316586e+02
6.711540389700086651e-02 5.287207099241894639e+02
6.815595279366624959e-02 5.088769934053736961e+02
6.919650169033163267e-02 4.891271601808269907e+02
7.023705058699701576e-02 4.688616387260183274e+02
7.127759948366239884e-02 4.511678986026204257e+02
7.231814838032778192e-02 4.326041725205823809e+02
7.335869727699316500e-02 4.140364704846918471e+02
7.439924617365854809e-02 3.947336716101417551e+02
7.543979507032393117e-02 3.775582469977810547e+02
7.648034396698931425e-02 3.611007034295898279e+02
7.752089286365469734e-02 3.441395147914881818e+02
7.856144176032008042e-02 3.272689352543042673e+02
7.960199065698546350e-02 3.125983147403709381e+02
8.064253955365084658e-02 2.974475106947322729e+02
8.168308845031622967e-02 2.820524959209168401e+02
8.272363734698161275e-02 2.674863613032328544e+02
8.376418624364699583e-02 2.537354111525379494e+02
8.480473514031239279e-02 2.410962610324869786e+02
8.584528403697777588e-02 2.282378181504999759e+02
8.688583293364315896e-02 2.142201708115337055e+02
8.792638183030854204e-02 2.011778000992954389e+02
8.896693072697392513e-02 1.908639928859344650e+02
9.000747962363930821e-02 1.791687661925006978e+02
9.104802852030469129e-02 1.668843203036059322e+02
9.208857741697007437e-02 1.568494065008846121e+02
9.312912631363545746e-02 1.462716845068470377e+02
9.416967521030084054e-02 1.371828725492614467e+02
9.521022410696622362e-02 1.283472025096748439e+02
9.625077300363160671e-02 1.192389313891507356e+02
9.729132190029698979e-02 1.117480159417753640e+02
9.833187079696237287e-02 1.032331179725338899e+02
9.937241969362775595e-02 9.575530501295462216e+01
1.004129685902931390e-01 8.852243496057982952e+01
1.014535174869585221e-01 8.139087905008683776e+01
1.024940663836239052e-01 7.489929135599358290e+01
1.035346152802892883e-01 6.864273179300346328e+01
1.045751641769546714e-01 6.345928184424273155e+01
1.056157130736200545e-01 5.807847009513165659e+01
1.066562619702854375e-01 5.292788696856023023e+01
1.076968108669508206e-01 4.723570568969603301e+01
1.087373597636162037e-01 4.298940363826844191e+01
1.097779086602815868e-01 3.847555520923260985e+01
1.108184575569469699e-01 3.459004278186803560e+01
1.118590064536123529e-01 3.142813049926238023e+01
1.128995553502777360e-01 2.879314957309715339e+01
1.139401042469431191e-01 2.531564726605307669e+01
1.149806531436085022e-01 2.212995639407893833e+01
1.160212020402738853e-01 1.892307762603838484e+01
1.170617509369392684e-01 1.681847351853772921e+01
1.181022998336046514e-01 1.458970256643102203e+01
1.191428487302700345e-01 1.288114922718648359e+01
1.201833976269354176e-01 1.126576222569538999e+01
1.212239465236008007e-01 9.253459158825400266e+00
1.222644954202661838e-01 7.803370926857361667e+00
1.233050443169315669e-01 6.626679490797926064e+00
1.243455932135969499e-01 5.427317699478194868e+00
1.253861421102623330e-01 4.667989881625608461e+00
1.264266910069277161e-01 3.880830147047909406e+00
1.274672399035930992e-01 3.188983217456275554e+00
1.285077888002584823e-01 2.490798759466294143e+00
1.295483376969238654e-01 2.018519967635008072e+00
1.305888865935892484e-01 1.895516764586957947e+00
1.316294354902546315e-01 1.550762087065344019e+00
1.326699843869200146e-01 1.641471395829583457e+00
1.337105332835853977e-01 1.906419801764734245e+00
1.347510821802507808e-01 1.852856148430753080e+00
1.357916310769161639e-01 1.777584727293593403e+00
1.368321799735815469e-01 2.051837636267364928e+00
1.378727288702469300e-01 2.350597086443869443e+00
1.389132777669123131e-01 2.252691404215916293e+00
1.399538266635776962e-01 2.670150903323360581e+00
1.409943755602430793e-01 3.228309348550766344e+00
1.420349244569084624e-01 3.380814183057701428e+00
1.430754733535738454e-01 3.815122230846675677e+00
1.441160222502392285e-01 4.242725846626001385e+00
1.451565711469046116e-01 4.826916900641336383e+00
1.461971200435699947e-01 5.080315958988727232e+00
1.472376689402353778e-01 5.419641153086431018e+00
1.482782178369007609e-01 5.752262809283955391e+00
1.493187667335661439e-01 6.620574200971290679e+00
1.503593156302315270e-01 6.505399061202204791e+00
1.513998645268969101e-01 6.690786808277096043e+00
1.524404134235622932e-01 7.268680933264974442e+00
1.534809623202276763e-01 7.507561919190258948e+00
1.545215112168930593e-01 8.085980836904710145e+00
1.555620601135584424e-01 8.926692042859556864e+00
1.566026090102238255e-01 9.548972013552109672e+00
1.576431579068892086e-01 9.834207414128471214e+00
1.586837068035545917e-01 1.007532113844838051e+01
1.597242557002199748e-01 1.003694496687629822e+01
1.607648045968853578e-01 1.009621560032517351e+01
1.618053534935507409e-01 9.914010255591833243e+00
1.628459023902161240e-01 1.002405221768727728e+01
1.638864512868815071e-01 9.961992162882381763e+00
1.649270001835468902e-01 1.024341092934853492e+01
1.659675490802122733e-01 1.075462674787084438e+01
1.670080979768776563e-01 1.096630727791189486e+01
1.680486468735430672e-01 1.078635927749402157e+01
1.690891957702084503e-01 1.072230342986226503e+01
1.701297446668738333e-01 1.073694284620885497e+01
1.711702935635392164e-01 1.088573847528090255e+01
1.722108424602045995e-01 1.080126846547541675e+01
1.732513913568699826e-01 1.114696020649168418e+01
1.742919402535353657e-01 1.072367378126650550e+01
1.753324891502007488e-01 1.015808030784175031e+01
1.763730380468661318e-01 1.010881409672106912e+01
1.774135869435315149e-01 1.006839860498998718e+01
1.784541358401968980e-01 1.011945132350864185e+01
1.794946847368622811e-01 1.020588911094405304e+01
1.805352336335276642e-01 9.889212317903115945e+00
1.815757825301930473e-01 9.664227840263482250e+00
1.826163314268584303e-01 8.882401135695154437e+00
1.836568803235238134e-01 8.771686847593009873e+00
1.846974292201891965e-01 8.594331358391734454e+00
1.857379781168545796e-01 8.096426593202647126e+00
1.867785270135199627e-01 7.878354875315515926e+00
1.878190759101853458e-01 7.486885565714018753e+00
1.888596248068507288e-01 7.185003814994452398e+00
1.899001737035161119e-01 6.876042550413171028e+00
1.909407226001814950e-01 6.968785893349309646e+00
1.919812714968468781e-01 6.714385993848722478e+00
1.930218203935122612e-01 6.289292665229048396e+00
1.940623692901776443e-01 5.785075926419025905e+00
1.951029181868430273e-01 5.687101017219582388e+00
1.961434670835084104e-01 5.354349945891382134e+00
1.971840159801737935e-01 5.225247037743002920e+00
1.982245648768391766e-01 4.935083721144660984e+00
1.992651137735045597e-01 4.384239269144647011e+00
2.003056626701699428e-01 4.090126951025464308e+00
2.013462115668353813e-01 3.678686051781305366e+00
2.023867604635007644e-01 3.617985913391525088e+00
2.034273093601661475e-01 3.321595646949852210e+00
2.044678582568315306e-01 3.050856306326572565e+00
2.055084071534969137e-01 2.790972283503339924e+00
2.065489560501622968e-01 2.741999371747304792e+00
2.075895049468276798e-01 2.124684046207821808e+00
2.086300538434930629e-01 2.228438346235183332e+00
2.096706027401584460e-01 2.196057008203659677e+00
2.107111516368238291e-01 2.097353060221706755e+00
2.117517005334892122e-01 1.739480628974042986e+00
2.127922494301545953e-01 1.687143585032693238e+00
2.138327983268199783e-01 1.676926136333097617e+00
2.148733472234853614e-01 1.188313840622068795e+00
2.159138961201507445e-01 1.247905500836168358e+00
2.169544450168161276e-01 1.305306430200730006e+00
2.179949939134815107e-01 1.238279687542391372e+00
2.190355428101468938e-01 1.062627560304811425e+00
2.200760917068122768e-01 6.629959367127078451e-01
2.211166406034776599e-01 5.307231698719370172e-01
2.221571895001430430e-01 6.119264593817206332e-01
2.231977383968084261e-01 5.616104534560761863e-01
2.242382872934738092e-01 3.277980815011716231e-01
2.252788361901391923e-01 6.104985601626999880e-01
2.263193850868045753e-01 7.557370136483818612e-01
2.273599339834699584e-01 6.485261678154294884e-01
2.284004828801353415e-01 4.282062230693419735e-01
2.294410317768007246e-01 2.404058607038201956e-01
2.304815806734661077e-01 2.011279773303478180e-01
2.315221295701314908e-01 3.425121882376664928e-01
2.325626784667968738e-01 5.826562855347070524e-01
2.336032273634622569e-01 5.852869339684332317e-01
2.346437762601276400e-01 3.281475438958594282e-01
2.356843251567930231e-01 5.678002912009638692e-01
2.367248740534584062e-01 7.607122196554563232e-01
2.377654229501237892e-01 7.511765945031037006e-01
2.388059718467891723e-01 9.297060953294042918e-01
2.398465207434545554e-01 1.091294765880519435e+00
2.408870696401199385e-01 1.216792062262392449e+00
2.419276185367853216e-01 8.620812697701509819e-01
2.429681674334507047e-01 5.677019852411753220e-01
2.440087163301160877e-01 7.829701129847101981e-01
2.450492652267814708e-01 8.797058854334274258e-01
2.460898141234468539e-01 9.533612737967942508e-01
2.471303630201122370e-01 1.021782759712078104e+00
2.481709119167776201e-01 1.341653175997777225e+00
2.492114608134430032e-01 1.187382687960568006e+00
2.502520097101083585e-01 8.416730748981855470e-01
2.512925586067737416e-01 1.239459665899932617e+00
2.523331075034391247e-01 1.499877059890934561e+00
2.533736564001045077e-01 1.464112576986138947e+00
2.544142052967698908e-01 1.406448949381434943e+00
2.554547541934352739e-01 1.325355220560364700e+00
2.564953030901006570e-01 1.524197309389819566e+00
2.575358519867660401e-01 1.630705171671824161e+00
2.585764008834314231e-01 1.656933745649720180e+00
2.596169497800968062e-01 1.804791652225045340e+00
2.606574986767621893e-01 1.831515989583298420e+00
2.616980475734275724e-01 1.699938964598558755e+00
2.627385964700929555e-01 1.536921173009524466e+00
2.637791453667583386e-01 1.534343066326155025e+00
2.648196942634237216e-01 1.679649718087834032e+00
2.658602431600891047e-01 1.389416322916101620e+00
2.669007920567544878e-01 1.322803281381997209e+00
2.679413409534198709e-01 1.644573926317026036e+00
2.689818898500852540e-01 1.642413882298473737e+00
2.700224387467506371e-01 1.600357683632953609e+00
2.710629876434160201e-01 1.366955237026207470e+00
2.721035365400814032e-01 1.485378541040173417e+00
2.731440854367467863e-01 1.448792675556891396e+00
2.741846343334121694e-01 1.590768408146953306e+00
2.752251832300775525e-01 1.721290695701863882e+00
2.762657321267429356e-01 2.114887664838189352e+00
2.773062810234083186e-01 2.004769520831924723e+00
2.783468299200737017e-01 1.809389336538878013e+00
2.793873788167390848e-01 1.743983659292087651e+00
2.804279277134044679e-01 1.495563794288621295e+00
2.814684766100698510e-01 1.393562950518560939e+00
2.825090255067352341e-01 1.093761071856487632e+00
2.835495744034006171e-01 1.038450590895866554e+00
2.845901233000660002e-01 1.025551644723442735e+00
2.856306721967313833e-01 1.201572376462024749e+00
2.866712210933967664e-01 1.702180856344174487e+00
2.877117699900621495e-01 1.395001982882522640e+00
2.887523188867275326e-01 1.199416366752508623e+00
2.897928677833929156e-01 8.974536879256120869e-01
2.908334166800582987e-01 9.511162308991778502e-01
2.918739655767236818e-01 9.750122459850558698e-01
2.929145144733890649e-01 1.069961996926760861e+00
2.939550633700544480e-01 6.930265168177243140e-01
2.949956122667198311e-01 4.726970110129506963e-01
2.960361611633852141e-01 8.070070234689659117e-01
2.970767100600505972e-01 8.541871976041193193e-01
2.981172589567159803e-01 6.558854924633230610e-01
2.991578078533813634e-01 6.782284189200176172e-01
3.001983567500468020e-01 6.730452539247124832e-01
3.012389056467121851e-01 7.498412642524492355e-01
3.022794545433775681e-01 6.902737631168669452e-01
3.033200034400429512e-01 5.842945522849269935e-01
3.043605523367083343e-01 5.692268050957309811e-01
3.054011012333737174e-01 4.248944073355822582e-01
3.064416501300391005e-01 4.799109691353038443e-01
3.074821990267044836e-01 5.207050979630700738e-01
3.085227479233698666e-01 6.674750864709544373e-01
3.095632968200352497e-01 5.596846824493866279e-01
3.106038457167006328e-01 3.402637018941696567e-01
3.116443946133660159e-01 4.474565837437722848e-01
3.126849435100313990e-01 4.933168816541311230e-01
3.137254924066967821e-01 3.039401541676838292e-01
3.147660413033621651e-01 3.517103530155551994e-01
3.158065902000275482e-01 2.747224499623790450e-01
3.168471390966929313e-01 2.615808014340679222e-01
3.178876879933583144e-01 6.796924639913370925e-02
3.189282368900236975e-01 2.418329700304617802e-01
3.199687857866890806e-01 4.468929428131502846e-01
3.210093346833544636e-01 3.350346483697386191e-01
3.220498835800198467e-01 4.632129599856931179e-01
3.230904324766852298e-01 3.488319988058918852e-01
3.241309813733506129e-01 2.657010838941893383e-01
3.251715302700159960e-01 3.763309091080415669e-01
3.262120791666813790e-01 3.057000902239579432e-01
3.272526280633467621e-01 5.425903338516278041e-01
3.282931769600121452e-01 7.118272176117805827e-01
3.293337258566775283e-01 5.170530507030512979e-01
3.303742747533429114e-01 2.773121924633557001e-01
3.314148236500082945e-01 4.143285619208967319e-01
3.324553725466736775e-01 3.968237239209173595e-01
3.334959214433390606e-01 4.207683113734113078e-01
3.345364703400044437e-01 4.580753894987878994e-01
3.355770192366698268e-01 4.622782388120434405e-01
3.366175681333352099e-01 4.481295398587334944e-01
3.376581170300005930e-01 4.482011885611250079e-01
3.386986659266659760e-01 5.964074752726737927e-01
3.397392148233313591e-01 6.051593833397745925e-01
3.407797637199967422e-01 1.126307999816159366e+00
3.418203126166621253e-01 3.894582190362569918e-01
3.428608615133275084e-01 5.574237062777704921e-01
3.439014104099928915e-01 4.412993507230815737e-01
3.449419593066582745e-01 4.689285073005216020e-01
3.459825082033236576e-01 7.207416547451366284e-01
3.470230570999890407e-01 4.996786400682609042e-01
3.480636059966544238e-01 5.852870058391630437e-01
3.491041548933198069e-01 4.018042475382301859e-01
3.501447037899851900e-01 5.718391470971830870e-01
3.511852526866505730e-01 5.807880223649064533e-01
3.522258015833159561e-01 4.966677621875952298e-01
3.532663504799813392e-01 5.783811932436577763e-01
3.543068993766467223e-01 6.617186449265908266e-01
3.553474482733121054e-01 5.730688869466149526e-01
3.563879971699774885e-01 6.168972879967817846e-01
3.574285460666428715e-01 5.945674586562468278e-01
3.584690949633082546e-01 4.284873646099889299e-01
3.595096438599736377e-01 5.021589475128429569e-01
3.605501927566390208e-01 5.955979134519679974e-01
3.615907416533044039e-01 5.080852872114896002e-01
3.626312905499697870e-01 3.711560184176612154e-01
3.636718394466351700e-01 5.130149133976047437e-01
3.647123883433005531e-01 5.903779014739782838e-01
3.657529372399659362e-01 6.689960193719883819e-01
3.667934861366313193e-01 4.974566425502437994e-01
3.678340350332967024e-01 5.946122003520706301e-01
3.688745839299620854e-01 6.896099719132848804e-01
3.699151328266274685e-01 5.850353872988804937e-01
3.709556817232928516e-01 4.605321453429844780e-01
3.719962306199582347e-01 6.340015914890706483e-01
3.730367795166236178e-01 6.226590835301379911e-01
3.740773284132890009e-01 4.456368692888332816e-01
3.751178773099543839e-01 4.448316735556616663e-01
3.761584262066197670e-01 5.167320344887791350e-01
3.771989751032851501e-01 4.118306018295605497e-01
3.782395239999505332e-01 3.143855756546010127e-01
3.792800728966159163e-01 4.038657089128712130e-01
3.803206217932812994e-01 6.533767664502541095e-01
3.813611706899466824e-01 3.947828702633735531e-01
3.824017195866120655e-01 4.110483637346931118e-01
3.834422684832774486e-01 5.858941488539635145e-01
3.844828173799428317e-01 5.965615836422557550e-01
3.855233662766082148e-01 5.531144362332405251e-01
3.865639151732735979e-01 4.168653481532302862e-01
3.876044640699389809e-01 2.164465066147300831e-01
3.886450129666043640e-01 5.643001555820958970e-02
3.896855618632697471e-01 2.429195577613043611e-01
3.907261107599351302e-01 4.517921424997339841e-01
3.917666596566005133e-01 5.395577424482098650e-01
3.928072085532658964e-01 8.292973110464529896e-02
3.938477574499312794e-01 0.000000000000000000e+00
3.948883063465966625e-01 3.605185823616423590e-01
3.959288552432620456e-01 2.948599770759905425e-01
3.969694041399274287e-01 4.539953394295146438e-01
3.980099530365928118e-01 5.017491600301617893e-01
3.990505019332581949e-01 4.208448855084832019e-01
4.000910508299235779e-01 2.785522985401236440e-01
4.011315997265889610e-01 4.033324374566902293e-01
4.021721486232543441e-01 5.041577562572747695e-01
4.032126975199197272e-01 3.123334368100039171e-01
4.042532464165851103e-01 2.697873661887371100e-01
4.052937953132504934e-01 2.456427003413494958e-01
4.063343442099158764e-01 3.160283968176642588e-01
4.073748931065812595e-01 3.345315495082878954e-01
4.084154420032466426e-01 2.519880267079450675e-01
4.094559908999120257e-01 9.169415396002023044e-02
4.104965397965774088e-01 1.936661473810872280e-01
4.115370886932427918e-01 3.074045560572464808e-01
4.125776375899081749e-01 2.288997292851782106e-01
4.136181864865735580e-01 2.661253998871870863e-02
4.146587353832389411e-01 7.434215741082539353e-02
4.156992842799043242e-01 2.103956738191818943e-01
4.167398331765697073e-01 1.594989291717503477e-01
4.177803820732350903e-01 2.003667498408816527e-01
4.188209309699004734e-01 1.777148972665045790e-01
4.198614798665658565e-01 2.480253579416995535e-01
4.209020287632312396e-01 3.564245724981951469e-01
4.219425776598966227e-01 2.158376531400065801e-01
4.229831265565620058e-01 3.778101268274518532e-01
4.240236754532273888e-01 1.045260691815386167e-01
4.250642243498927719e-01 1.506882341359663258e-01
4.261047732465581550e-01 2.872627282592823406e-01
4.271453221432235381e-01 2.803288757159130284e-01
4.281858710398889212e-01 3.988998705814097434e-01
4.292264199365543043e-01 4.799106119782052815e-01
4.302669688332196873e-01 3.080801492700757649e-01
4.313075177298850704e-01 3.428909578207637310e-01
4.323480666265504535e-01 4.555159620362978501e-01
4.333886155232158366e-01 3.156522137557544738e-01
4.344291644198812197e-01 4.112709409154149398e-01
