# q (1/Angstrom), Intensity (arb)
2.029070354705860696e-02 4.387299611286186405e+02
2.133125244372399004e-02 4.401436055470442170e+02
2.237180134038937659e-02 4.388753537566024079e+02
2.341235023705475968e-02 4.372493842739390857e+02
2.445289913372014276e-02 4.363215765715596604e+02
2.549344803038552584e-02 4.381292143059546333e+02
2.653399692705091240e-02 4.368268591804653624e+02
2.757454582371629548e-02 4.288687053282142756e+02
2.861509472038167856e-02 4.257454258546142682e+02
2.965564361704706164e-02 4.221156705272944123e+02
3.069619251371244473e-02 4.190262860446998729e+02
3.173674141037782781e-02 4.139156170519813713e+02
3.277729030704321089e-02 4.061160645608814548e+02
3.381783920370859398e-02 4.009274397976961382e+02
3.485838810037397706e-02 3.985300628538543037e+02
3.589893699703936014e-02 3.912982329427195509e+02
3.693948589370474322e-02 3.836343112309499475e+02
3.798003479037012631e-02 3.785407779909901933e+02
3.902058368703550939e-02 3.718512064096281620e+02
4.006113258370089247e-02 3.639428589471917803e+02
4.110168148036627556e-02 3.587075672327777625e+02
4.214223037703165864e-02 3.514582478628618105e+02
4.318277927369704866e-02 3.441306964089902181e+02
4.422332817036243174e-02 3.405941699072717483e+02
4.526387706702781483e-02 3.330255228790161937e+02
4.630442596369319791e-02 3.251926180117180820e+02
4.734497486035858099e-02 3.183981697567190849e+02
4.838552375702396408e-02 3.094794735068888372e+02
4.942607265368934716e-02 3.035373852184793577e+02
5.046662155035473024e-02 2.988750969504622503e+02
5.150717044702011332e-02 2.908760272890395981e+02
5.254771934368549641e-02 2.838012202946304114e+02
5.358826824035087949e-02 2.769724626383456894e+02
5.462881713701626257e-02 2.686039254055273204e+02
5.566936603368164566e-02 2.612634070278548393e+02
5.670991493034702874e-02 2.554665798983716059e+02
5.775046382701241182e-02 2.495821360010590979e+02
5.879101272367779490e-02 2.421956366632796858e+02
5.983156162034317799e-02 2.347880995252722300e+02
6.087211051700856107e-02 2.287974494951471911e+02
6.191265941367394415e-02 2.226105483878838527e+02
6.295320831033933417e-02 2.145681307586031039e+02
6.399375720700471726e-02 2.083586111009050796e+02
6.503430610367010034e-02 2.020359053556287847e+02
6.607485500033548342e-02 1.951541202424268135e+02
6.711540389700086651e-02 1.895735381326505546e+02
6.815595279366624959e-02 1.834364008444196656e+02
6.919650169033163267e-02 1.772283852398026340e+02
7.023705058699701576e-02 1.708197237608299019e+02
7.127759948366239884e-02 1.642181121629052427e+02
7.231814838032778192e-02 1.589765760062863365e+02
7.335869727699316500e-02 1.539213459443738543e+02
7.439924617365854809e-02 1.482329020951272582e+02
7.543979507032393117e-02 1.432609195360029162e+02
7.648034396698931425e-02 1.372233359493025660e+02
7.752089286365469734e-02 1.312074409244980302e+02
7.856144176032008042e-02 1.275319586269709191e+02
7.960199065698546350e-02 1.231810151777586100e+02
8.064253955365084658e-02 1.183579143207970219e+02
8.168308845031622967e-02 1.150510891573090078e+02
8.272363734698161275e-02 1.129534442381798840e+02
8.376418624364699583e-02 1.169793294949689084e+02
8.480473514031239279e-02 1.412553595804256474e+02
8.584528403697777588e-02 1.879440609312111974e+02
8.688583293364315896e-02 2.188719617955631804e+02
8.792638183030854204e-02 2.311255813032452693e+02
8.896693072697392513e-02 3.071483622288466222e+02
9.000747962363930821e-02 5.404917376885290423e+02
9.104802852030469129e-02 7.728394322797737459e+02
9.208857741697007437e-02 7.032010218375152135e+02
9.312912631363545746e-02 4.287522940265282614e+02
9.416967521030084054e-02 2.589140282260435697e+02
9.521022410696622362e-02 2.086810146912064283e+02
9.625077300363160671e-02 1.910261961487796611e+02
9.729132190029698979e-02 1.756232235559829746e+02
9.833187079696237287e-02 1.551864609056432300e+02
9.937241969362775595e-02 1.318771173593913772e+02
1.004129685902931390e-01 1.117658844902962869e+02
1.014535174869585221e-01 9.786784575919938334e+01
1.024940663836239052e-01 9.445001283507249923e+01
1.035346152802892883e-01 1.080096576087066182e+02
1.045751641769546714e-01 1.316718103976548377e+02
1.056157130736200545e-01 1.309965419452831838e+02
1.066562619702854375e-01 9.419048589688462414e+01
1.076968108669508206e-01 5.741388305890980348e+01
1.087373597636162037e-01 3.841127648810356732e+01
1.097779086602815868e-01 3.078555175438891212e+01
1.108184575569469699e-01 2.568702324094859080e+01
1.118590064536123529e-01 2.230953021250464019e+01
1.128995553502777360e-01 1.971771946629208827e+01
1.139401042469431191e-01 1.765107324115847121e+01
1.149806531436085022e-01 1.594634282111520207e+01
1.160212020402738853e-01 1.400004649110856292e+01
1.170617509369392684e-01 1.285639247096246152e+01
1.181022998336046514e-01 1.159747753588479213e+01
1.191428487302700345e-01 1.013644367032416227e+01
1.201833976269354176e-01 9.171828809601059618e+00
1.212239465236008007e-01 8.229969887388016048e+00
1.222644954202661838e-01 7.564894216629362234e+00
1.233050443169315669e-01 6.964967350753994424e+00
1.243455932135969499e-01 6.090479739915146240e+00
1.253861421102623330e-01 5.399114994759123931e+00
1.264266910069277161e-01 4.907140758012062065e+00
1.274672399035930992e-01 4.142532324294201374e+00
1.285077888002584823e-01 3.231237699362523585e+00
1.295483376969238654e-01 3.037279577551693421e+00
1.305888865935892484e-01 2.819802948186719505e+00
1.316294354902546315e-01 2.336786794737470530e+00
1.326699843869200146e-01 2.405026055102268856e+00
1.337105332835853977e-01 2.306689021266784323e+00
1.347510821802507808e-01 1.560953170597088047e+00
1.357916310769161639e-01 1.796831936653454420e+00
1.368321799735815469e-01 1.633501120865716416e+00
1.378727288702469300e-01 1.948823416677821996e+00
1.389132777669123131e-01 2.108028259344852273e+00
1.399538266635776962e-01 2.350651238794142728e+00
1.409943755602430793e-01 1.787537557146762879e+00
1.420349244569084624e-01 1.548689066760005062e+00
1.430754733535738454e-01 2.209482880342861222e+00
1.441160222502392285e-01 2.197807692266977142e+00
1.451565711469046116e-01 2.302109667555463091e+00
1.461971200435699947e-01 3.624196405609676930e+00
1.472376689402353778e-01 6.495601009245930868e+00
1.482782178369007609e-01 1.053664116290224939e+01
1.493187667335661439e-01 1.212019169858234235e+01
1.503593156302315270e-01 9.109010399531332070e+00
1.513998645268969101e-01 5.890554058703362017e+00
1.524404134235622932e-01 4.335416923066961914e+00
1.534809623202276763e-01 4.091744744286142321e+00
1.545215112168930593e-01 4.146061133737063642e+00
1.555620601135584424e-01 4.571134522836075575e+00
1.566026090102238255e-01 4.230146181300185049e+00
1.576431579068892086e-01 3.995730897767689527e+00
1.586837068035545917e-01 4.405651777405367397e+00
1.597242557002199748e-01 4.916329089954587062e+00
1.607648045968853578e-01 5.177214299041203560e+00
1.618053534935507409e-01 5.458378144080668903e+00
1.628459023902161240e-01 5.706710289382556311e+00
1.638864512868815071e-01 5.883087516934999428e+00
1.649270001835468902e-01 5.733742175792979623e+00
1.659675490802122733e-01 5.485666249263559280e+00
1.670080979768776563e-01 5.722978570547734734e+00
1.680486468735430672e-01 5.921940205792214584e+00
1.690891957702084503e-01 5.781776697492563954e+00
1.701297446668738333e-01 6.481408852345627025e+00
1.711702935635392164e-01 9.018648210333019222e+00
1.722108424602045995e-01 1.502151248048021515e+01
1.732513913568699826e-01 2.671191009974094044e+01
1.742919402535353657e-01 3.769086464273170378e+01
1.753324891502007488e-01 3.648090487570955531e+01
1.763730380468661318e-01 2.641437377661629071e+01
1.774135869435315149e-01 1.704086831959272530e+01
1.784541358401968980e-01 1.241515758142410775e+01
1.794946847368622811e-01 1.074638293950903645e+01
1.805352336335276642e-01 1.115877941675621798e+01
1.815757825301930473e-01 1.234155260058111026e+01
1.826163314268584303e-01 1.204693113374577251e+01
1.836568803235238134e-01 9.831471355433517800e+00
1.846974292201891965e-01 7.688473697235227888e+00
1.857379781168545796e-01 6.162665264219842953e+00
1.867785270135199627e-01 4.980905926041835130e+00
1.878190759101853458e-01 4.095222850675558135e+00
1.888596248068507288e-01 4.205128160882431132e+00
1.899001737035161119e-01 4.218210267634848520e+00
1.909407226001814950e-01 3.708625909551905409e+00
1.919812714968468781e-01 3.534069363376918460e+00
1.930218203935122612e-01 3.180822589148540658e+00
1.940623692901776443e-01 3.158976945484724297e+00
1.951029181868430273e-01 3.248147247308732943e+00
1.961434670835084104e-01 3.128442071492660403e+00
1.971840159801737935e-01 2.811194298438280725e+00
1.982245648768391766e-01 2.746720301625064309e+00
1.992651137735045597e-01 2.949971364840735077e+00
2.003056626701699428e-01 2.679200081778116527e+00
2.013462115668353813e-01 2.561848782481771281e+00
2.023867604635007644e-01 2.499987165024077029e+00
2.034273093601661475e-01 2.516607822215515711e+00
2.044678582568315306e-01 2.757607595990545946e+00
2.055084071534969137e-01 2.424423698095768742e+00
2.065489560501622968e-01 1.884993015444937470e+00
2.075895049468276798e-01 1.973863202587445187e+00
2.086300538434930629e-01 2.235179905176192250e+00
2.096706027401584460e-01 2.014537232159263169e+00
2.107111516368238291e-01 1.855561234406565063e+00
2.117517005334892122e-01 1.794348364310145882e+00
2.127922494301545953e-01 1.730700268180150658e+00
2.138327983268199783e-01 1.387422460888611653e+00
2.148733472234853614e-01 1.387915550575222312e+00
2.159138961201507445e-01 1.240788810266156617e+00
2.169544450168161276e-01 7.810903486007205743e-01
2.179949939134815107e-01 1.003455592310842803e+00
2.190355428101468938e-01 1.519450691642216356e+00
2.200760917068122768e-01 1.156122832115350718e+00
2.211166406034776599e-01 8.428246732870690039e-01
2.221571895001430430e-01 7.789132618208469694e-01
2.231977383968084261e-01 7.198071769067944103e-01
2.242382872934738092e-01 6.113420545929990624e-01
2.252788361901391923e-01 7.564735853109105790e-01
2.263193850868045753e-01 6.897954538748081177e-01
2.273599339834699584e-01 5.606119732454040161e-01
2.284004828801353415e-01 5.702804022017353702e-01
2.294410317768007246e-01 4.681163711152471762e-01
2.304815806734661077e-01 4.020089943051914361e-01
2.315221295701314908e-01 3.918699491105748223e-01
2.325626784667968738e-01 6.611769070048651997e-01
2.336032273634622569e-01 4.984794630872890764e-01
2.346437762601276400e-01 3.912611458207919668e-01
2.356843251567930231e-01 4.151606830972944806e-01
2.367248740534584062e-01 5.491333283853414571e-01
2.377654229501237892e-01 8.157848271512904148e-01
2.388059718467891723e-01 7.299383254750964056e-01
2.398465207434545554e-01 5.642582732151950609e-01
2.408870696401199385e-01 4.453994995228605092e-01
2.419276185367853216e-01 5.128776821374074757e-01
2.429681674334507047e-01 4.586480509326058552e-01
2.440087163301160877e-01 6.929018626610670140e-01
2.450492652267814708e-01 7.707195675164015825e-01
2.460898141234468539e-01 1.025558958271343357e+00
2.471303630201122370e-01 7.791244613571848276e-01
2.481709119167776201e-01 4.616790634758736189e-01
2.492114608134430032e-01 5.275864001437788886e-01
2.502520097101083585e-01 8.648571960212088072e-01
2.512925586067737416e-01 1.028101782492047533e+00
2.523331075034391247e-01 7.214637589108789939e-01
2.533736564001045077e-01 6.711135539114643223e-01
2.544142052967698908e-01 8.110815163385822757e-01
2.554547541934352739e-01 9.016378136208516025e-01
2.564953030901006570e-01 1.285671228349620776e+00
2.575358519867660401e-01 1.487187204291814169e+00
2.585764008834314231e-01 1.565545522209255580e+00
2.596169497800968062e-01 1.569063427689176393e+00
2.606574986767621893e-01 1.233027366391883817e+00
2.616980475734275724e-01 9.859535705517608051e-01
2.627385964700929555e-01 1.008877032936833729e+00
2.637791453667583386e-01 8.477575089799564978e-01
2.648196942634237216e-01 1.174118492693548177e+00
2.658602431600891047e-01 1.245428565779828745e+00
2.669007920567544878e-01 1.092053611091621690e+00
2.679413409534198709e-01 1.037971205547425058e+00
2.689818898500852540e-01 1.025204942199039237e+00
2.700224387467506371e-01 1.116341221984804122e+00
2.710629876434160201e-01 1.861944342101914174e+00
2.721035365400814032e-01 2.449846325449094309e+00
2.731440854367467863e-01 2.756643173983981399e+00
2.741846343334121694e-01 2.346820007436583921e+00
2.752251832300775525e-01 2.050185094100044125e+00
2.762657321267429356e-01 1.595986519121829872e+00
2.773062810234083186e-01 1.170891102429461483e+00
2.783468299200737017e-01 1.229511083430779195e+00
2.793873788167390848e-01 1.355715232292475037e+00
2.804279277134044679e-01 1.145964129405999898e+00
2.814684766100698510e-01 7.368678746442185457e-01
2.825090255067352341e-01 7.186144947304704544e-01
2.835495744034006171e-01 7.805214164458718074e-01
2.845901233000660002e-01 7.717795135331293466e-01
2.856306721967313833e-01 1.024282019859835913e+00
2.866712210933967664e-01 9.944149508666768611e-01
2.877117699900621495e-01 9.733454565821695326e-01
2.887523188867275326e-01 7.729662820537939183e-01
2.897928677833929156e-01 6.032236370031185402e-01
2.908334166800582987e-01 6.320855507702205500e-01
2.918739655767236818e-01 6.753743769306446154e-01
2.929145144733890649e-01 5.081650932163874756e-01
2.939550633700544480e-01 6.666432990712927165e-01
2.949956122667198311e-01 6.970857328890112115e-01
2.960361611633852141e-01 8.213902325988193809e-01
2.970767100600505972e-01 9.904176689607950834e-01
2.981172589567159803e-01 8.183590864152279210e-01
2.991578078533813634e-01 7.162616054978343527e-01
3.001983567500468020e-01 7.877763061263358679e-01
3.012389056467121851e-01 7.188940287956313568e-01
3.022794545433775681e-01 6.460246436974230733e-01
3.033200034400429512e-01 7.798164169055468165e-01
3.043605523367083343e-01 5.983964077957111272e-01
3.054011012333737174e-01 7.636155831976338959e-01
3.064416501300391005e-01 4.762411650350593106e-01
3.074821990267044836e-01 5.331531772198587760e-01
3.085227479233698666e-01 6.802784548842879531e-01
3.095632968200352497e-01 6.922204592013621038e-01
3.106038457167006328e-01 8.198132748185393837e-01
3.116443946133660159e-01 1.009005360662314388e+00
3.126849435100313990e-01 9.297215114168011496e-01
3.137254924066967821e-01 6.091396482181501426e-01
3.147660413033621651e-01 6.489640119629278558e-01
3.158065902000275482e-01 9.580103479464057159e-01
3.168471390966929313e-01 6.527397063654447606e-01
3.178876879933583144e-01 1.459181067301962287e-01
3.189282368900236975e-01 3.373987690507007642e-01
3.199687857866890806e-01 4.760285908436650004e-01
3.210093346833544636e-01 5.293800653154896452e-01
3.220498835800198467e-01 1.061086859007538408e-01
3.230904324766852298e-01 2.827269240246224058e-01
3.241309813733506129e-01 4.092588030723938175e-01
3.251715302700159960e-01 4.808168841898385892e-01
3.262120791666813790e-01 5.290769368745884549e-01
3.272526280633467621e-01 3.709379621473480881e-01
3.282931769600121452e-01 2.613079820575876511e-01
3.293337258566775283e-01 3.504861363170199695e-01
3.303742747533429114e-01 3.947027603716684041e-01
3.314148236500082945e-01 4.327209042618065382e-01
3.324553725466736775e-01 2.477112663570686379e-01
3.334959214433390606e-01 1.024911256880898236e-01
3.345364703400044437e-01 0.000000000000000000e+00
3.355770192366698268e-01 8.501279060562438872e-02
3.366175681333352099e-01 3.693205130866310526e-01
3.376581170300005930e-01 4.520760599129403090e-01
3.386986659266659760e-01 1.364387880713877621e-01
3.397392148233313591e-01 1.697403751575237152e-01
3.407797637199967422e-01 2.724952379708582839e-01
3.418203126166621253e-01 5.282825057251727685e-01
3.428608615133275084e-01 4.076304519472166987e-01
3.439014104099928915e-01 3.401925209866902833e-01
3.449419593066582745e-01 5.247295978916852732e-01
3.459825082033236576e-01 5.147137356094546590e-01
3.470230570999890407e-01 3.128511270668106192e-01
3.480636059966544238e-01 6.527144504252682111e-01
3.491041548933198069e-01 7.958438146635700150e-01
3.501447037899851900e-01 7.512819361240055116e-01
3.511852526866505730e-01 6.583036351050459700e-01
3.522258015833159561e-01 5.260328655708299550e-01
3.532663504799813392e-01 5.929004131708452974e-01
3.543068993766467223e-01 5.261358411856242867e-01
3.553474482733121054e-01 4.130226941937955587e-01
3.563879971699774885e-01 2.923845770951984946e-01
3.574285460666428715e-01 2.505975939654767615e-01
3.584690949633082546e-01 3.017001926362965492e-01
3.595096438599736377e-01 7.482120400173926100e-01
3.605501927566390208e-01 6.707674723281940032e-01
3.615907416533044039e-01 6.908941537644004427e-01
3.626312905499697870e-01 7.394174982657730766e-01
3.636718394466351700e-01 6.605618088887013073e-01
3.647123883433005531e-01 4.036734151879706189e-01
3.657529372399659362e-01 4.852912504660480408e-01
3.667934861366313193e-01 4.083924519112258622e-01
3.678340350332967024e-01 3.751359143839714250e-01
3.688745839299620854e-01 2.649647915629209649e-01
3.699151328266274685e-01 4.097248289363619733e-01
3.709556817232928516e-01 4.871097686450696074e-01
3.719962306199582347e-01 5.927119744865656514e-01
3.730367795166236178e-01 4.965879666866079845e-01
3.740773284132890009e-01 4.169763032660078750e-01
3.751178773099543839e-01 6.758401021868998271e-01
3.761584262066197670e-01 7.302997473165042663e-01
3.771989751032851501e-01 7.521493680379265356e-01
3.782395239999505332e-01 7.776702645787523238e-01
3.792800728966159163e-01 7.594006133468482744e-01
3.803206217932812994e-01 7.317145042896235907e-01
3.813611706899466824e-01 7.285235101465978858e-01
3.824017195866120655e-01 5.485253826025591195e-01
3.834422684832774486e-01 5.672661421749651822e-01
3.844828173799428317e-01 5.454610679849700716e-01
3.855233662766082148e-01 3.724977662565009950e-01
3.865639151732735979e-01 3.690755095913722528e-01
3.876044640699389809e-01 7.421612830003176953e-01
3.886450129666043640e-01 7.143685047195944549e-01
3.896855618632697471e-01 5.774484039299281335e-01
3.907261107599351302e-01 6.916633816919386391e-01
3.917666596566005133e-01 6.173762977583372447e-01
3.928072085532658964e-01 5.746450373124041278e-01
3.938477574499312794e-01 6.528965467545937429e-01
3.948883063465966625e-01 6.328261810733124548e-01
3.959288552432620456e-01 5.608651868310339239e-01
3.969694041399274287e-01 3.425146806577608061e-01
3.980099530365928118e-01 2.397387394925090121e-01
3.990505019332581949e-01 2.512015996273468943e-01
4.000910508299235779e-01 3.604987036014399848e-01
4.011315997265889610e-01 3.381507341374927478e-01
4.021721486232543441e-01 5.929125563127151111e-01
4.032126975199197272e-01 5.392429665330951138e-01
4.042532464165851103e-01 3.544052377418545063e-01
4.052937953132504934e-01 3.099687583810251112e-01
4.063343442099158764e-01 1.821849546785365703e-01
4.073748931065812595e-01 2.615898853811984281e-01
4.084154420032466426e-01 3.919700209570322613e-01
4.094559908999120257e-01 3.695821015676941101e-01
4.104965397965774088e-01 3.250657592839480969e-01
4.115370886932427918e-01 3.371994078587547961e-01
4.125776375899081749e-01 4.173481357218697951e-01
4.136181864865735580e-01 4.317967405331906150e-01
4.146587353832389411e-01 4.473711478648780826e-01
4.156992842799043242e-01 3.538626307362626733e-01
4.167398331765697073e-01 3.287413288849165838e-01
4.177803820732350903e-01 3.111562455353329426e-01
4.188209309699004734e-01 3.601051946201572207e-01
4.198614798665658565e-01 3.036796221562809706e-01
4.209020287632312396e-01 1.811939220669138706e-01
4.219425776598966227e-01 2.248408577710954148e-01
4.229831265565620058e-01 3.384940082713967513e-01
4.240236754532273888e-01 2.985175419269374686e-01
4.250642243498927719e-01 3.827006963341688106e-01
4.261047732465581550e-01 3.923580820864849272e-01
4.271453221432235381e-01 3.018762355657145235e-01
4.281858710398889212e-01 3.541877525412253647e-01
4.292264199365543043e-01 3.627681177470378771e-01
4.302669688332196873e-01 3.220169487609361170e-01
4.313075177298850704e-01 2.956779295890150649e-01
4.323480666265504535e-01 2.426877563286389261e-01
4.333886155232158366e-01 3.568180872268946757e-01
4.344291644198812197e-01 5.961516428104509657e-01
