# q (1/Angstrom), Intensity (arb)
2.029070354705860696e-02 1.400315785165406396e+03
2.133125244372399004e-02 1.392592190234082182e+03
2.237180134038937659e-02 1.385635364457999003e+03
2.341235023705475968e-02 1.379317237617226965e+03
2.445289913372014276e-02 1.367590599295894663e+03
2.549344803038552584e-02 1.363539909552160452e+03
2.653399692705091240e-02 1.348165200852672569e+03
2.757454582371629548e-02 1.333436734173914147e+03
2.861509472038167856e-02 1.319782335284065539e+03
2.965564361704706164e-02 1.304505142358796093e+03
3.069619251371244473e-02 1.287647830236052869e+03
3.173674141037782781e-02 1.270501192660018887e+03
3.277729030704321089e-02 1.250138516925052954e+03
3.381783920370859398e-02 1.231351549114421914e+03
3.485838810037397706e-02 1.210490123214549612e+03
3.589893699703936014e-02 1.186445051985664122e+03
3.693948589370474322e-02 1.168325802015799354e+03
3.798003479037012631e-02 1.147420014885851742e+03
3.902058368703550939e-02 1.125078527257683163e+03
4.006113258370089247e-02 1.107642240192039708e+03
4.110168148036627556e-02 1.086628276753077216e+03
4.214223037703165864e-02 1.063484344070625866e+03
4.318277927369704866e-02 1.037309737908383113e+03
4.422332817036243174e-02 1.014911760698681519e+03
4.526387706702781483e-02 9.925187353440876450e+02
4.630442596369319791e-02 9.686926307711497657e+02
4.734497486035858099e-02 9.459802751062067045e+02
4.838552375702396408e-02 9.236856419802053324e+02
4.942607265368934716e-02 9.016745665853612763e+02
5.046662155035473024e-02 8.775045461496932830e+02
5.150717044702011332e-02 8.540527036329318662e+02
5.254771934368549641e-02 8.291721616052277568e+02
5.358826824035087949e-02 8.102251982348179808e+02
5.462881713701626257e-02 7.876778637298887134e+02
5.566936603368164566e-02 7.628569597230022055e+02
5.670991493034702874e-02 7.397327571722536277e+02
5.775046382701241182e-02 7.178079027279209186e+02
5.879101272367779490e-02 6.962192476784656492e+02
5.983156162034317799e-02 6.743716817550449605e+02
6.087211051700856107e-02 6.536442293149702891e+02
6.191265941367394415e-02 6.307715794816567723e+02
6.295320831033933417e-02 6.090765134603622073e+02
6.399375720700471726e-02 5.870867237176298659e+02
6.503430610367010034e-02 5.658456140779704810e+02
6.607485500033548342e-02 5.465201059281167772e+02
6.711540389700086651e-02 5.251067808530220873e+02
6.815595279366624959e-02 5.063234738768555872e+02
6.919650169033163267e-02 4.875667471022094901e+02
7.023705058699701576e-02 4.670147851330150388e+02
7.127759948366239884e-02 4.471989529337117801e+02
7.231814838032778192e-02 4.301029272408474071e+02
7.335869727699316500e-02 4.113505453608433413e+02
7.439924617365854809e-02 3.925107980077798402e+02
7.543979507032393117e-02 3.748109545420647919e+02
7.648034396698931425e-02 3.588254433158180632e+02
7.752089286365469734e-02 3.416497364856293757e+02
7.856144176032008042e-02 3.254055323093552943e+02
7.960199065698546350e-02 3.116515327682682823e+02
8.064253955365084658e-02 2.973698287765731720e+02
8.168308845031622967e-02 2.823724942812243057e+02
8.272363734698161275e-02 2.685906799735405457e+02
8.376418624364699583e-02 2.543881213148484335e+02
8.480473514031239279e-02 2.397687773980229338e+02
8.584528403697777588e-02 2.255477105452956721e+02
8.688583293364315896e-02 2.133382720219154862e+02
8.792638183030854204e-02 2.014422894990598820e+02
8.896693072697392513e-02 1.885529697121202730e+02
9.000747962363930821e-02 1.772859768938273248e+02
9.104802852030469129e-02 1.664081932887348216e+02
9.208857741697007437e-02 1.563264916089862879e+02
9.312912631363545746e-02 1.463314456000296673e+02
9.416967521030084054e-02 1.368846685054793113e+02
9.521022410696622362e-02 1.283445030861858527e+02
9.625077300363160671e-02 1.199302199800605848e+02
9.729132190029698979e-02 1.110915520353500341e+02
9.833187079696237287e-02 1.025265490764849687e+02
9.937241969362775595e-02 9.534254586804968312e+01
1.004129685902931390e-01 8.804819799162969218e+01
1.014535174869585221e-01 8.056879116126609119e+01
1.024940663836239052e-01 7.398211243738562359e+01
1.035346152802892883e-01 6.748772567509527676e+01
1.045751641769546714e-01 6.219426303519173871e+01
1.056157130736200545e-01 5.720763688358608334e+01
1.066562619702854375e-01 5.200083485316682896e+01
1.076968108669508206e-01 4.717078612433961382e+01
1.087373597636162037e-01 4.262639522449915574e+01
1.097779086602815868e-01 3.821580173790139412e+01
1.108184575569469699e-01 3.433174231578283297e+01
1.118590064536123529e-01 3.039143932844923768e+01
1.128995553502777360e-01 2.734340556310372250e+01
1.139401042469431191e-01 2.485988919534657526e+01
1.149806531436085022e-01 2.172367931161690535e+01
1.160212020402738853e-01 1.913817366503402440e+01
1.170617509369392684e-01 1.691263779956304347e+01
1.181022998336046514e-01 1.437229832652031547e+01
1.191428487302700345e-01 1.243698518559483546e+01
1.201833976269354176e-01 1.074742776829340585e+01
1.212239465236008007e-01 9.167276006245451470e+00
1.222644954202661838e-01 8.132844336584753364e+00
1.233050443169315669e-01 6.964491842567355206e+00
1.243455932135969499e-01 6.004271537083603505e+00
1.253861421102623330e-01 5.186597420781836831e+00
1.264266910069277161e-01 3.869984737673277664e+00
1.274672399035930992e-01 2.986205778114680243e+00
1.285077888002584823e-01 2.759353486161920443e+00
1.295483376969238654e-01 2.077198069845529460e+00
1.305888865935892484e-01 2.053036086767754398e+00
1.316294354902546315e-01 2.164659520507420609e+00
1.326699843869200146e-01 1.822752764527102443e+00
1.337105332835853977e-01 1.517409105067414998e+00
1.347510821802507808e-01 1.719203514452743775e+00
1.357916310769161639e-01 1.871455898954529573e+00
1.368321799735815469e-01 2.093818094512720052e+00
1.378727288702469300e-01 2.700131310316010058e+00
1.389132777669123131e-01 2.546399691347971839e+00
1.399538266635776962e-01 2.954206896463681176e+00
1.409943755602430793e-01 3.529594299919963873e+00
1.420349244569084624e-01 3.501438289555565575e+00
1.430754733535738454e-01 3.189906781129401736e+00
1.441160222502392285e-01 4.131072272733291584e+00
1.451565711469046116e-01 5.139346284904384277e+00
1.461971200435699947e-01 5.671120290253448104e+00
1.472376689402353778e-01 6.134715611914039357e+00
1.482782178369007609e-01 6.483286408681792068e+00
1.493187667335661439e-01 6.383232121051413799e+00
1.503593156302315270e-01 6.919898900978651568e+00
1.513998645268969101e-01 7.325529061910820872e+00
1.524404134235622932e-01 7.651545347753049953e+00
1.534809623202276763e-01 8.278221334244484808e+00
1.545215112168930593e-01 8.741197956821658011e+00
1.555620601135584424e-01 9.078027411642274558e+00
1.566026090102238255e-01 9.481843360333265025e+00
1.576431579068892086e-01 9.791164646563629503e+00
1.586837068035545917e-01 9.759685295567685159e+00
1.597242557002199748e-01 9.623026748016954457e+00
1.607648045968853578e-01 1.004236181184948862e+01
1.618053534935507409e-01 1.055151340778260050e+01
1.628459023902161240e-01 1.091725475604082618e+01
1.638864512868815071e-01 1.136316490512863453e+01
1.649270001835468902e-01 1.107265563687220578e+01
1.659675490802122733e-01 1.088645774281914669e+01
1.670080979768776563e-01 1.087676171358447874e+01
1.680486468735430672e-01 1.085052448731007502e+01
1.690891957702084503e-01 1.111582053966591843e+01
1.701297446668738333e-01 1.123281902367903484e+01
1.711702935635392164e-01 1.110937791997697133e+01
1.722108424602045995e-01 1.096803129986099634e+01
1.732513913568699826e-01 1.116485160682641009e+01
1.742919402535353657e-01 1.084016370622743253e+01
1.753324891502007488e-01 1.053949269711824854e+01
1.763730380468661318e-01 1.057598383457301594e+01
1.774135869435315149e-01 1.063392165088527008e+01
1.784541358401968980e-01 1.013398185534416740e+01
1.794946847368622811e-01 9.718179996295805978e+00
1.805352336335276642e-01 9.691031928801091766e+00
1.815757825301930473e-01 9.479081634023767577e+00
1.826163314268584303e-01 9.367614704368087075e+00
1.836568803235238134e-01 9.235526847883019030e+00
1.846974292201891965e-01 8.946546791916645702e+00
1.857379781168545796e-01 8.834059943544005478e+00
1.867785270135199627e-01 8.569238779563146835e+00
1.878190759101853458e-01 7.862139951833391649e+00
1.888596248068507288e-01 7.672297444492560459e+00
1.899001737035161119e-01 7.292076457033850545e+00
1.909407226001814950e-01 6.817902469336857507e+00
1.919812714968468781e-01 6.281097041903525025e+00
1.930218203935122612e-01 6.031083079983300621e+00
1.940623692901776443e-01 5.745202164617673191e+00
1.951029181868430273e-01 5.465585603824528960e+00
1.961434670835084104e-01 5.272845901759264819e+00
1.971840159801737935e-01 5.064445090199260591e+00
1.982245648768391766e-01 4.798012839456294643e+00
1.992651137735045597e-01 4.359662860069946078e+00
2.003056626701699428e-01 3.952002287496902966e+00
2.013462115668353813e-01 4.150217970110084309e+00
2.023867604635007644e-01 3.681726308589020391e+00
2.034273093601661475e-01 3.611235949239620879e+00
2.044678582568315306e-01 3.375526618842087601e+00
2.055084071534969137e-01 2.870967539063947527e+00
2.065489560501622968e-01 2.495728239221868705e+00
2.075895049468276798e-01 2.413695885781550032e+00
2.086300538434930629e-01 2.367731651274038285e+00
2.096706027401584460e-01 2.117623603184508596e+00
2.107111516368238291e-01 1.550611075132419359e+00
2.117517005334892122e-01 1.437608264527078461e+00
2.127922494301545953e-01 1.407678116374935229e+00
2.138327983268199783e-01 1.520538325558462134e+00
2.148733472234853614e-01 1.207232210748756529e+00
2.159138961201507445e-01 1.261351862456432826e+00
2.169544450168161276e-01 1.097810709089909409e+00
2.179949939134815107e-01 6.724332020544352417e-01
2.190355428101468938e-01 6.694055624164754192e-01
2.200760917068122768e-01 7.583347771043875696e-01
2.211166406034776599e-01 7.093824471601095638e-01
2.221571895001430430e-01 5.826617763678747508e-01
2.231977383968084261e-01 7.033627372320694349e-01
2.242382872934738092e-01 7.384622674630918482e-01
2.252788361901391923e-01 5.626952914176648335e-01
2.263193850868045753e-01 6.135457616978889916e-01
2.273599339834699584e-01 4.822300499244498440e-01
2.284004828801353415e-01 6.210276749323888623e-01
2.294410317768007246e-01 3.910004013470995687e-01
2.304815806734661077e-01 2.083089379533156205e-01
2.315221295701314908e-01 5.543643879476185532e-01
2.325626784667968738e-01 6.620196718215538567e-01
2.336032273634622569e-01 5.397896660125489632e-01
2.346437762601276400e-01 4.482443072170845255e-01
2.356843251567930231e-01 5.809331642623938308e-01
2.367248740534584062e-01 6.655959006482135010e-01
2.377654229501237892e-01 7.653930577425285264e-01
2.388059718467891723e-01 3.564358290737352775e-01
2.398465207434545554e-01 5.787246069223144218e-01
2.408870696401199385e-01 9.479047276990897331e-01
2.419276185367853216e-01 9.746200303533676390e-01
2.429681674334507047e-01 1.156264081540836486e+00
2.440087163301160877e-01 1.042208400759729869e+00
2.450492652267814708e-01 1.014953510301861428e+00
2.460898141234468539e-01 1.082200447487451811e+00
2.471303630201122370e-01 1.097632602183665540e+00
2.481709119167776201e-01 1.392366698442717876e+00
2.492114608134430032e-01 1.303558733414096338e+00
2.502520097101083585e-01 1.520861451965316746e+00
2.512925586067737416e-01 1.580037202783337591e+00
2.523331075034391247e-01 1.463019903540807576e+00
2.533736564001045077e-01 1.555305871544241825e+00
2.544142052967698908e-01 2.010137752534358668e+00
2.554547541934352739e-01 1.815492216077700505e+00
2.564953030901006570e-01 1.667661029146728424e+00
2.575358519867660401e-01 1.586412042190946892e+00
2.585764008834314231e-01 1.826789647446346976e+00
2.596169497800968062e-01 1.679824852140491487e+00
2.606574986767621893e-01 1.568172927682294215e+00
2.616980475734275724e-01 1.673987780945509485e+00
2.627385964700929555e-01 1.595686996646858091e+00
2.637791453667583386e-01 1.497509004091089224e+00
2.648196942634237216e-01 1.409241988072842844e+00
2.658602431600891047e-01 1.647979277305964274e+00
2.669007920567544878e-01 1.773387366332475068e+00
2.679413409534198709e-01 2.020399038564569594e+00
2.689818898500852540e-01 1.847773779777309500e+00
2.700224387467506371e-01 1.746501860362837277e+00
2.710629876434160201e-01 1.779570933616781758e+00
2.721035365400814032e-01 1.645577706445621402e+00
2.731440854367467863e-01 1.681586790292730171e+00
2.741846343334121694e-01 1.631359796603526036e+00
2.752251832300775525e-01 1.504538346840945451e+00
2.762657321267429356e-01 1.542552261435556460e+00
2.773062810234083186e-01 1.552390096933972785e+00
2.783468299200737017e-01 1.414464484964216950e+00
2.793873788167390848e-01 1.268891798868004628e+00
2.804279277134044679e-01 1.541278290555137431e+00
2.814684766100698510e-01 1.542780631506612821e+00
2.825090255067352341e-01 1.509632106470785828e+00
2.835495744034006171e-01 1.377525332853494433e+00
2.845901233000660002e-01 1.488551131891725277e+00
2.856306721967313833e-01 1.580005305923755543e+00
2.866712210933967664e-01 1.405465513106964437e+00
2.877117699900621495e-01 1.134463176706223209e+00
2.887523188867275326e-01 1.340551162907708260e+00
2.897928677833929156e-01 1.001286384008810870e+00
2.908334166800582987e-01 9.196274366238839093e-01
2.918739655767236818e-01 9.120808309685557447e-01
2.929145144733890649e-01 8.371077471357537547e-01
2.939550633700544480e-01 7.109097563739794623e-01
2.949956122667198311e-01 6.300189148822390450e-01
2.960361611633852141e-01 8.450905926241922828e-01
2.970767100600505972e-01 1.116405812552216048e+00
2.981172589567159803e-01 7.481660296438654711e-01
2.991578078533813634e-01 5.755117621230141367e-01
3.001983567500468020e-01 4.122215934388080427e-01
3.012389056467121851e-01 6.031384748613888291e-01
3.022794545433775681e-01 6.161863495095332155e-01
3.033200034400429512e-01 7.770772298760562080e-01
3.043605523367083343e-01 9.447152150891682254e-01
3.054011012333737174e-01 7.335829940664346793e-01
3.064416501300391005e-01 6.329126106619611392e-01
3.074821990267044836e-01 6.430495142747680859e-01
3.085227479233698666e-01 4.734868478590072982e-01
3.095632968200352497e-01 4.336210054563061078e-01
3.106038457167006328e-01 4.190865266138175116e-01
3.116443946133660159e-01 3.599718750906220066e-01
3.126849435100313990e-01 6.152678707166288063e-01
3.137254924066967821e-01 4.518216721225449817e-01
3.147660413033621651e-01 5.775262163645393798e-01
3.158065902000275482e-01 7.050022352288038974e-01
3.168471390966929313e-01 4.987858864195331421e-01
3.178876879933583144e-01 3.678687288134590005e-01
3.189282368900236975e-01 2.573271200402373893e-01
3.199687857866890806e-01 4.637426372728263857e-01
3.210093346833544636e-01 2.854331188278855791e-01
3.220498835800198467e-01 4.018329801331361750e-01
3.230904324766852298e-01 5.277432297856670118e-01
3.241309813733506129e-01 4.305177565355506886e-01
3.251715302700159960e-01 2.722609989392630325e-01
3.262120791666813790e-01 1.172767071157636565e-01
3.272526280633467621e-01 3.629342074279087171e-01
3.282931769600121452e-01 3.586162117349225298e-01
3.293337258566775283e-01 3.520498141472749865e-01
3.303742747533429114e-01 5.132810419263300616e-01
3.314148236500082945e-01 4.313538549768516361e-01
3.324553725466736775e-01 4.532906536451406510e-01
3.334959214433390606e-01 5.282334873794773955e-01
3.345364703400044437e-01 0.000000000000000000e+00
3.355770192366698268e-01 4.972866544236609343e-02
3.366175681333352099e-01 2.911610729616995741e-01
3.376581170300005930e-01 5.474092768219556149e-01
3.386986659266659760e-01 6.103905422613742360e-01
3.397392148233313591e-01 6.098826177900242840e-01
3.407797637199967422e-01 5.067277784663417606e-01
3.418203126166621253e-01 4.685107219986512916e-01
3.428608615133275084e-01 4.806837019760301644e-01
3.439014104099928915e-01 6.584557363172649502e-01
3.449419593066582745e-01 8.698671404478872660e-01
3.459825082033236576e-01 6.977009028102720833e-01
3.470230570999890407e-01 7.247577976292127744e-01
3.480636059966544238e-01 7.926244434144251727e-01
3.491041548933198069e-01 6.799347066188623501e-01
3.501447037899851900e-01 6.467556168265424787e-01
3.511852526866505730e-01 5.908339426843625120e-01
3.522258015833159561e-01 5.072582390638729066e-01
3.532663504799813392e-01 6.965223041104309232e-01
3.543068993766467223e-01 7.578002509272891984e-01
3.553474482733121054e-01 5.809508375436251981e-01
3.563879971699774885e-01 5.470655594396589549e-01
3.574285460666428715e-01 6.430026703953153344e-01
3.584690949633082546e-01 5.315062689387133332e-01
3.595096438599736377e-01 5.381549445345576999e-01
3.605501927566390208e-01 6.923538071098036539e-01
3.615907416533044039e-01 8.153999527171542638e-01
3.626312905499697870e-01 7.364085740090686727e-01
3.636718394466351700e-01 7.008272309766461206e-01
3.647123883433005531e-01 5.478280600087508390e-01
3.657529372399659362e-01 6.915274537668452126e-01
3.667934861366313193e-01 6.229678135939948902e-01
3.678340350332967024e-01 6.575722776421848437e-01
3.688745839299620854e-01 7.308184092121301489e-01
3.699151328266274685e-01 6.145534599872881643e-01
3.709556817232928516e-01 5.593730394193983102e-01
3.719962306199582347e-01 7.608859304812334301e-01
3.730367795166236178e-01 8.915474791044744052e-01
3.740773284132890009e-01 9.595752720855266205e-01
3.751178773099543839e-01 8.646746295356635414e-01
3.761584262066197670e-01 7.988691415315329891e-01
3.771989751032851501e-01 7.149575955452611709e-01
3.782395239999505332e-01 7.003944226431570996e-01
3.792800728966159163e-01 8.056544977945208075e-01
3.803206217932812994e-01 5.948846736928636858e-01
3.813611706899466824e-01 5.231632655698348344e-01
3.824017195866120655e-01 6.932707782115166140e-01
3.834422684832774486e-01 7.591902053062149491e-01
3.844828173799428317e-01 8.424907449776100066e-01
3.855233662766082148e-01 7.123895116175269493e-01
3.865639151732735979e-01 7.824095673997177869e-01
3.876044640699389809e-01 6.734543475505319066e-01
3.886450129666043640e-01 4.219398838297578891e-01
3.896855618632697471e-01 4.737904958328655880e-01
3.907261107599351302e-01 3.543919981117298335e-01
3.917666596566005133e-01 6.080629518209441642e-01
3.928072085532658964e-01 6.594335134319777580e-01
3.938477574499312794e-01 5.524979383161010560e-01
3.948883063465966625e-01 5.168859532223635256e-01
3.959288552432620456e-01 3.288729713610862859e-01
3.969694041399274287e-01 4.441515986091850721e-01
3.980099530365928118e-01 4.274611464655251325e-01
3.990505019332581949e-01 4.083294888640267573e-01
4.000910508299235779e-01 5.700909346330718108e-01
4.011315997265889610e-01 5.314191297074231102e-01
4.021721486232543441e-01 5.413800502470174081e-01
4.032126975199197272e-01 5.399255659767803195e-01
4.042532464165851103e-01 3.151653267523570889e-01
4.052937953132504934e-01 4.130561949458027016e-01
4.063343442099158764e-01 5.774572325543267937e-01
4.073748931065812595e-01 3.602037297329765408e-01
4.084154420032466426e-01 3.088394838359569405e-01
4.094559908999120257e-01 3.034823958630852303e-01
4.104965397965774088e-01 1.595512788090580614e-01
4.115370886932427918e-01 2.733140588143783134e-01
4.125776375899081749e-01 4.033362270512412806e-01
4.136181864865735580e-01 2.087680853485558430e-01
4.146587353832389411e-01 3.134734124975828706e-01
4.156992842799043242e-01 3.416473680777443178e-01
4.167398331765697073e-01 3.646873082088468720e-01
4.177803820732350903e-01 2.272476422316209721e-01
4.188209309699004734e-01 2.441454522398771587e-01
4.198614798665658565e-01 4.238510016412035952e-01
4.209020287632312396e-01 4.625896608152082479e-01
4.219425776598966227e-01 4.872512991849475839e-01
4.229831265565620058e-01 5.255061460193104494e-01
4.240236754532273888e-01 4.115223794084563735e-01
4.250642243498927719e-01 3.837316405151796062e-01
4.261047732465581550e-01 4.499524571187087929e-01
4.271453221432235381e-01 4.967549374747832758e-01
4.281858710398889212e-01 5.918666046925658009e-01
4.292264199365543043e-01 5.614563254482973775e-01
4.302669688332196873e-01 4.034926514140693143e-01
4.313075177298850704e-01 3.843085030767490196e-01
4.323480666265504535e-01 4.315949970799977109e-01
4.333886155232158366e-01 4.297359064057317823e-01
4.344291644198812197e-01 5.542082049981225111e-01
