# q (1/Angstrom), Intensity (arb)
2.029070354705860696e-02 4.716860671666455573e+02
2.133125244372399004e-02 4.692291730053611900e+02
2.237180134038937659e-02 4.723553167914684536e+02
2.341235023705475968e-02 4.769196563862238918e+02
2.445289913372014276e-02 4.750762840431535210e+02
2.549344803038552584e-02 4.707690589484589054e+02
2.653399692705091240e-02 4.656853631363991326e+02
2.757454582371629548e-02 4.615667424692018699e+02
2.861509472038167856e-02 4.562060440817844551e+02
2.965564361704706164e-02 4.511123112337099883e+02
3.069619251371244473e-02 4.473333261767029967e+02
3.173674141037782781e-02 4.440818660072209241e+02
3.277729030704321089e-02 4.375961743363973255e+02
3.381783920370859398e-02 4.309016999799069936e+02
3.485838810037397706e-02 4.241866181135096667e+02
3.589893699703936014e-02 4.192311299673117446e+02
3.693948589370474322e-02 4.114530519373493007e+02
3.798003479037012631e-02 4.064713815122180449e+02
3.902058368703550939e-02 3.991985792337436010e+02
4.006113258370089247e-02 3.909902591439305297e+02
4.110168148036627556e-02 3.848935254062996592e+02
4.214223037703165864e-02 3.778392207508597949e+02
4.318277927369704866e-02 3.674799064897329117e+02
4.422332817036243174e-02 3.598442800898645828e+02
4.526387706702781483e-02 3.533367353961547792e+02
4.630442596369319791e-02 3.457401308027174309e+02
4.734497486035858099e-02 3.351219086098261073e+02
4.838552375702396408e-02 3.285494080205278919e+02
4.942607265368934716e-02 3.249438212770951395e+02
5.046662155035473024e-02 3.156861942904576495e+02
5.150717044702011332e-02 3.075357742211937193e+02
5.254771934368549641e-02 3.015923538807012960e+02
5.358826824035087949e-02 2.944384250513141978e+02
5.462881713701626257e-02 2.852748211647310654e+02
5.566936603368164566e-02 2.780761660161539908e+02
5.670991493034702874e-02 2.730499330818680050e+02
5.775046382701241182e-02 2.646360294441921042e+02
5.879101272367779490e-02 2.558593038738825953e+02
5.983156162034317799e-02 2.498711218930866380e+02
6.087211051700856107e-02 2.437489556644598565e+02
6.191265941367394415e-02 2.352822180741042075e+02
6.295320831033933417e-02 2.267360853195272909e+02
6.399375720700471726e-02 2.193502331364371400e+02
6.503430610367010034e-02 2.128247804611400227e+02
6.607485500033548342e-02 2.070470204405422407e+02
6.711540389700086651e-02 1.994806632706848575e+02
6.815595279366624959e-02 1.924121802828563546e+02
6.919650169033163267e-02 1.854159005021232360e+02
7.023705058699701576e-02 1.790509783067686840e+02
7.127759948366239884e-02 1.727386991399946226e+02
7.231814838032778192e-02 1.665044816261366520e+02
7.335869727699316500e-02 1.608900706338653492e+02
7.439924617365854809e-02 1.558180389047142000e+02
7.543979507032393117e-02 1.505685504069131468e+02
7.648034396698931425e-02 1.442571826956443033e+02
7.752089286365469734e-02 1.384883615532385761e+02
7.856144176032008042e-02 1.331106094868594880e+02
7.960199065698546350e-02 1.282991498075294885e+02
8.064253955365084658e-02 1.222179664742916714e+02
8.168308845031622967e-02 1.191410707971738958e+02
8.272363734698161275e-02 1.192936419703248419e+02
8.376418624364699583e-02 1.275564171612924582e+02
8.480473514031239279e-02 1.590461668160376405e+02
8.584528403697777588e-02 2.023976494395631107e+02
8.688583293364315896e-02 2.227127208763313888e+02
8.792638183030854204e-02 2.438857312447208301e+02
8.896693072697392513e-02 3.649812070722189219e+02
9.000747962363930821e-02 6.268754494412180520e+02
9.104802852030469129e-02 7.773442657456529332e+02
9.208857741697007437e-02 6.043674953150277815e+02
9.312912631363545746e-02 3.480598359841841329e+02
9.416967521030084054e-02 2.311816424412532740e+02
9.521022410696622362e-02 1.996451455585632857e+02
9.625077300363160671e-02 1.851569345194797620e+02
9.729132190029698979e-02 1.683688329437416087e+02
9.833187079696237287e-02 1.463712207861813681e+02
9.937241969362775595e-02 1.236106802978630839e+02
1.004129685902931390e-01 1.063881583841855445e+02
1.014535174869585221e-01 9.512717149671590278e+01
1.024940663836239052e-01 9.639325510051833135e+01
1.035346152802892883e-01 1.158460875991954993e+02
1.045751641769546714e-01 1.331400292737866380e+02
1.056157130736200545e-01 1.173207526792417639e+02
1.066562619702854375e-01 7.803181431776530985e+01
1.076968108669508206e-01 4.903650055892343573e+01
1.087373597636162037e-01 3.526254410984365251e+01
1.097779086602815868e-01 2.919088303428069509e+01
1.108184575569469699e-01 2.510987528672283275e+01
1.118590064536123529e-01 2.176644759974064414e+01
1.128995553502777360e-01 1.945906923567228830e+01
1.139401042469431191e-01 1.766559969322965173e+01
1.149806531436085022e-01 1.559276145501583954e+01
1.160212020402738853e-01 1.331407014779887987e+01
1.170617509369392684e-01 1.176549911540502791e+01
1.181022998336046514e-01 1.075395151142442529e+01
1.191428487302700345e-01 9.293783228770180926e+00
1.201833976269354176e-01 8.084365100038858998e+00
1.212239465236008007e-01 7.450556945898675565e+00
1.222644954202661838e-01 6.845012090563862728e+00
1.233050443169315669e-01 6.397167270983956655e+00
1.243455932135969499e-01 5.490832339948589436e+00
1.253861421102623330e-01 4.890636172357147871e+00
1.264266910069277161e-01 4.018761134627247600e+00
1.274672399035930992e-01 3.765013454538419069e+00
1.285077888002584823e-01 3.400625946513088138e+00
1.295483376969238654e-01 2.701368943510381371e+00
1.305888865935892484e-01 2.353467780738093040e+00
1.316294354902546315e-01 2.450358867174998068e+00
1.326699843869200146e-01 1.962236794189578859e+00
1.337105332835853977e-01 1.939265630250922356e+00
1.347510821802507808e-01 1.935268241025760005e+00
1.357916310769161639e-01 1.868597226308054360e+00
1.368321799735815469e-01 1.219375433722973412e+00
1.378727288702469300e-01 1.178266343363958413e+00
1.389132777669123131e-01 1.281841537761366112e+00
1.399538266635776962e-01 1.248419166292542570e+00
1.409943755602430793e-01 1.762110869983864347e+00
1.420349244569084624e-01 1.846557533808862672e+00
1.430754733535738454e-01 1.737887318327970831e+00
1.441160222502392285e-01 2.215220989412827635e+00
1.451565711469046116e-01 2.771285992845673007e+00
1.461971200435699947e-01 4.651017487001542605e+00
1.472376689402353778e-01 8.787029973865962518e+00
1.482782178369007609e-01 1.229809700603141920e+01
1.493187667335661439e-01 1.059871196318226794e+01
1.503593156302315270e-01 6.914681954828594712e+00
1.513998645268969101e-01 5.038935955324646443e+00
1.524404134235622932e-01 4.362561963228724693e+00
1.534809623202276763e-01 3.743031874177731311e+00
1.545215112168930593e-01 3.922189245299740890e+00
1.555620601135584424e-01 4.322715853097161443e+00
1.566026090102238255e-01 4.366617102555107266e+00
1.576431579068892086e-01 4.716651622823754053e+00
1.586837068035545917e-01 5.082027306099927699e+00
1.597242557002199748e-01 5.135702809655548151e+00
1.607648045968853578e-01 5.195390639390598864e+00
1.618053534935507409e-01 5.262841893418752193e+00
1.628459023902161240e-01 5.103971666009144315e+00
1.638864512868815071e-01 5.515029316794791470e+00
1.649270001835468902e-01 5.621710746791499957e+00
1.659675490802122733e-01 5.820164332485862957e+00
1.670080979768776563e-01 5.995586490431566773e+00
1.680486468735430672e-01 5.826608742159542942e+00
1.690891957702084503e-01 6.413865262191730920e+00
1.701297446668738333e-01 7.945602917227397199e+00
1.711702935635392164e-01 1.191245780523463793e+01
1.722108424602045995e-01 2.156363937082098658e+01
1.732513913568699826e-01 3.412776217689069824e+01
1.742919402535353657e-01 3.755551458174529955e+01
1.753324891502007488e-01 3.007636879298426180e+01
1.763730380468661318e-01 2.030402122295058831e+01
1.774135869435315149e-01 1.354511046251333184e+01
1.784541358401968980e-01 1.088953189106957709e+01
1.794946847368622811e-01 1.043874917512303568e+01
1.805352336335276642e-01 1.170932379018009684e+01
1.815757825301930473e-01 1.256801707862538109e+01
1.826163314268584303e-01 1.105025574628878360e+01
1.836568803235238134e-01 8.484367157238196455e+00
1.846974292201891965e-01 6.557815732632327865e+00
1.857379781168545796e-01 5.050417618861814617e+00
1.867785270135199627e-01 4.145621221298174675e+00
1.878190759101853458e-01 3.857370949280337413e+00
1.888596248068507288e-01 4.049137823357138899e+00
1.899001737035161119e-01 3.917315888270337609e+00
1.909407226001814950e-01 3.660161428023620545e+00
1.919812714968468781e-01 3.616060989028532902e+00
1.930218203935122612e-01 3.353245059859297328e+00
1.940623692901776443e-01 3.047130074168368452e+00
1.951029181868430273e-01 3.254243976828171014e+00
1.961434670835084104e-01 3.141267017377746384e+00
1.971840159801737935e-01 3.075569786180615495e+00
1.982245648768391766e-01 3.104884405559115379e+00
1.992651137735045597e-01 2.578844856575180700e+00
2.003056626701699428e-01 2.183332413419535101e+00
2.013462115668353813e-01 2.058302362776156968e+00
2.023867604635007644e-01 1.849227802821452826e+00
2.034273093601661475e-01 1.956084997807646886e+00
2.044678582568315306e-01 1.934524671671681517e+00
2.055084071534969137e-01 1.711077957380275905e+00
2.065489560501622968e-01 1.733711637564255170e+00
2.075895049468276798e-01 2.098225870788635206e+00
2.086300538434930629e-01 2.427509278727349340e+00
2.096706027401584460e-01 2.370853406701854738e+00
2.107111516368238291e-01 1.985303452105767974e+00
2.117517005334892122e-01 1.390923090784070837e+00
2.127922494301545953e-01 1.340754665468907092e+00
2.138327983268199783e-01 9.714321216141996729e-01
2.148733472234853614e-01 1.163079591547290903e+00
2.159138961201507445e-01 1.347381689894721291e+00
2.169544450168161276e-01 1.011171809383370146e+00
2.179949939134815107e-01 9.190462982550116067e-01
2.190355428101468938e-01 9.477905001753264003e-01
2.200760917068122768e-01 1.051463983360577004e+00
2.211166406034776599e-01 7.960387394891377255e-01
2.221571895001430430e-01 8.207864807777731642e-01
2.231977383968084261e-01 7.758258587172761622e-01
2.242382872934738092e-01 6.941557351960092603e-01
2.252788361901391923e-01 6.772328880876905544e-01
2.263193850868045753e-01 3.172072452291025968e-01
2.273599339834699584e-01 3.200184517266357886e-01
2.284004828801353415e-01 5.203832703563975315e-01
2.294410317768007246e-01 8.033569533160189735e-01
2.304815806734661077e-01 6.413738016019010502e-01
2.315221295701314908e-01 6.488207118565050280e-01
2.325626784667968738e-01 7.332064188459845866e-01
2.336032273634622569e-01 6.696683761997768158e-01
2.346437762601276400e-01 5.145432096086963725e-01
2.356843251567930231e-01 7.185011179225142541e-01
2.367248740534584062e-01 6.670291379720794112e-01
2.377654229501237892e-01 7.112600141555844857e-01
2.388059718467891723e-01 6.766661175075370238e-01
2.398465207434545554e-01 4.016140739250246838e-01
2.408870696401199385e-01 2.771394313929071984e-01
2.419276185367853216e-01 4.641947679531099880e-02
2.429681674334507047e-01 4.620653057418522280e-02
2.440087163301160877e-01 4.264481035354350524e-01
2.450492652267814708e-01 6.124946134409263720e-01
2.460898141234468539e-01 4.003894508739875846e-01
2.471303630201122370e-01 3.460389979043618780e-01
2.481709119167776201e-01 3.136002658834975421e-01
2.492114608134430032e-01 5.289685838320146161e-01
2.502520097101083585e-01 5.804201225946989950e-01
2.512925586067737416e-01 5.417248052527483537e-01
2.523331075034391247e-01 5.922317317300738182e-01
2.533736564001045077e-01 8.354844741093145899e-01
2.544142052967698908e-01 1.255477437616846714e+00
2.554547541934352739e-01 1.481056642346292307e+00
2.564953030901006570e-01 1.777565138565837088e+00
2.575358519867660401e-01 1.681681999812649764e+00
2.585764008834314231e-01 1.401765286297610658e+00
2.596169497800968062e-01 1.114444664488210890e+00
2.606574986767621893e-01 1.090335633751593036e+00
2.616980475734275724e-01 1.027892761233903940e+00
2.627385964700929555e-01 1.141350911580992999e+00
2.637791453667583386e-01 9.503797354702214761e-01
2.648196942634237216e-01 1.143481935986681464e+00
2.658602431600891047e-01 1.319466022343586786e+00
2.669007920567544878e-01 1.325087825128814956e+00
2.679413409534198709e-01 1.270490975454940497e+00
2.689818898500852540e-01 1.181494099757703253e+00
2.700224387467506371e-01 1.730470748596687258e+00
2.710629876434160201e-01 2.174298477941693619e+00
2.721035365400814032e-01 2.386611633870749927e+00
2.731440854367467863e-01 2.318627428545120495e+00
2.741846343334121694e-01 1.768491653524208118e+00
2.752251832300775525e-01 1.460577920962705889e+00
2.762657321267429356e-01 1.045522866745468349e+00
2.773062810234083186e-01 9.055104186168101421e-01
2.783468299200737017e-01 1.001489173745504502e+00
2.793873788167390848e-01 9.351308889217300191e-01
2.804279277134044679e-01 6.543833522459863161e-01
2.814684766100698510e-01 6.363518631952480575e-01
2.825090255067352341e-01 7.137017978610948887e-01
2.835495744034006171e-01 6.253570085434745351e-01
2.845901233000660002e-01 6.896967826869477847e-01
2.856306721967313833e-01 8.195228234991027705e-01
2.866712210933967664e-01 8.960429336718291893e-01
2.877117699900621495e-01 9.486807957993548257e-01
2.887523188867275326e-01 6.666512090347502806e-01
2.897928677833929156e-01 5.363929761089316628e-01
2.908334166800582987e-01 5.793253006195584476e-01
2.918739655767236818e-01 7.351695137855678297e-01
2.929145144733890649e-01 6.111428882031617604e-01
2.939550633700544480e-01 5.489244130334647309e-01
2.949956122667198311e-01 5.435070974865539029e-01
2.960361611633852141e-01 7.324466271321234956e-01
2.970767100600505972e-01 7.521953137819608060e-01
2.981172589567159803e-01 9.357473222717871408e-01
2.991578078533813634e-01 9.433604142942435544e-01
3.001983567500468020e-01 5.041284082505299580e-01
3.012389056467121851e-01 2.969838720848336777e-01
3.022794545433775681e-01 4.330428481366688231e-01
3.033200034400429512e-01 2.601486686460212638e-01
3.043605523367083343e-01 3.806985649555691964e-01
3.054011012333737174e-01 4.074450336663488770e-01
3.064416501300391005e-01 5.850413247798229577e-01
3.074821990267044836e-01 5.787773817636576723e-01
3.085227479233698666e-01 6.591453429239990669e-01
3.095632968200352497e-01 6.742368151933035847e-01
3.106038457167006328e-01 5.710276490729349064e-01
3.116443946133660159e-01 6.342007365907313954e-01
3.126849435100313990e-01 7.963307133281354311e-01
3.137254924066967821e-01 6.206536109103915066e-01
3.147660413033621651e-01 2.704610660153043966e-01
3.158065902000275482e-01 2.411799747468776900e-01
3.168471390966929313e-01 3.922242754632243589e-01
3.178876879933583144e-01 3.330809778857108938e-01
3.189282368900236975e-01 2.215272089620512475e-01
3.199687857866890806e-01 2.832202717437404260e-01
3.210093346833544636e-01 1.909924994727631997e-01
3.220498835800198467e-01 2.306439595927436415e-01
3.230904324766852298e-01 2.381151979270477170e-01
3.241309813733506129e-01 2.222291720579860907e-01
3.251715302700159960e-01 2.030704675823002958e-02
3.262120791666813790e-01 2.207067883812783293e-01
3.272526280633467621e-01 3.278458760198112998e-01
3.282931769600121452e-01 4.639118958485255462e-01
3.293337258566775283e-01 4.280051391010530892e-01
3.303742747533429114e-01 4.136767667467609044e-01
3.314148236500082945e-01 3.617445734709860972e-01
3.324553725466736775e-01 2.232945757881630300e-01
3.334959214433390606e-01 2.758506449176110209e-01
3.345364703400044437e-01 4.847030900623217065e-01
3.355770192366698268e-01 3.433784899842358129e-01
3.366175681333352099e-01 3.287609133072066925e-02
3.376581170300005930e-01 1.460511014920236050e-01
3.386986659266659760e-01 1.005182537861806225e-01
3.397392148233313591e-01 2.082525339456573477e-01
3.407797637199967422e-01 5.233642094935326838e-01
3.418203126166621253e-01 5.203315266134289629e-01
3.428608615133275084e-01 4.300796267615929480e-01
3.439014104099928915e-01 4.417108197631058886e-01
3.449419593066582745e-01 5.391487458982417991e-01
3.459825082033236576e-01 4.979304929960228776e-01
3.470230570999890407e-01 3.614979294057008019e-01
3.480636059966544238e-01 3.952284418913194486e-01
3.491041548933198069e-01 5.457815180666720778e-01
3.501447037899851900e-01 3.192436455063862866e-01
3.511852526866505730e-01 2.901409260108991361e-01
3.522258015833159561e-01 4.461928489095257078e-01
3.532663504799813392e-01 3.189899204384438747e-01
3.543068993766467223e-01 1.319437441545865397e-01
3.553474482733121054e-01 3.177991546476768292e-01
3.563879971699774885e-01 3.666588275793962737e-01
3.574285460666428715e-01 3.753713672881815455e-01
3.584690949633082546e-01 3.516933254704071032e-01
3.595096438599736377e-01 1.428174377999447131e-01
3.605501927566390208e-01 6.848444264479880417e-02
3.615907416533044039e-01 5.091072904924942577e-02
3.626312905499697870e-01 2.310093863258906310e-01
3.636718394466351700e-01 4.678694308041997374e-01
3.647123883433005531e-01 5.667202525083219200e-01
3.657529372399659362e-01 5.765825871794199031e-01
3.667934861366313193e-01 3.566058583105444768e-01
3.678340350332967024e-01 3.669811491561212335e-01
3.688745839299620854e-01 3.387936771950634807e-01
3.699151328266274685e-01 4.419745958079701609e-01
3.709556817232928516e-01 2.881745808767348649e-01
3.719962306199582347e-01 3.737772968626913439e-01
3.730367795166236178e-01 5.105164512839337476e-01
3.740773284132890009e-01 6.819416802463997840e-01
3.751178773099543839e-01 7.564428928541460095e-01
3.761584262066197670e-01 5.737221618949277513e-01
3.771989751032851501e-01 5.563709223822428385e-01
3.782395239999505332e-01 3.759911072670334420e-01
3.792800728966159163e-01 3.744563352820406976e-01
3.803206217932812994e-01 2.952537957928598189e-01
3.813611706899466824e-01 3.739124134420848122e-01
3.824017195866120655e-01 4.503487717286347447e-01
3.834422684832774486e-01 3.450233718550883566e-01
3.844828173799428317e-01 4.142716556182506338e-01
3.855233662766082148e-01 3.783193614912292446e-01
3.865639151732735979e-01 1.701780298189525809e-01
3.876044640699389809e-01 8.429752535972312444e-02
3.886450129666043640e-01 3.752192492729591322e-01
3.896855618632697471e-01 4.818851638668739668e-01
3.907261107599351302e-01 4.284740238498550013e-01
3.917666596566005133e-01 3.721027485847869798e-01
3.928072085532658964e-01 2.355334447347132709e-01
3.938477574499312794e-01 3.155431716268779496e-01
3.948883063465966625e-01 3.838877428914990730e-01
3.959288552432620456e-01 3.339689847091662500e-01
3.969694041399274287e-01 2.733473559839936229e-01
3.980099530365928118e-01 4.292477826379226258e-02
3.990505019332581949e-01 4.059339032242093026e-03
4.000910508299235779e-01 5.555902910170829045e-03
4.011315997265889610e-01 2.571655192811626023e-01
4.021721486232543441e-01 2.869386439946275402e-01
4.032126975199197272e-01 3.964402744584134552e-01
4.042532464165851103e-01 4.913205489803580406e-01
4.052937953132504934e-01 5.790782593316379234e-01
4.063343442099158764e-01 4.916610912792762633e-01
4.073748931065812595e-01 3.731758742756561276e-01
4.084154420032466426e-01 1.564657934090405433e-01
4.094559908999120257e-01 9.621101510408180957e-02
4.104965397965774088e-01 5.196609398973173199e-01
4.115370886932427918e-01 3.373531120269213091e-01
4.125776375899081749e-01 1.407867246762322111e-01
4.136181864865735580e-01 2.941098489359639245e-01
4.146587353832389411e-01 4.984966971764777099e-01
4.156992842799043242e-01 3.918123504060382345e-01
4.167398331765697073e-01 4.460300584805345636e-01
4.177803820732350903e-01 2.510367339490997551e-01
4.188209309699004734e-01 3.105505747172934150e-01
4.198614798665658565e-01 3.715162356361787488e-01
4.209020287632312396e-01 2.743014168720812052e-01
4.219425776598966227e-01 2.213962216909557412e-01
4.229831265565620058e-01 2.357176492830852510e-01
4.240236754532273888e-01 3.461793249618416723e-01
4.250642243498927719e-01 3.163859308268186510e-01
4.261047732465581550e-01 2.853367868588598810e-01
4.271453221432235381e-01 2.169600733001999515e-01
4.281858710398889212e-01 2.067932956197715555e-01
4.292264199365543043e-01 3.491419934990993568e-01
4.302669688332196873e-01 3.383718720285813220e-01
4.313075177298850704e-01 1.670074499627389741e-01
4.323480666265504535e-01 1.647224554555712928e-01
4.333886155232158366e-01 2.884069695980429060e-01
4.344291644198812197e-01 3.537338341486560012e-01
