# q (1/Angstrom), Intensity (arb)
2.029070354705860696e-02 1.410622726153630538e+03
2.133125244372399004e-02 1.399723752004985499e+03
2.237180134038937659e-02 1.393902059011732035e+03
2.341235023705475968e-02 1.383150578073941006e+03
2.445289913372014276e-02 1.376386703215948955e+03
2.549344803038552584e-02 1.365694513423205763e+03
2.653399692705091240e-02 1.354392562746570320e+03
2.757454582371629548e-02 1.338565500091141757e+03
2.861509472038167856e-02 1.327699526178666929e+03
2.965564361704706164e-02 1.308901870645792087e+03
3.069619251371244473e-02 1.285944364533815133e+03
3.173674141037782781e-02 1.270503813229495108e+03
3.277729030704321089e-02 1.254123829895441531e+03
3.381783920370859398e-02 1.235915924248700549e+03
3.485838810037397706e-02 1.214280782759837621e+03
3.589893699703936014e-02 1.194050277096585432e+03
3.693948589370474322e-02 1.170609443535642185e+03
3.798003479037012631e-02 1.151183830963157334e+03
3.902058368703550939e-02 1.132571474775186743e+03
4.006113258370089247e-02 1.111295935687297742e+03
4.110168148036627556e-02 1.090856515864737048e+03
4.214223037703165864e-02 1.067927191138125636e+03
4.318277927369704866e-02 1.040107143179115837e+03
4.422332817036243174e-02 1.019551713676465283e+03
4.526387706702781483e-02 9.996360012857513766e+02
4.630442596369319791e-02 9.742046950933748803e+02
4.734497486035858099e-02 9.556266637164588928e+02
4.838552375702396408e-02 9.328300403760905510e+02
4.942607265368934716e-02 9.085104017455383882e+02
5.046662155035473024e-02 8.831453737657959664e+02
5.150717044702011332e-02 8.598421032421734935e+02
5.254771934368549641e-02 8.372436996946572663e+02
5.358826824035087949e-02 8.147968938629200011e+02
5.462881713701626257e-02 7.906472908688868984e+02
5.566936603368164566e-02 7.663494328595827483e+02
5.670991493034702874e-02 7.455755545278750560e+02
5.775046382701241182e-02 7.219076137233024610e+02
5.879101272367779490e-02 6.992268864387009444e+02
5.983156162034317799e-02 6.773900497048769012e+02
6.087211051700856107e-02 6.564217687524032954e+02
6.191265941367394415e-02 6.357275040669456985e+02
6.295320831033933417e-02 6.145288407957334584e+02
6.399375720700471726e-02 5.919075170263815835e+02
6.503430610367010034e-02 5.726201137047754628e+02
6.607485500033548342e-02 5.521234231053068697e+02
6.711540389700086651e-02 5.318012920328517339e+02
6.815595279366624959e-02 5.114854432657273264e+02
6.919650169033163267e-02 4.918096374506098982e+02
7.023705058699701576e-02 4.728383455158829065e+02
7.127759948366239884e-02 4.542197014027510136e+02
7.231814838032778192e-02 4.364010500040467377e+02
7.335869727699316500e-02 4.174008063360463439e+02
7.439924617365854809e-02 3.985720384859822616e+02
7.543979507032393117e-02 3.804397442157439855e+02
7.648034396698931425e-02 3.633197174790423674e+02
7.752089286365469734e-02 3.468184833458763023e+02
7.856144176032008042e-02 3.318012363186211928e+02
7.960199065698546350e-02 3.168703135928732308e+02
8.064253955365084658e-02 3.015264239729777955e+02
8.168308845031622967e-02 2.860241270442739960e+02
8.272363734698161275e-02 2.710374565843394521e+02
8.376418624364699583e-02 2.578329698820909357e+02
8.480473514031239279e-02 2.445676465645252051e+02
8.584528403697777588e-02 2.314944252741784680e+02
8.688583293364315896e-02 2.170726829030388672e+02
8.792638183030854204e-02 2.045462961400983772e+02
8.896693072697392513e-02 1.938157249612118562e+02
9.000747962363930821e-02 1.824663952449468525e+02
9.104802852030469129e-02 1.720254107928853387e+02
9.208857741697007437e-02 1.611727780129218672e+02
9.312912631363545746e-02 1.500061435900891240e+02
9.416967521030084054e-02 1.403142291974751856e+02
9.521022410696622362e-02 1.310822556382771040e+02
9.625077300363160671e-02 1.218023679591478441e+02
9.729132190029698979e-02 1.126667747629043532e+02
9.833187079696237287e-02 1.043371573463467428e+02
9.937241969362775595e-02 9.750781275952503790e+01
1.004129685902931390e-01 9.062842601271526632e+01
1.014535174869585221e-01 8.334410315019707127e+01
1.024940663836239052e-01 7.724922827948775250e+01
1.035346152802892883e-01 7.079071566935471083e+01
1.045751641769546714e-01 6.423416639610579182e+01
1.056157130736200545e-01 5.889581091823535530e+01
1.066562619702854375e-01 5.414247918466597298e+01
1.076968108669508206e-01 4.863619012508427630e+01
1.087373597636162037e-01 4.368983903451497497e+01
1.097779086602815868e-01 3.918093634463065911e+01
1.108184575569469699e-01 3.565766842576402240e+01
1.118590064536123529e-01 3.195494486490386521e+01
1.128995553502777360e-01 2.787247537210349435e+01
1.139401042469431191e-01 2.533287469723225627e+01
1.149806531436085022e-01 2.191489570026382694e+01
1.160212020402738853e-01 1.924408026808374927e+01
1.170617509369392684e-01 1.767088000050861751e+01
1.181022998336046514e-01 1.553937167802774155e+01
1.191428487302700345e-01 1.370591076564132749e+01
1.201833976269354176e-01 1.198998404908211768e+01
1.212239465236008007e-01 1.022198714428929378e+01
1.222644954202661838e-01 8.369319304124438474e+00
1.233050443169315669e-01 6.929630769064665685e+00
1.243455932135969499e-01 5.706231332399035239e+00
1.253861421102623330e-01 4.702947794181234542e+00
1.264266910069277161e-01 4.101946701100473547e+00
1.274672399035930992e-01 3.701274802199186809e+00
1.285077888002584823e-01 3.104198920558523866e+00
1.295483376969238654e-01 2.567463956389737234e+00
1.305888865935892484e-01 2.000169708211984698e+00
1.316294354902546315e-01 1.800399895174805920e+00
1.326699843869200146e-01 2.063065150765005740e+00
1.337105332835853977e-01 1.472790421950662676e+00
1.347510821802507808e-01 1.858992715602560963e+00
1.357916310769161639e-01 2.227343285349263624e+00
1.368321799735815469e-01 2.074015087167019544e+00
1.378727288702469300e-01 1.799653149836068167e+00
1.389132777669123131e-01 1.545468300845520560e+00
1.399538266635776962e-01 2.327980412752786776e+00
1.409943755602430793e-01 3.439282337884883134e+00
1.420349244569084624e-01 3.932715697490451134e+00
1.430754733535738454e-01 3.899872360302644836e+00
1.441160222502392285e-01 4.027529742309525318e+00
1.451565711469046116e-01 4.578220232869824713e+00
1.461971200435699947e-01 4.896791789559692631e+00
1.472376689402353778e-01 5.287285918202364599e+00
1.482782178369007609e-01 6.017881387754634659e+00
1.493187667335661439e-01 6.171073528558366661e+00
1.503593156302315270e-01 6.638979580538808989e+00
1.513998645268969101e-01 7.359178605400828133e+00
1.524404134235622932e-01 8.113106811907300653e+00
1.534809623202276763e-01 8.426413048009052886e+00
1.545215112168930593e-01 8.535214296253599287e+00
1.555620601135584424e-01 8.403675796142699994e+00
1.566026090102238255e-01 8.430305242661589205e+00
1.576431579068892086e-01 8.858685926759903850e+00
1.586837068035545917e-01 8.944921374109668477e+00
1.597242557002199748e-01 9.332898423517818287e+00
1.607648045968853578e-01 9.836398599518162200e+00
1.618053534935507409e-01 1.047787098946215423e+01
1.628459023902161240e-01 1.044007089731452709e+01
1.638864512868815071e-01 1.040108150601439263e+01
1.649270001835468902e-01 1.060335765722958001e+01
1.659675490802122733e-01 1.085497087375423320e+01
1.670080979768776563e-01 1.088243398729223088e+01
1.680486468735430672e-01 1.108500211340388120e+01
1.690891957702084503e-01 1.070332925516230205e+01
1.701297446668738333e-01 1.049134087652393887e+01
1.711702935635392164e-01 1.095873144400523813e+01
1.722108424602045995e-01 1.078577226677595036e+01
1.732513913568699826e-01 1.091194585329560596e+01
1.742919402535353657e-01 1.066803435524099442e+01
1.753324891502007488e-01 1.049530540657430677e+01
1.763730380468661318e-01 1.018904406283766306e+01
1.774135869435315149e-01 9.590741706253282928e+00
1.784541358401968980e-01 9.950730472498289458e+00
1.794946847368622811e-01 9.956720348782706509e+00
1.805352336335276642e-01 9.878956011755754218e+00
1.815757825301930473e-01 9.437495777059073276e+00
1.826163314268584303e-01 9.255102119498555879e+00
1.836568803235238134e-01 8.755643966943132739e+00
1.846974292201891965e-01 8.503697087457890547e+00
1.857379781168545796e-01 8.470228476333463874e+00
1.867785270135199627e-01 7.843385271359771593e+00
1.878190759101853458e-01 7.323602978373198624e+00
1.888596248068507288e-01 7.316352520492795719e+00
1.899001737035161119e-01 7.020222574173551777e+00
1.909407226001814950e-01 6.591368968133565431e+00
1.919812714968468781e-01 6.808169949881399674e+00
1.930218203935122612e-01 6.811717245816485189e+00
1.940623692901776443e-01 6.310635955059904489e+00
1.951029181868430273e-01 5.450909202864728798e+00
1.961434670835084104e-01 5.046738248037762276e+00
1.971840159801737935e-01 4.925407293419628019e+00
1.982245648768391766e-01 4.886862946217831905e+00
1.992651137735045597e-01 4.721208258519425272e+00
2.003056626701699428e-01 4.551627020226899134e+00
2.013462115668353813e-01 4.341485602808628386e+00
2.023867604635007644e-01 3.932614777162804387e+00
2.034273093601661475e-01 3.569844135702261667e+00
2.044678582568315306e-01 3.551563236967719916e+00
2.055084071534969137e-01 3.062756854759239644e+00
2.065489560501622968e-01 2.831079081328255143e+00
2.075895049468276798e-01 2.427054775932610653e+00
2.086300538434930629e-01 2.117702027211663562e+00
2.096706027401584460e-01 2.100756358616834518e+00
2.107111516368238291e-01 1.926995443850813672e+00
2.117517005334892122e-01 1.644629169095630061e+00
2.127922494301545953e-01 1.458635415305128191e+00
2.138327983268199783e-01 1.499220199805314735e+00
2.148733472234853614e-01 1.544270722884871105e+00
2.159138961201507445e-01 1.303022734633657365e+00
2.169544450168161276e-01 7.826553081411731227e-01
2.179949939134815107e-01 1.065735176139529727e+00
2.190355428101468938e-01 1.041505377241765729e+00
2.200760917068122768e-01 5.204774094075794721e-01
2.211166406034776599e-01 3.491265491834880663e-01
2.221571895001430430e-01 3.790241769463236210e-01
2.231977383968084261e-01 4.764078953242609771e-01
2.242382872934738092e-01 1.507951864859755631e-01
2.252788361901391923e-01 3.148370299819731599e-01
2.263193850868045753e-01 2.706312778270110186e-01
2.273599339834699584e-01 1.829151928744394695e-01
2.284004828801353415e-01 5.547305476178543415e-01
2.294410317768007246e-01 4.850876401609056643e-01
2.304815806734661077e-01 5.908873731383401662e-01
2.315221295701314908e-01 5.193960572153670796e-01
2.325626784667968738e-01 4.553548292054223623e-01
2.336032273634622569e-01 4.631001472295785959e-01
2.346437762601276400e-01 7.227254540270990901e-01
2.356843251567930231e-01 6.911352446274960926e-01
2.367248740534584062e-01 7.122093780353502268e-01
2.377654229501237892e-01 8.053036269093531985e-01
2.388059718467891723e-01 7.237311662338647977e-01
2.398465207434545554e-01 6.028941328584274117e-01
2.408870696401199385e-01 1.066273933326311152e+00
2.419276185367853216e-01 9.744392656477494086e-01
2.429681674334507047e-01 7.138560108392688619e-01
2.440087163301160877e-01 9.009297485892489021e-01
2.450492652267814708e-01 1.139436300258687140e+00
2.460898141234468539e-01 1.257002931272531043e+00
2.471303630201122370e-01 1.250464440120460097e+00
2.481709119167776201e-01 1.100214344974123293e+00
2.492114608134430032e-01 1.008053883409218088e+00
2.502520097101083585e-01 1.032894575170857365e+00
2.512925586067737416e-01 1.088188443154777474e+00
2.523331075034391247e-01 1.313213938947466630e+00
2.533736564001045077e-01 1.286536974481592210e+00
2.544142052967698908e-01 1.263228041613352559e+00
2.554547541934352739e-01 1.431094445251915204e+00
2.564953030901006570e-01 1.470341061555441087e+00
2.575358519867660401e-01 1.603987924925686315e+00
2.585764008834314231e-01 1.497447743559515487e+00
2.596169497800968062e-01 1.475297547573877210e+00
2.606574986767621893e-01 1.537900679427753659e+00
2.616980475734275724e-01 1.542786972786831967e+00
2.627385964700929555e-01 1.639344715341739089e+00
2.637791453667583386e-01 1.798229962619348754e+00
2.648196942634237216e-01 1.660096211829277024e+00
2.658602431600891047e-01 1.485481199949873599e+00
2.669007920567544878e-01 1.717606211929147975e+00
2.679413409534198709e-01 1.570354290806420750e+00
2.689818898500852540e-01 1.586341533978121277e+00
2.700224387467506371e-01 1.631779778179311080e+00
2.710629876434160201e-01 1.622089741028045040e+00
2.721035365400814032e-01 1.231319366938073756e+00
2.731440854367467863e-01 1.470959556321034256e+00
2.741846343334121694e-01 1.735006657726927415e+00
2.752251832300775525e-01 1.777104538457226823e+00
2.762657321267429356e-01 1.785280860046054130e+00
2.773062810234083186e-01 1.503940601042558001e+00
2.783468299200737017e-01 1.221716286898072212e+00
2.793873788167390848e-01 1.332978876021215342e+00
2.804279277134044679e-01 1.295594222839543619e+00
2.814684766100698510e-01 1.426316378096974091e+00
2.825090255067352341e-01 1.387757826748249101e+00
2.835495744034006171e-01 1.596403673053888639e+00
2.845901233000660002e-01 1.452047592127900799e+00
2.856306721967313833e-01 1.319830708689003984e+00
2.866712210933967664e-01 1.009261724279742367e+00
2.877117699900621495e-01 1.176358764004863389e+00
2.887523188867275326e-01 1.355297880871138005e+00
2.897928677833929156e-01 1.032618953682266749e+00
2.908334166800582987e-01 8.531882387666911427e-01
2.918739655767236818e-01 9.516716500416677604e-01
2.929145144733890649e-01 1.037835633425643778e+00
2.939550633700544480e-01 9.449355733721560568e-01
2.949956122667198311e-01 8.095656407714386660e-01
2.960361611633852141e-01 6.127794585726213938e-01
2.970767100600505972e-01 7.751702917599878617e-01
2.981172589567159803e-01 5.758686322609669617e-01
2.991578078533813634e-01 7.801687106544825667e-01
3.001983567500468020e-01 5.437299352957154497e-01
3.012389056467121851e-01 5.861393051909153940e-01
3.022794545433775681e-01 8.639727821561997700e-01
3.033200034400429512e-01 5.457311598902556682e-01
3.043605523367083343e-01 2.808241120656518319e-01
3.054011012333737174e-01 2.690463396287334774e-01
3.064416501300391005e-01 4.332884135684906823e-01
3.074821990267044836e-01 3.365048569983066784e-01
3.085227479233698666e-01 3.161325689772667147e-01
3.095632968200352497e-01 3.517344734703868880e-01
3.106038457167006328e-01 3.953510054747368940e-01
3.116443946133660159e-01 2.802292493415308172e-01
3.126849435100313990e-01 9.074522347981428538e-02
3.137254924066967821e-01 2.465660515161260946e-01
3.147660413033621651e-01 3.349791812608202690e-01
3.158065902000275482e-01 3.655445790690201591e-01
3.168471390966929313e-01 4.939353266907211548e-01
3.178876879933583144e-01 2.379493215645958060e-01
3.189282368900236975e-01 1.997922033775765271e-01
3.199687857866890806e-01 3.777267117493821047e-02
3.210093346833544636e-01 9.415911426316725397e-02
3.220498835800198467e-01 2.824516501280562863e-01
3.230904324766852298e-01 4.329299119783946992e-01
3.241309813733506129e-01 3.407371648301449341e-01
3.251715302700159960e-01 3.435167205643452348e-01
3.262120791666813790e-01 8.096996560962566036e-02
3.272526280633467621e-01 2.143316949581688391e-01
3.282931769600121452e-01 2.601029209140826026e-01
3.293337258566775283e-01 4.575934312456055864e-01
3.303742747533429114e-01 4.504042539583181792e-01
3.314148236500082945e-01 4.042649828405409096e-01
3.324553725466736775e-01 1.917857658063191195e-01
3.334959214433390606e-01 4.621566233761953413e-02
3.345364703400044437e-01 2.274607716349805742e-01
3.355770192366698268e-01 1.248659627599089106e-01
3.366175681333352099e-01 3.810221646097708970e-01
3.376581170300005930e-01 4.692168561246390368e-01
3.386986659266659760e-01 4.323360773921791633e-01
3.397392148233313591e-01 4.990190640256741972e-01
3.407797637199967422e-01 4.474018612620085378e-01
3.418203126166621253e-01 3.246024035334933444e-01
3.428608615133275084e-01 3.080423647616115090e-01
3.439014104099928915e-01 4.246519952204401704e-01
3.449419593066582745e-01 6.636275775171469604e-01
3.459825082033236576e-01 5.214485024423609616e-01
3.470230570999890407e-01 4.737279250635957339e-01
3.480636059966544238e-01 6.686008340081883716e-01
3.491041548933198069e-01 5.679956836295403377e-01
3.501447037899851900e-01 4.983500774086344620e-01
3.511852526866505730e-01 3.230921753865558799e-01
3.522258015833159561e-01 5.209090827050744110e-01
3.532663504799813392e-01 8.241348958871377306e-01
3.543068993766467223e-01 7.559172517356316234e-01
3.553474482733121054e-01 7.996788811415775911e-01
3.563879971699774885e-01 6.454744067586375422e-01
3.574285460666428715e-01 6.951270620556790902e-01
3.584690949633082546e-01 5.691470881663356352e-01
3.595096438599736377e-01 4.187840611408972791e-01
3.605501927566390208e-01 5.431292812602102060e-01
3.615907416533044039e-01 6.065017371745007324e-01
3.626312905499697870e-01 5.457725783903377703e-01
3.636718394466351700e-01 6.527921354414445432e-01
3.647123883433005531e-01 6.365116467493123764e-01
3.657529372399659362e-01 5.006045955243969559e-01
3.667934861366313193e-01 5.602741202142560439e-01
3.678340350332967024e-01 3.502669445031365569e-01
3.688745839299620854e-01 4.217288495099928980e-01
3.699151328266274685e-01 5.911289624665840847e-01
3.709556817232928516e-01 6.994195727293117670e-01
3.719962306199582347e-01 6.071207206772548659e-01
3.730367795166236178e-01 5.768022944390729378e-01
3.740773284132890009e-01 5.311078097946335674e-01
3.751178773099543839e-01 4.765915781085965364e-01
3.761584262066197670e-01 5.323172070359412089e-01
3.771989751032851501e-01 4.946404183442609792e-01
3.782395239999505332e-01 4.512753654165599926e-01
3.792800728966159163e-01 5.282496713346205297e-01
3.803206217932812994e-01 4.424244677561439687e-01
3.813611706899466824e-01 6.613008406825002794e-01
3.824017195866120655e-01 7.667352837633529816e-01
3.834422684832774486e-01 4.661453005652340664e-01
3.844828173799428317e-01 3.324914497805018243e-01
3.855233662766082148e-01 7.310316546655215575e-02
3.865639151732735979e-01 2.811514705018112181e-01
3.876044640699389809e-01 4.045018894259051478e-01
3.886450129666043640e-01 2.769760511511023537e-01
3.896855618632697471e-01 3.280441874906827593e-01
3.907261107599351302e-01 3.773287571583061606e-01
3.917666596566005133e-01 3.500215558425701090e-01
3.928072085532658964e-01 4.376923183016430130e-01
3.938477574499312794e-01 4.855234888744099919e-01
3.948883063465966625e-01 2.614552662879106038e-01
3.959288552432620456e-01 1.699999638265410340e-01
3.969694041399274287e-01 1.659355069072283584e-01
3.980099530365928118e-01 1.629151404475130960e-01
3.990505019332581949e-01 1.326072212305078324e-01
4.000910508299235779e-01 2.643131219283567646e-01
4.011315997265889610e-01 3.289004049411623498e-01
4.021721486232543441e-01 6.097514704721760381e-01
4.032126975199197272e-01 4.625600289711009339e-01
4.042532464165851103e-01 3.913679695951230997e-01
4.052937953132504934e-01 5.380795586113542583e-01
4.063343442099158764e-01 4.300603671625324864e-01
4.073748931065812595e-01 3.284815126728020118e-01
4.084154420032466426e-01 3.089192886315679232e-01
4.094559908999120257e-01 2.397792826712574765e-01
4.104965397965774088e-01 2.729722555926663574e-01
4.115370886932427918e-01 3.014460222555079838e-01
4.125776375899081749e-01 1.453297633457637517e-01
4.136181864865735580e-01 1.809967604483624370e-01
4.146587353832389411e-01 1.415573494979334157e-01
4.156992842799043242e-01 2.578074500331233310e-01
4.167398331765697073e-01 2.083964762578318641e-01
4.177803820732350903e-01 1.563464945047101651e-01
4.188209309699004734e-01 3.389830375602329582e-01
4.198614798665658565e-01 2.614952027677936996e-01
4.209020287632312396e-01 2.728824134564753479e-01
4.219425776598966227e-01 3.920318388677586086e-01
4.229831265565620058e-01 5.145581061991393312e-01
4.240236754532273888e-01 6.335104883679925081e-01
4.250642243498927719e-01 5.801929522818660701e-01
4.261047732465581550e-01 5.176833966623561878e-01
4.271453221432235381e-01 4.802369374352046805e-01
4.281858710398889212e-01 4.972276177306724776e-01
4.292264199365543043e-01 3.215496647773612438e-01
4.302669688332196873e-01 2.993600715617930064e-01
4.313075177298850704e-01 3.875923351388763649e-01
4.323480666265504535e-01 4.962016198730836436e-01
4.333886155232158366e-01 4.774784203342719024e-01
4.344291644198812197e-01 4.522741474863707367e-01
