# q (1/Angstrom), Intensity (arb)
2.029070354705860696e-02 5.191727310150575931e+02
2.133125244372399004e-02 5.229985462390302473e+02
2.237180134038937659e-02 5.261728845840045778e+02
2.341235023705475968e-02 5.274609552340733671e+02
2.445289913372014276e-02 5.229817198681920445e+02
2.549344803038552584e-02 5.179666420658230663e+02
2.653399692705091240e-02 5.160215995499826249e+02
2.757454582371629548e-02 5.120663289772780900e+02
2.861509472038167856e-02 5.094097442021131883e+02
2.965564361704706164e-02 5.065276864995823871e+02
3.069619251371244473e-02 5.017912800026863920e+02
3.173674141037782781e-02 4.972320959235761393e+02
3.277729030704321089e-02 4.886708156023229321e+02
3.381783920370859398e-02 4.827448365914600572e+02
3.485838810037397706e-02 4.774221894731411453e+02
3.589893699703936014e-02 4.699843380550010465e+02
3.693948589370474322e-02 4.634526513241741554e+02
3.798003479037012631e-02 4.609272384563571450e+02
3.902058368703550939e-02 4.533198852559063994e+02
4.006113258370089247e-02 4.445390185395625622e+02
4.110168148036627556e-02 4.354364760419155118e+02
4.214223037703165864e-02 4.278481188047102250e+02
4.318277927369704866e-02 4.214179835893653490e+02
4.422332817036243174e-02 4.159349722739029858e+02
4.526387706702781483e-02 4.052694111859903501e+02
4.630442596369319791e-02 3.973773624360477470e+02
4.734497486035858099e-02 3.895614845310304304e+02
4.838552375702396408e-02 3.811045118497053750e+02
4.942607265368934716e-02 3.741582038141737598e+02
5.046662155035473024e-02 3.664438099845286274e+02
5.150717044702011332e-02 3.590626197708816107e+02
5.254771934368549641e-02 3.510332931904166003e+02
5.358826824035087949e-02 3.423962915707511456e+02
5.462881713701626257e-02 3.368581336350292190e+02
5.566936603368164566e-02 3.280861945404576545e+02
5.670991493034702874e-02 3.190064515243459482e+02
5.775046382701241182e-02 3.098870376480648474e+02
5.879101272367779490e-02 3.014173449038469812e+02
5.983156162034317799e-02 2.932776450097528596e+02
6.087211051700856107e-02 2.856612226071806617e+02
6.191265941367394415e-02 2.789002234875184740e+02
6.295320831033933417e-02 2.716352587252016519e+02
6.399375720700471726e-02 2.645437450388582761e+02
6.503430610367010034e-02 2.557373794985183224e+02
6.607485500033548342e-02 2.486360792500760795e+02
6.711540389700086651e-02 2.408992353465356473e+02
6.815595279366624959e-02 2.319280254450909808e+02
6.919650169033163267e-02 2.246024943408163494e+02
7.023705058699701576e-02 2.183485278137453349e+02
7.127759948366239884e-02 2.115801098595259191e+02
7.231814838032778192e-02 2.046294560024682596e+02
7.335869727699316500e-02 1.987179962090635286e+02
7.439924617365854809e-02 1.919204260358173428e+02
7.543979507032393117e-02 1.848539153884901225e+02
7.648034396698931425e-02 1.792832166797358582e+02
7.752089286365469734e-02 1.733502336102451125e+02
7.856144176032008042e-02 1.658569130105888121e+02
7.960199065698546350e-02 1.605938406764615252e+02
8.064253955365084658e-02 1.549129189043594579e+02
8.168308845031622967e-02 1.479979184916314239e+02
8.272363734698161275e-02 1.418959829250487132e+02
8.376418624364699583e-02 1.371837850365396321e+02
8.480473514031239279e-02 1.319439432914773533e+02
8.584528403697777588e-02 1.281028290083510797e+02
8.688583293364315896e-02 1.260955279812125838e+02
8.792638183030854204e-02 1.325768155027745934e+02
8.896693072697392513e-02 1.543136933433792137e+02
9.000747962363930821e-02 1.769096516884853258e+02
9.104802852030469129e-02 1.794517623946283038e+02
9.208857741697007437e-02 1.867122021088972019e+02
9.312912631363545746e-02 2.628125728842784383e+02
9.416967521030084054e-02 4.257225894648188955e+02
9.521022410696622362e-02 4.975618751442858638e+02
9.625077300363160671e-02 3.634498218865454646e+02
9.729132190029698979e-02 2.128078898842146316e+02
9.833187079696237287e-02 1.618519677295897736e+02
9.937241969362775595e-02 1.473858015101488377e+02
1.004129685902931390e-01 1.393502100108067339e+02
1.014535174869585221e-01 1.285110543343340623e+02
1.024940663836239052e-01 1.148363333310444148e+02
1.035346152802892883e-01 1.002347626456542855e+02
1.045751641769546714e-01 8.697531609470792091e+01
1.056157130736200545e-01 7.794675612442583201e+01
1.066562619702854375e-01 7.376295882104500379e+01
1.076968108669508206e-01 7.907791884927647175e+01
1.087373597636162037e-01 9.267369106124507994e+01
1.097779086602815868e-01 9.481421033957271050e+01
1.108184575569469699e-01 7.253770906163937582e+01
1.118590064536123529e-01 4.803096061721614518e+01
1.128995553502777360e-01 3.651864616414093945e+01
1.139401042469431191e-01 3.102707226000987362e+01
1.149806531436085022e-01 2.714344539708564241e+01
1.160212020402738853e-01 2.466054451790220980e+01
1.170617509369392684e-01 2.234194051838004214e+01
1.181022998336046514e-01 2.012518875980211419e+01
1.191428487302700345e-01 1.802757569402634630e+01
1.201833976269354176e-01 1.610420554308922902e+01
1.212239465236008007e-01 1.483905889267226286e+01
1.222644954202661838e-01 1.342501056867947540e+01
1.233050443169315669e-01 1.239868923081002805e+01
1.243455932135969499e-01 1.104215558854305357e+01
1.253861421102623330e-01 9.667454774141393870e+00
1.264266910069277161e-01 8.941993748129913655e+00
1.274672399035930992e-01 8.404484431464879890e+00
1.285077888002584823e-01 7.748867065156218814e+00
1.295483376969238654e-01 6.323880853173022842e+00
1.305888865935892484e-01 5.682289109948420958e+00
1.316294354902546315e-01 5.232550009010786596e+00
1.326699843869200146e-01 4.790725652473771135e+00
1.337105332835853977e-01 4.172911731663230483e+00
1.347510821802507808e-01 3.407440207504855323e+00
1.357916310769161639e-01 3.136871404896357518e+00
1.368321799735815469e-01 2.580110036246704652e+00
1.378727288702469300e-01 2.618726336249725506e+00
1.389132777669123131e-01 2.593360338280195521e+00
1.399538266635776962e-01 2.089960250521546214e+00
1.409943755602430793e-01 1.844366929116439735e+00
1.420349244569084624e-01 1.829745244366900891e+00
1.430754733535738454e-01 1.583682647939902211e+00
1.441160222502392285e-01 1.539069766099952830e+00
1.451565711469046116e-01 1.261060593069910141e+00
1.461971200435699947e-01 1.514454467165020191e+00
1.472376689402353778e-01 1.850182687047926322e+00
1.482782178369007609e-01 2.202084716932848352e+00
1.493187667335661439e-01 2.050801702032018170e+00
1.503593156302315270e-01 2.095724709108637285e+00
1.513998645268969101e-01 2.249296075530072159e+00
1.524404134235622932e-01 3.064891299151192072e+00
1.534809623202276763e-01 4.709134533493315899e+00
1.545215112168930593e-01 7.113791365385448984e+00
1.555620601135584424e-01 7.071805067127503008e+00
1.566026090102238255e-01 5.041701824899359252e+00
1.576431579068892086e-01 3.276458507401866171e+00
1.586837068035545917e-01 3.121075454523609238e+00
1.597242557002199748e-01 3.551389427762977391e+00
1.607648045968853578e-01 3.595142857429607375e+00
1.618053534935507409e-01 3.853837925113619889e+00
1.628459023902161240e-01 3.826671683941246016e+00
1.638864512868815071e-01 3.828744460339628120e+00
1.649270001835468902e-01 3.991039293595587623e+00
1.659675490802122733e-01 4.317055058853249250e+00
1.670080979768776563e-01 4.350563911016156027e+00
1.680486468735430672e-01 4.885476492923210401e+00
1.690891957702084503e-01 5.204870645241072680e+00
1.701297446668738333e-01 4.929217374169251542e+00
1.711702935635392164e-01 4.563445331953069228e+00
1.722108424602045995e-01 4.933575052680431838e+00
1.732513913568699826e-01 5.311603282990859043e+00
1.742919402535353657e-01 5.040585745630679071e+00
1.753324891502007488e-01 5.226427436652205216e+00
1.763730380468661318e-01 5.382558889897566701e+00
1.774135869435315149e-01 5.810032782301107090e+00
1.784541358401968980e-01 7.077957381168602069e+00
1.794946847368622811e-01 1.009292174104907502e+01
1.805352336335276642e-01 1.758145025236140313e+01
1.815757825301930473e-01 2.526166347259780309e+01
1.826163314268584303e-01 2.308942060159578702e+01
1.836568803235238134e-01 1.518215379625456762e+01
1.846974292201891965e-01 1.030030409310292328e+01
1.857379781168545796e-01 8.315615287303238290e+00
1.867785270135199627e-01 7.779824735854450779e+00
1.878190759101853458e-01 8.198156314104245723e+00
1.888596248068507288e-01 8.944425084897453360e+00
1.899001737035161119e-01 9.472882655464662349e+00
1.909407226001814950e-01 8.357391528527085001e+00
1.919812714968468781e-01 6.072045524321506349e+00
1.930218203935122612e-01 5.096331021976581610e+00
1.940623692901776443e-01 4.692769164039901852e+00
1.951029181868430273e-01 4.568370946733093518e+00
1.961434670835084104e-01 4.092525735266601572e+00
1.971840159801737935e-01 4.119133993775530911e+00
1.982245648768391766e-01 3.876955972876640288e+00
1.992651137735045597e-01 3.649822590127794086e+00
2.003056626701699428e-01 3.857214237820116409e+00
2.013462115668353813e-01 3.729088897647685030e+00
2.023867604635007644e-01 3.256287453816604227e+00
2.034273093601661475e-01 3.455226905557509554e+00
2.044678582568315306e-01 3.122454037712909525e+00
2.055084071534969137e-01 3.337634547440902821e+00
2.065489560501622968e-01 2.942516600369096125e+00
2.075895049468276798e-01 2.983349140814393508e+00
2.086300538434930629e-01 3.070865833585934013e+00
2.096706027401584460e-01 3.267747820076017717e+00
2.107111516368238291e-01 2.686813796538253030e+00
2.117517005334892122e-01 2.367674897877662943e+00
2.127922494301545953e-01 2.366142588119803492e+00
2.138327983268199783e-01 2.221978169299376304e+00
2.148733472234853614e-01 2.068351808914702161e+00
2.159138961201507445e-01 2.169077079653508378e+00
2.169544450168161276e-01 2.090315098638622970e+00
2.179949939134815107e-01 2.224667948947683271e+00
2.190355428101468938e-01 1.942308524243586021e+00
2.200760917068122768e-01 1.810341072611709734e+00
2.211166406034776599e-01 1.806792868969171906e+00
2.221571895001430430e-01 1.660904949959174814e+00
2.231977383968084261e-01 1.625701992028780296e+00
2.242382872934738092e-01 1.400633451298002541e+00
2.252788361901391923e-01 1.384697874522839101e+00
2.263193850868045753e-01 1.265119194078543785e+00
2.273599339834699584e-01 1.281674028038324309e+00
2.284004828801353415e-01 1.237295687059827287e+00
2.294410317768007246e-01 1.229655042169937929e+00
2.304815806734661077e-01 1.411369550034734743e+00
2.315221295701314908e-01 1.410664463554383019e+00
2.325626784667968738e-01 1.130775325946505205e+00
2.336032273634622569e-01 1.022460795189651606e+00
2.346437762601276400e-01 9.360149139543985086e-01
2.356843251567930231e-01 9.032828365562330930e-01
2.367248740534584062e-01 6.306749387115075933e-01
2.377654229501237892e-01 6.041877095705068257e-01
2.388059718467891723e-01 8.675831143718220062e-01
2.398465207434545554e-01 1.138548762998333075e+00
2.408870696401199385e-01 1.016976380170657279e+00
2.419276185367853216e-01 8.811689873701133990e-01
2.429681674334507047e-01 1.031351351309712783e+00
2.440087163301160877e-01 6.212906815341057154e-01
2.450492652267814708e-01 3.632208346546370592e-01
2.460898141234468539e-01 5.793784609534533558e-01
2.471303630201122370e-01 6.608828235941395235e-01
2.481709119167776201e-01 4.755681045191586520e-01
2.492114608134430032e-01 4.003887270901493878e-01
2.502520097101083585e-01 3.808948704187962164e-01
2.512925586067737416e-01 6.265257147171965357e-01
2.523331075034391247e-01 4.723000413357318905e-01
2.533736564001045077e-01 4.430397420505869377e-01
2.544142052967698908e-01 3.844633108164750013e-01
2.554547541934352739e-01 4.126354974846577761e-01
2.564953030901006570e-01 5.559035344497722519e-01
2.575358519867660401e-01 6.451132548973177450e-01
2.585764008834314231e-01 4.304779402567149305e-01
2.596169497800968062e-01 4.783534279696333158e-01
2.606574986767621893e-01 4.511765381943781961e-01
2.616980475734275724e-01 7.078964771310900517e-01
2.627385964700929555e-01 8.688062763509698527e-01
2.637791453667583386e-01 7.298407048133128683e-01
2.648196942634237216e-01 5.187413959831168597e-01
2.658602431600891047e-01 1.002361946097177992e+00
2.669007920567544878e-01 1.176982965380105384e+00
2.679413409534198709e-01 1.215673786772939025e+00
2.689818898500852540e-01 1.320806876224764892e+00
2.700224387467506371e-01 1.362050406614848441e+00
2.710629876434160201e-01 1.327091810343990375e+00
2.721035365400814032e-01 1.129841164838829570e+00
2.731440854367467863e-01 9.914819691664895629e-01
2.741846343334121694e-01 1.046302301736240281e+00
2.752251832300775525e-01 1.164502171999000524e+00
2.762657321267429356e-01 1.073671852539934690e+00
2.773062810234083186e-01 1.085998040202721171e+00
2.783468299200737017e-01 1.138128792941976997e+00
2.793873788167390848e-01 1.102067918325086993e+00
2.804279277134044679e-01 1.277819864486204438e+00
2.814684766100698510e-01 1.245485818689285651e+00
2.825090255067352341e-01 1.315774358637980868e+00
2.835495744034006171e-01 1.614128243626502979e+00
2.845901233000660002e-01 1.803988060184753550e+00
2.856306721967313833e-01 1.718206063714863063e+00
2.866712210933967664e-01 1.216404715710794449e+00
2.877117699900621495e-01 8.596054917663167316e-01
2.887523188867275326e-01 4.472982167804211429e-01
2.897928677833929156e-01 5.505831213783025646e-01
2.908334166800582987e-01 6.599411863285808977e-01
2.918739655767236818e-01 6.421584855047477447e-01
2.929145144733890649e-01 8.620813363678259122e-01
2.939550633700544480e-01 9.006666480187917045e-01
2.949956122667198311e-01 1.030296934670584363e+00
2.960361611633852141e-01 1.052179801636125234e+00
2.970767100600505972e-01 9.929607883246980293e-01
2.981172589567159803e-01 8.281843657858765084e-01
2.991578078533813634e-01 9.635230200296440728e-01
3.001983567500468020e-01 9.506550871657886148e-01
3.012389056467121851e-01 9.500761570518712062e-01
3.022794545433775681e-01 1.104316718352784221e+00
3.033200034400429512e-01 8.228454754404026517e-01
3.043605523367083343e-01 9.106886442871235943e-01
3.054011012333737174e-01 1.108667545640066976e+00
3.064416501300391005e-01 1.099638604687275034e+00
3.074821990267044836e-01 1.023029368514347226e+00
3.085227479233698666e-01 5.223806839389730783e-01
3.095632968200352497e-01 7.218403305006049209e-01
3.106038457167006328e-01 1.188440414023279601e+00
3.116443946133660159e-01 8.566768512283147174e-01
3.126849435100313990e-01 8.356508981666870284e-01
3.137254924066967821e-01 6.043614301186579496e-01
3.147660413033621651e-01 5.236335280489399224e-01
3.158065902000275482e-01 5.358052199771456969e-01
3.168471390966929313e-01 6.482913532559422265e-01
3.178876879933583144e-01 6.987012368337133239e-01
3.189282368900236975e-01 6.693732853185707654e-01
3.199687857866890806e-01 6.491696546430389958e-01
3.210093346833544636e-01 8.764487215090248640e-01
3.220498835800198467e-01 8.275050338965357355e-01
3.230904324766852298e-01 7.359255630023895378e-01
3.241309813733506129e-01 8.559051147608727206e-01
3.251715302700159960e-01 7.167627906431697227e-01
3.262120791666813790e-01 7.168313178752150350e-01
3.272526280633467621e-01 9.614562424396986273e-01
3.282931769600121452e-01 8.719721655811341066e-01
3.293337258566775283e-01 7.438121018633339077e-01
3.303742747533429114e-01 7.319569094958637834e-01
3.314148236500082945e-01 5.794773404937956229e-01
3.324553725466736775e-01 7.424334200020012986e-01
3.334959214433390606e-01 6.163765508700720375e-01
3.345364703400044437e-01 3.913054735148904228e-01
3.355770192366698268e-01 5.063396546802536591e-01
3.366175681333352099e-01 3.872395069942093926e-01
3.376581170300005930e-01 3.773231989984964230e-01
3.386986659266659760e-01 5.535013823876759886e-01
3.397392148233313591e-01 5.054865597481601469e-01
3.407797637199967422e-01 6.126685429183282849e-01
3.418203126166621253e-01 5.228846757886884689e-01
3.428608615133275084e-01 5.669468462755027360e-01
3.439014104099928915e-01 6.879556118949459176e-01
3.449419593066582745e-01 4.908267757537068121e-01
3.459825082033236576e-01 3.362236982212820635e-01
3.470230570999890407e-01 5.344465154649711280e-01
3.480636059966544238e-01 4.606721349112916641e-01
3.491041548933198069e-01 4.181928990380967548e-01
3.501447037899851900e-01 4.364158884155671103e-01
3.511852526866505730e-01 2.927051987444926340e-01
3.522258015833159561e-01 1.928436989215533970e-01
3.532663504799813392e-01 2.959730936784126243e-01
3.543068993766467223e-01 4.852383537372517708e-01
3.553474482733121054e-01 4.490943217314118385e-01
3.563879971699774885e-01 5.000343118322270186e-01
3.574285460666428715e-01 4.486074297549151879e-01
3.584690949633082546e-01 5.522488984946143376e-01
3.595096438599736377e-01 6.197842548296819132e-01
3.605501927566390208e-01 5.985322418727001548e-01
3.615907416533044039e-01 4.645772478309027065e-01
3.626312905499697870e-01 2.787054141919576011e-01
3.636718394466351700e-01 2.057309358643877317e-01
3.647123883433005531e-01 2.664381512733342561e-01
3.657529372399659362e-01 4.774887504376330583e-01
3.667934861366313193e-01 4.665366263641423927e-01
3.678340350332967024e-01 7.608997516001281269e-01
3.688745839299620854e-01 6.859806079164307846e-01
3.699151328266274685e-01 6.017269720778379849e-01
3.709556817232928516e-01 6.024540532977695761e-01
3.719962306199582347e-01 6.042850348090489376e-01
3.730367795166236178e-01 5.481204464302216195e-01
3.740773284132890009e-01 4.928144364319457793e-01
3.751178773099543839e-01 4.794996812911236361e-01
3.761584262066197670e-01 6.189264754894630016e-01
3.771989751032851501e-01 5.873333592449299090e-01
3.782395239999505332e-01 4.873674585097340639e-01
3.792800728966159163e-01 6.341013649284654718e-01
3.803206217932812994e-01 5.793187584270462764e-01
3.813611706899466824e-01 6.868840877416424462e-01
3.824017195866120655e-01 7.439796071182058768e-01
3.834422684832774486e-01 6.727606854482779397e-01
3.844828173799428317e-01 5.231060286052944264e-01
3.855233662766082148e-01 6.078601214806589326e-01
3.865639151732735979e-01 6.993274744262372167e-01
3.876044640699389809e-01 5.043923441469893021e-01
3.886450129666043640e-01 6.750404736078472467e-01
3.896855618632697471e-01 7.476365657599970405e-01
3.907261107599351302e-01 5.233412999432616175e-01
3.917666596566005133e-01 8.197617581334597503e-01
3.928072085532658964e-01 1.049252936220476329e+00
3.938477574499312794e-01 8.507951049916364639e-01
3.948883063465966625e-01 6.083650475643871403e-01
3.959288552432620456e-01 7.350897558886089200e-01
3.969694041399274287e-01 7.319035859028204527e-01
3.980099530365928118e-01 6.295348561065488013e-01
3.990505019332581949e-01 5.325771563654981833e-01
4.000910508299235779e-01 5.471267551213543356e-01
4.011315997265889610e-01 7.146242328815901601e-01
4.021721486232543441e-01 5.366257256436988143e-01
4.032126975199197272e-01 5.163495569911020766e-01
4.042532464165851103e-01 4.943089225241337203e-01
4.052937953132504934e-01 5.094182369594619786e-01
4.063343442099158764e-01 6.171082057867280923e-01
4.073748931065812595e-01 5.200634231073877345e-01
4.084154420032466426e-01 6.991760785169134351e-01
4.094559908999120257e-01 8.924847022213846515e-01
4.104965397965774088e-01 7.626793978141179764e-01
4.115370886932427918e-01 4.796047056055030566e-01
4.125776375899081749e-01 4.902359343362086008e-01
4.136181864865735580e-01 1.632994653788166772e-01
4.146587353832389411e-01 3.858174409716212949e-01
4.156992842799043242e-01 5.976564642313952902e-01
4.167398331765697073e-01 4.609466432212840914e-01
4.177803820732350903e-01 6.019040795148136169e-01
4.188209309699004734e-01 7.188471438779551193e-01
4.198614798665658565e-01 5.785147794085183648e-01
4.209020287632312396e-01 6.433883767016084221e-01
4.219425776598966227e-01 5.454855399650604397e-01
4.229831265565620058e-01 4.450588935821464531e-01
4.240236754532273888e-01 4.725592628795922678e-01
4.250642243498927719e-01 2.641505754696389374e-01
4.261047732465581550e-01 0.000000000000000000e+00
4.271453221432235381e-01 1.602039478587933274e-01
4.281858710398889212e-01 3.447648831723775231e-01
4.292264199365543043e-01 5.452054957640690702e-01
4.302669688332196873e-01 6.775017511324357145e-01
4.313075177298850704e-01 5.492587968127509157e-01
4.323480666265504535e-01 3.969497595219451114e-01
4.333886155232158366e-01 3.642519321540795829e-01
4.344291644198812197e-01 3.702759265933615040e-01
