# q (1/Angstrom), Intensity (arb)
2.029070354705860696e-02 1.535830575676653552e+03
2.133125244372399004e-02 1.525893975842822556e+03
2.237180134038937659e-02 1.520631544821319721e+03
2.341235023705475968e-02 1.515062203907106095e+03
2.445289913372014276e-02 1.499451490859089290e+03
2.549344803038552584e-02 1.492899555809535059e+03
2.653399692705091240e-02 1.480519971267800429e+03
2.757454582371629548e-02 1.466513879594883292e+03
2.861509472038167856e-02 1.450670213476235631e+03
2.965564361704706164e-02 1.430199318802480775e+03
3.069619251371244473e-02 1.411746330674243609e+03
3.173674141037782781e-02 1.392429230985475897e+03
3.277729030704321089e-02 1.367668475588725414e+03
3.381783920370859398e-02 1.349404216177955959e+03
3.485838810037397706e-02 1.331392095141437721e+03
3.589893699703936014e-02 1.304944331528304247e+03
3.693948589370474322e-02 1.283131901155882815e+03
3.798003479037012631e-02 1.262573250139807897e+03
3.902058368703550939e-02 1.239280513936909074e+03
4.006113258370089247e-02 1.211363855391075049e+03
4.110168148036627556e-02 1.189525406196685708e+03
4.214223037703165864e-02 1.170163124323273223e+03
4.318277927369704866e-02 1.144953934134742667e+03
4.422332817036243174e-02 1.116581442734290931e+03
4.526387706702781483e-02 1.090694304829556131e+03
4.630442596369319791e-02 1.066224585120635993e+03
4.734497486035858099e-02 1.041455564388480525e+03
4.838552375702396408e-02 1.016460968780020153e+03
4.942607265368934716e-02 9.939159945751702026e+02
5.046662155035473024e-02 9.702921246151896639e+02
5.150717044702011332e-02 9.426452700258399773e+02
5.254771934368549641e-02 9.150739084357161346e+02
5.358826824035087949e-02 8.913909228847124950e+02
5.462881713701626257e-02 8.664838712001687782e+02
5.566936603368164566e-02 8.422341130384677399e+02
5.670991493034702874e-02 8.168385768298742278e+02
5.775046382701241182e-02 7.906722353914833548e+02
5.879101272367779490e-02 7.664257490429614563e+02
5.983156162034317799e-02 7.416104473907154215e+02
6.087211051700856107e-02 7.168465851813959944e+02
6.191265941367394415e-02 6.944751287570425120e+02
6.295320831033933417e-02 6.726674049189186917e+02
6.399375720700471726e-02 6.480753697645842522e+02
6.503430610367010034e-02 6.247003321656047774e+02
6.607485500033548342e-02 6.022558597499313464e+02
6.711540389700086651e-02 5.802064164047989152e+02
6.815595279366624959e-02 5.592182629594901755e+02
6.919650169033163267e-02 5.385516102905792195e+02
7.023705058699701576e-02 5.165889067634761886e+02
7.127759948366239884e-02 4.945760588541920129e+02
7.231814838032778192e-02 4.731922363217253178e+02
7.335869727699316500e-02 4.529380628340698536e+02
7.439924617365854809e-02 4.338300070871170533e+02
7.543979507032393117e-02 4.156213138068886792e+02
7.648034396698931425e-02 3.959747796575462644e+02
7.752089286365469734e-02 3.792747072715130230e+02
7.856144176032008042e-02 3.608895634034810769e+02
7.960199065698546350e-02 3.440844128726986924e+02
8.064253955365084658e-02 3.273640257683971413e+02
8.168308845031622967e-02 3.100686556976772295e+02
8.272363734698161275e-02 2.938024622936856076e+02
8.376418624364699583e-02 2.796372515299092356e+02
8.480473514031239279e-02 2.650142259549958226e+02
8.584528403697777588e-02 2.503075530180227304e+02
8.688583293364315896e-02 2.375370150413572787e+02
8.792638183030854204e-02 2.226784284177580844e+02
8.896693072697392513e-02 2.084758804744740530e+02
9.000747962363930821e-02 1.961585408431061524e+02
9.104802852030469129e-02 1.848386993855997389e+02
9.208857741697007437e-02 1.730760176961655361e+02
9.312912631363545746e-02 1.614272206450848444e+02
9.416967521030084054e-02 1.517486529033589022e+02
9.521022410696622362e-02 1.422086885752261196e+02
9.625077300363160671e-02 1.321466424173338794e+02
9.729132190029698979e-02 1.228628932017970641e+02
9.833187079696237287e-02 1.141379972658867104e+02
9.937241969362775595e-02 1.056316654578380962e+02
1.004129685902931390e-01 9.707803608668878326e+01
1.014535174869585221e-01 8.924772930196206744e+01
1.024940663836239052e-01 8.222720011974456611e+01
1.035346152802892883e-01 7.627185417411774893e+01
1.045751641769546714e-01 6.896499491008360394e+01
1.056157130736200545e-01 6.292397771606187007e+01
1.066562619702854375e-01 5.791925910084718510e+01
1.076968108669508206e-01 5.303371475080042785e+01
1.087373597636162037e-01 4.767560308637208522e+01
1.097779086602815868e-01 4.274834820981824635e+01
1.108184575569469699e-01 3.871668487326765273e+01
1.118590064536123529e-01 3.465547641401744272e+01
1.128995553502777360e-01 3.111593798902904240e+01
1.139401042469431191e-01 2.791930596668647979e+01
1.149806531436085022e-01 2.421247151111801443e+01
1.160212020402738853e-01 2.126546958794819275e+01
1.170617509369392684e-01 1.876162932532870897e+01
1.181022998336046514e-01 1.660027409743578630e+01
1.191428487302700345e-01 1.439927932786109466e+01
1.201833976269354176e-01 1.232755722375463492e+01
1.212239465236008007e-01 1.082624489958693204e+01
1.222644954202661838e-01 8.909942978910290634e+00
1.233050443169315669e-01 7.468578419137067215e+00
1.243455932135969499e-01 6.457175943248628869e+00
1.253861421102623330e-01 5.601284861240081625e+00
1.264266910069277161e-01 4.268738143116262762e+00
1.274672399035930992e-01 3.439641837550777126e+00
1.285077888002584823e-01 3.112349600687480233e+00
1.295483376969238654e-01 2.672949598185443421e+00
1.305888865935892484e-01 2.484315619257195351e+00
1.316294354902546315e-01 2.389633487363678199e+00
1.326699843869200146e-01 2.459503615874762517e+00
1.337105332835853977e-01 2.227197673259606603e+00
1.347510821802507808e-01 2.246075139010859090e+00
1.357916310769161639e-01 2.600953381109309959e+00
1.368321799735815469e-01 2.314902065884943738e+00
1.378727288702469300e-01 2.935415922668003219e+00
1.389132777669123131e-01 3.429019477442906805e+00
1.399538266635776962e-01 3.405807123913994872e+00
1.409943755602430793e-01 3.507795074242064715e+00
1.420349244569084624e-01 3.944820427267618612e+00
1.430754733535738454e-01 4.542790509872762783e+00
1.441160222502392285e-01 4.853196024968994493e+00
1.451565711469046116e-01 5.340834488931790247e+00
1.461971200435699947e-01 5.932235284211191839e+00
1.472376689402353778e-01 6.519238787053904360e+00
1.482782178369007609e-01 7.108061668464966232e+00
1.493187667335661439e-01 7.259969180158957869e+00
1.503593156302315270e-01 7.878635819048845690e+00
1.513998645268969101e-01 8.369316979554017877e+00
1.524404134235622932e-01 8.459200183505366510e+00
1.534809623202276763e-01 8.843542507937861785e+00
1.545215112168930593e-01 9.374078836241594104e+00
1.555620601135584424e-01 9.859276829359707506e+00
1.566026090102238255e-01 1.008295170593825674e+01
1.576431579068892086e-01 1.048870323861714127e+01
1.586837068035545917e-01 1.079177591594847740e+01
1.597242557002199748e-01 1.110181878164923930e+01
1.607648045968853578e-01 1.130390874257434675e+01
1.618053534935507409e-01 1.137322990863051331e+01
1.628459023902161240e-01 1.164706403517760336e+01
1.638864512868815071e-01 1.202627053827809434e+01
1.649270001835468902e-01 1.182853374805597468e+01
1.659675490802122733e-01 1.216995894583627802e+01
1.670080979768776563e-01 1.263588848706820755e+01
1.680486468735430672e-01 1.272697947845422917e+01
1.690891957702084503e-01 1.220686554959681303e+01
1.701297446668738333e-01 1.209322134263966575e+01
1.711702935635392164e-01 1.213568282068658277e+01
1.722108424602045995e-01 1.231879198993670244e+01
1.732513913568699826e-01 1.233373756449606162e+01
1.742919402535353657e-01 1.213421719054386472e+01
1.753324891502007488e-01 1.199980689694812241e+01
1.763730380468661318e-01 1.172657192679451299e+01
1.774135869435315149e-01 1.159962385799065387e+01
1.784541358401968980e-01 1.154034384138650893e+01
1.794946847368622811e-01 1.119971617586952917e+01
1.805352336335276642e-01 1.081691736802527970e+01
1.815757825301930473e-01 1.060780981072260687e+01
1.826163314268584303e-01 1.043134043550434953e+01
1.836568803235238134e-01 9.831304357406910555e+00
1.846974292201891965e-01 9.487438763673306852e+00
1.857379781168545796e-01 9.345010586464592706e+00
1.867785270135199627e-01 9.108824261388736687e+00
1.878190759101853458e-01 8.804769472228358040e+00
1.888596248068507288e-01 8.577620352137891757e+00
1.899001737035161119e-01 7.892938732811721536e+00
1.909407226001814950e-01 7.267673473340334311e+00
1.919812714968468781e-01 7.306560276103549967e+00
1.930218203935122612e-01 7.062671112273211094e+00
1.940623692901776443e-01 6.403785548040769271e+00
1.951029181868430273e-01 6.183938617473131671e+00
1.961434670835084104e-01 6.075562147544935954e+00
1.971840159801737935e-01 5.502414025268993925e+00
1.982245648768391766e-01 5.056179900409318861e+00
1.992651137735045597e-01 4.896151591455975449e+00
2.003056626701699428e-01 4.822874057437953610e+00
2.013462115668353813e-01 4.552301309912770932e+00
2.023867604635007644e-01 4.363373258293229640e+00
2.034273093601661475e-01 4.286377661277512630e+00
2.044678582568315306e-01 3.853036592068637134e+00
2.055084071534969137e-01 3.725609071246083204e+00
2.065489560501622968e-01 3.281071202205552595e+00
2.075895049468276798e-01 3.048796367400289142e+00
2.086300538434930629e-01 2.642334097484525302e+00
2.096706027401584460e-01 2.639581042661006904e+00
2.107111516368238291e-01 2.376657686880221831e+00
2.117517005334892122e-01 2.344255446047935010e+00
2.127922494301545953e-01 2.134257081376489396e+00
2.138327983268199783e-01 1.876857106382622931e+00
2.148733472234853614e-01 1.411601818078953130e+00
2.159138961201507445e-01 1.406339772695126555e+00
2.169544450168161276e-01 1.551476857734183312e+00
2.179949939134815107e-01 1.124461320464071434e+00
2.190355428101468938e-01 1.024383768305533238e+00
2.200760917068122768e-01 1.103686262555431341e+00
2.211166406034776599e-01 1.003237982417925167e+00
2.221571895001430430e-01 6.881551515315820211e-01
2.231977383968084261e-01 6.132343105896076452e-01
2.242382872934738092e-01 9.254626726776784551e-01
2.252788361901391923e-01 9.382836153211187025e-01
2.263193850868045753e-01 9.139347306054936837e-01
2.273599339834699584e-01 6.746372254509118704e-01
2.284004828801353415e-01 5.928409075329348354e-01
2.294410317768007246e-01 5.547782543628869689e-01
2.304815806734661077e-01 7.113388257788670899e-01
2.315221295701314908e-01 7.687608716917999629e-01
2.325626784667968738e-01 6.667453585740616973e-01
2.336032273634622569e-01 9.632932172529962145e-01
2.346437762601276400e-01 7.340269410316402343e-01
2.356843251567930231e-01 3.907142121868005802e-01
2.367248740534584062e-01 6.848906966946124442e-01
2.377654229501237892e-01 1.001452640169581798e+00
2.388059718467891723e-01 1.141023424484583160e+00
2.398465207434545554e-01 1.092576845599300128e+00
2.408870696401199385e-01 1.347113507616477079e+00
2.419276185367853216e-01 1.397252997335368008e+00
2.429681674334507047e-01 1.319469179876655573e+00
2.440087163301160877e-01 1.347378300028157838e+00
2.450492652267814708e-01 1.296699816781032411e+00
2.460898141234468539e-01 1.339023274279060871e+00
2.471303630201122370e-01 1.386914108647832933e+00
2.481709119167776201e-01 1.647204895827286464e+00
2.492114608134430032e-01 1.713909296309832797e+00
2.502520097101083585e-01 1.852066809342666431e+00
2.512925586067737416e-01 1.939226832762777519e+00
2.523331075034391247e-01 1.982244194883694632e+00
2.533736564001045077e-01 2.084749992784360018e+00
2.544142052967698908e-01 2.050794674916406990e+00
2.554547541934352739e-01 2.056236215471798801e+00
2.564953030901006570e-01 1.962763704518867058e+00
2.575358519867660401e-01 1.882459988398405670e+00
2.585764008834314231e-01 1.900825879479050684e+00
2.596169497800968062e-01 1.907591488377484268e+00
2.606574986767621893e-01 1.886629748080036251e+00
2.616980475734275724e-01 2.097946576175139910e+00
2.627385964700929555e-01 1.967604030278383931e+00
2.637791453667583386e-01 1.866369424658596898e+00
2.648196942634237216e-01 1.971765471512302526e+00
2.658602431600891047e-01 1.983625125171865733e+00
2.669007920567544878e-01 2.162612257553355732e+00
2.679413409534198709e-01 2.308179150718348893e+00
2.689818898500852540e-01 2.171182184621144984e+00
2.700224387467506371e-01 2.147703479840551211e+00
2.710629876434160201e-01 1.977193624833066821e+00
2.721035365400814032e-01 1.902433271930604519e+00
2.731440854367467863e-01 1.811206710450658619e+00
2.741846343334121694e-01 1.863115472773149150e+00
2.752251832300775525e-01 2.032764673923399101e+00
2.762657321267429356e-01 1.922870293415513743e+00
2.773062810234083186e-01 2.093307488105505598e+00
2.783468299200737017e-01 1.865773411829216855e+00
2.793873788167390848e-01 1.874256337837326925e+00
2.804279277134044679e-01 2.017722662539519263e+00
2.814684766100698510e-01 1.732886748519923970e+00
2.825090255067352341e-01 1.654363796133196729e+00
2.835495744034006171e-01 1.754053889441525627e+00
2.845901233000660002e-01 1.756471341444399314e+00
2.856306721967313833e-01 1.520829974421079811e+00
2.866712210933967664e-01 1.371904640967571254e+00
2.877117699900621495e-01 1.474874106251416350e+00
2.887523188867275326e-01 1.339672071429639288e+00
2.897928677833929156e-01 1.192744156880003459e+00
2.908334166800582987e-01 1.229361979991459464e+00
2.918739655767236818e-01 1.372441756867175400e+00
2.929145144733890649e-01 1.325853555490557056e+00
2.939550633700544480e-01 1.075195442315852290e+00
2.949956122667198311e-01 9.354481852510261319e-01
2.960361611633852141e-01 1.055498939253016744e+00
2.970767100600505972e-01 8.406090917294157805e-01
2.981172589567159803e-01 8.820414422438709323e-01
2.991578078533813634e-01 9.382211427881230748e-01
3.001983567500468020e-01 9.397372165795445653e-01
3.012389056467121851e-01 8.854349364472930972e-01
3.022794545433775681e-01 9.705869733229839369e-01
3.033200034400429512e-01 7.774316195090378301e-01
3.043605523367083343e-01 5.422614122536657533e-01
3.054011012333737174e-01 4.807052900622643676e-01
3.064416501300391005e-01 6.049274035763865243e-01
3.074821990267044836e-01 6.941484543214855307e-01
3.085227479233698666e-01 6.918640858333056087e-01
3.095632968200352497e-01 5.223812076338738564e-01
3.106038457167006328e-01 6.912394925643461363e-01
3.116443946133660159e-01 8.108246956052553855e-01
3.126849435100313990e-01 4.553009592361370039e-01
3.137254924066967821e-01 4.119496575958336848e-01
3.147660413033621651e-01 4.762738557933730021e-01
3.158065902000275482e-01 3.850868816643959747e-01
3.168471390966929313e-01 5.424111284920734022e-01
3.178876879933583144e-01 2.398662632568075992e-01
3.189282368900236975e-01 6.507707471722667947e-02
3.199687857866890806e-01 3.069380199685127764e-01
3.210093346833544636e-01 4.022980022560211921e-01
3.220498835800198467e-01 2.125661023845033526e-01
3.230904324766852298e-01 1.707695846136090267e-01
3.241309813733506129e-01 3.809100266188067963e-01
3.251715302700159960e-01 3.152021478753752604e-01
3.262120791666813790e-01 3.552531933525102659e-01
3.272526280633467621e-01 4.780983893563579556e-01
3.282931769600121452e-01 4.358449775525699010e-01
3.293337258566775283e-01 3.541370863226127597e-01
3.303742747533429114e-01 5.158502984944242087e-01
3.314148236500082945e-01 5.783021131406833604e-01
3.324553725466736775e-01 4.695755743069369714e-01
3.334959214433390606e-01 4.427797755184990081e-01
3.345364703400044437e-01 6.044207824331309098e-01
3.355770192366698268e-01 7.606259489344964209e-01
3.366175681333352099e-01 6.062906808125596569e-01
3.376581170300005930e-01 6.419332943121567325e-01
3.386986659266659760e-01 5.876073591567667620e-01
3.397392148233313591e-01 6.603600602430326205e-01
3.407797637199967422e-01 7.439023708206917718e-01
3.418203126166621253e-01 5.871493694732841107e-01
3.428608615133275084e-01 3.629049654201423891e-01
3.439014104099928915e-01 3.349542372635347931e-01
3.449419593066582745e-01 5.168839551090194107e-01
3.459825082033236576e-01 5.628887096276997681e-01
3.470230570999890407e-01 6.947111464546260606e-01
3.480636059966544238e-01 8.008748090579942414e-01
3.491041548933198069e-01 8.050435525922203794e-01
3.501447037899851900e-01 8.736152250309636713e-01
3.511852526866505730e-01 9.168590588460183710e-01
3.522258015833159561e-01 8.348871246304696569e-01
3.532663504799813392e-01 5.299104413127260216e-01
3.543068993766467223e-01 5.409515446815973405e-01
3.553474482733121054e-01 6.601090237993822996e-01
3.563879971699774885e-01 6.724726238810987411e-01
3.574285460666428715e-01 6.425095707497128217e-01
3.584690949633082546e-01 6.508788030425591842e-01
3.595096438599736377e-01 9.040118702375217197e-01
3.605501927566390208e-01 6.919549143197016861e-01
3.615907416533044039e-01 6.658541399147068773e-01
3.626312905499697870e-01 6.250482452521772814e-01
3.636718394466351700e-01 6.412484512722684826e-01
3.647123883433005531e-01 8.884533071198923437e-01
3.657529372399659362e-01 8.446765024882516570e-01
3.667934861366313193e-01 6.820888094849912875e-01
3.678340350332967024e-01 5.876230540145392922e-01
3.688745839299620854e-01 6.805248265391803386e-01
3.699151328266274685e-01 8.845968654296285649e-01
3.709556817232928516e-01 6.275575137607489751e-01
3.719962306199582347e-01 4.562311145810475921e-01
3.730367795166236178e-01 6.508115321503709083e-01
3.740773284132890009e-01 6.264084696658329676e-01
3.751178773099543839e-01 5.801928667544835605e-01
3.761584262066197670e-01 4.462693816755987086e-01
3.771989751032851501e-01 5.065943493856011060e-01
3.782395239999505332e-01 6.711079154695873683e-01
3.792800728966159163e-01 5.849767039633597676e-01
3.803206217932812994e-01 6.475423656249397197e-01
3.813611706899466824e-01 4.597692363446945762e-01
3.824017195866120655e-01 4.151456566016591410e-01
3.834422684832774486e-01 3.414863031817461092e-01
3.844828173799428317e-01 6.104535558474708523e-01
3.855233662766082148e-01 6.537538213839226842e-01
3.865639151732735979e-01 5.781359553048091016e-01
3.876044640699389809e-01 6.160502287093656548e-01
3.886450129666043640e-01 5.035824584734029941e-01
3.896855618632697471e-01 3.457043238786603467e-01
3.907261107599351302e-01 2.925017869480122101e-01
3.917666596566005133e-01 4.445338322053906666e-01
3.928072085532658964e-01 6.159636767836467186e-01
3.938477574499312794e-01 5.195849906813414520e-01
3.948883063465966625e-01 3.115333588038531332e-01
3.959288552432620456e-01 4.662235734106374707e-01
3.969694041399274287e-01 3.325509404579847228e-01
3.980099530365928118e-01 5.101773427491274049e-01
3.990505019332581949e-01 7.007463051134479315e-01
4.000910508299235779e-01 5.468258735117146330e-01
4.011315997265889610e-01 4.960193033490192249e-01
4.021721486232543441e-01 3.821463669414306707e-01
4.032126975199197272e-01 4.319458159919484785e-01
4.042532464165851103e-01 5.577397245077584387e-01
4.052937953132504934e-01 4.062854508142343946e-01
4.063343442099158764e-01 4.501839343888534017e-01
4.073748931065812595e-01 3.574470737223549577e-01
4.084154420032466426e-01 3.292129792243940756e-01
4.094559908999120257e-01 3.215475517854180509e-01
4.104965397965774088e-01 4.392745036884093679e-01
4.115370886932427918e-01 2.025691837449592470e-01
4.125776375899081749e-01 1.839868665715336249e-01
4.136181864865735580e-01 1.148990261081941355e-01
4.146587353832389411e-01 2.320550814131614459e-01
4.156992842799043242e-01 4.620517598891424882e-01
4.167398331765697073e-01 3.741708874014442188e-01
4.177803820732350903e-01 2.068065601352770955e-01
4.188209309699004734e-01 2.612542860973903203e-01
4.198614798665658565e-01 3.256992055815608467e-01
4.209020287632312396e-01 1.470642446570877837e-01
4.219425776598966227e-01 3.436763834449969579e-01
4.229831265565620058e-01 3.544771695481649942e-01
4.240236754532273888e-01 1.964457480651269350e-01
4.250642243498927719e-01 2.051357351437737009e-01
4.261047732465581550e-01 2.992908204662221294e-01
4.271453221432235381e-01 3.709162574147057967e-01
4.281858710398889212e-01 3.557242735393444377e-01
4.292264199365543043e-01 1.820790213091427745e-01
4.302669688332196873e-01 3.088582599008944385e-01
4.313075177298850704e-01 5.027090208986031428e-01
4.323480666265504535e-01 5.553846882051978184e-01
4.333886155232158366e-01 3.792722182883316862e-01
4.344291644198812197e-01 2.931387962956364390e-01
