# q (1/Angstrom), Intensity (arb)
2.029070354705860696e-02 1.512169084336429933e+03
2.133125244372399004e-02 1.511862148666527219e+03
2.237180134038937659e-02 1.512159519700905093e+03
2.341235023705475968e-02 1.504625751787275249e+03
2.445289913372014276e-02 1.494039671920896353e+03
2.549344803038552584e-02 1.477880103046654085e+03
2.653399692705091240e-02 1.462020501646576349e+03
2.757454582371629548e-02 1.447247092202913791e+03
2.861509472038167856e-02 1.427516153444256361e+03
2.965564361704706164e-02 1.414314537414902361e+03
3.069619251371244473e-02 1.393503206497829979e+03
3.173674141037782781e-02 1.377191874345821134e+03
3.277729030704321089e-02 1.356761365368129873e+03
3.381783920370859398e-02 1.333581818201052101e+03
3.485838810037397706e-02 1.314287477619505580e+03
3.589893699703936014e-02 1.293918420373674280e+03
3.693948589370474322e-02 1.268662676999016867e+03
3.798003479037012631e-02 1.244043798587986430e+03
3.902058368703550939e-02 1.221644505827790908e+03
4.006113258370089247e-02 1.201809285858374551e+03
4.110168148036627556e-02 1.178863985972062437e+03
4.214223037703165864e-02 1.159490045192409070e+03
4.318277927369704866e-02 1.134799752946733861e+03
4.422332817036243174e-02 1.107673422874717971e+03
4.526387706702781483e-02 1.082758493179451079e+03
4.630442596369319791e-02 1.056746825747745788e+03
4.734497486035858099e-02 1.034245624994121499e+03
4.838552375702396408e-02 1.006891148447319438e+03
4.942607265368934716e-02 9.811790762037215927e+02
5.046662155035473024e-02 9.554210095718143521e+02
5.150717044702011332e-02 9.263779302810488616e+02
5.254771934368549641e-02 9.036404117203837814e+02
5.358826824035087949e-02 8.851152162607132823e+02
5.462881713701626257e-02 8.593272450651061263e+02
5.566936603368164566e-02 8.328270981684622711e+02
5.670991493034702874e-02 8.073493543932593184e+02
5.775046382701241182e-02 7.827875463199412707e+02
5.879101272367779490e-02 7.569128222522488159e+02
5.983156162034317799e-02 7.321660063032067001e+02
6.087211051700856107e-02 7.093654285765918530e+02
6.191265941367394415e-02 6.858365797978761975e+02
6.295320831033933417e-02 6.642359407389523085e+02
6.399375720700471726e-02 6.411702361850869920e+02
6.503430610367010034e-02 6.174819202816091774e+02
6.607485500033548342e-02 5.945965799508230702e+02
6.711540389700086651e-02 5.728656416523358530e+02
6.815595279366624959e-02 5.534316689377207013e+02
6.919650169033163267e-02 5.309831655509367465e+02
7.023705058699701576e-02 5.109643263499153818e+02
7.127759948366239884e-02 4.911656145989559263e+02
7.231814838032778192e-02 4.708841282409597397e+02
7.335869727699316500e-02 4.493293206460069769e+02
7.439924617365854809e-02 4.293980923005733530e+02
7.543979507032393117e-02 4.086594751785045787e+02
7.648034396698931425e-02 3.897317729785693246e+02
7.752089286365469734e-02 3.719010642097116488e+02
7.856144176032008042e-02 3.539002837526975327e+02
7.960199065698546350e-02 3.379409768664289686e+02
8.064253955365084658e-02 3.228546971957014193e+02
8.168308845031622967e-02 3.076860514668542805e+02
8.272363734698161275e-02 2.911083477811791909e+02
8.376418624364699583e-02 2.756100017282579415e+02
8.480473514031239279e-02 2.611003038525256557e+02
8.584528403697777588e-02 2.473388047432891312e+02
8.688583293364315896e-02 2.328874370524274298e+02
8.792638183030854204e-02 2.192216091939249623e+02
8.896693072697392513e-02 2.064774196388249266e+02
9.000747962363930821e-02 1.943702577605779709e+02
9.104802852030469129e-02 1.823314763546503343e+02
9.208857741697007437e-02 1.719672375463415790e+02
9.312912631363545746e-02 1.606860026948177733e+02
9.416967521030084054e-02 1.494531433496249520e+02
9.521022410696622362e-02 1.395249508107264944e+02
9.625077300363160671e-02 1.302026639376770447e+02
9.729132190029698979e-02 1.213045621186153937e+02
9.833187079696237287e-02 1.119788193725145504e+02
9.937241969362775595e-02 1.042734464236340557e+02
1.004129685902931390e-01 9.646178181666843443e+01
1.014535174869585221e-01 8.804289696791796871e+01
1.024940663836239052e-01 8.146390809162177504e+01
1.035346152802892883e-01 7.498898542608074536e+01
1.045751641769546714e-01 6.847139013333540447e+01
1.056157130736200545e-01 6.338766049423934135e+01
1.066562619702854375e-01 5.740097589145972279e+01
1.076968108669508206e-01 5.180724225678717687e+01
1.087373597636162037e-01 4.673084882351041358e+01
1.097779086602815868e-01 4.278242253558236996e+01
1.108184575569469699e-01 3.802873714425609109e+01
1.118590064536123529e-01 3.384315002969053410e+01
1.128995553502777360e-01 2.976391188412959110e+01
1.139401042469431191e-01 2.642341454259662115e+01
1.149806531436085022e-01 2.364721730284390588e+01
1.160212020402738853e-01 2.105092308747139285e+01
1.170617509369392684e-01 1.887091403034310844e+01
1.181022998336046514e-01 1.666205031622029509e+01
1.191428487302700345e-01 1.418343780233276519e+01
1.201833976269354176e-01 1.237981035372645877e+01
1.212239465236008007e-01 1.089319570156590444e+01
1.222644954202661838e-01 9.219998160193654257e+00
1.233050443169315669e-01 7.852931010011555912e+00
1.243455932135969499e-01 6.817330241708152272e+00
1.253861421102623330e-01 5.806758940990338402e+00
1.264266910069277161e-01 4.889396994055811518e+00
1.274672399035930992e-01 4.015781600962686326e+00
1.285077888002584823e-01 3.195629446241152749e+00
1.295483376969238654e-01 2.620123559412050440e+00
1.305888865935892484e-01 2.582844123632067834e+00
1.316294354902546315e-01 2.247411726893577821e+00
1.326699843869200146e-01 2.168070047134026623e+00
1.337105332835853977e-01 2.316150519955570530e+00
1.347510821802507808e-01 2.283947506333888100e+00
1.357916310769161639e-01 2.538637241419898771e+00
1.368321799735815469e-01 2.398599133507737236e+00
1.378727288702469300e-01 3.002284095861913471e+00
1.389132777669123131e-01 3.232919358947643929e+00
1.399538266635776962e-01 3.616494868781831684e+00
1.409943755602430793e-01 3.814365692319622525e+00
1.420349244569084624e-01 4.233580447585609363e+00
1.430754733535738454e-01 4.924107560081480983e+00
1.441160222502392285e-01 5.226589515368001315e+00
1.451565711469046116e-01 5.393449150307141338e+00
1.461971200435699947e-01 6.022221583572342496e+00
1.472376689402353778e-01 6.526777271220478127e+00
1.482782178369007609e-01 6.991758935567933264e+00
1.493187667335661439e-01 7.205895885276316193e+00
1.503593156302315270e-01 7.950937934045626321e+00
1.513998645268969101e-01 8.121332096042959137e+00
1.524404134235622932e-01 8.674130719595549266e+00
1.534809623202276763e-01 9.304036010835439185e+00
1.545215112168930593e-01 9.774337379967462880e+00
1.555620601135584424e-01 1.015484638140300078e+01
1.566026090102238255e-01 1.066325622006603524e+01
1.576431579068892086e-01 1.075577127096346786e+01
1.586837068035545917e-01 1.073902996923941799e+01
1.597242557002199748e-01 1.114278587848449931e+01
1.607648045968853578e-01 1.165109974603154797e+01
1.618053534935507409e-01 1.169229813559364572e+01
1.628459023902161240e-01 1.147658665210893858e+01
1.638864512868815071e-01 1.187910585396997476e+01
1.649270001835468902e-01 1.215690577720742738e+01
1.659675490802122733e-01 1.208154799193654227e+01
1.670080979768776563e-01 1.190825823261822691e+01
1.680486468735430672e-01 1.214290063331788971e+01
1.690891957702084503e-01 1.223571371746351844e+01
1.701297446668738333e-01 1.217831132906249891e+01
1.711702935635392164e-01 1.247885211704155140e+01
1.722108424602045995e-01 1.247147131063747594e+01
1.732513913568699826e-01 1.213239587382762252e+01
1.742919402535353657e-01 1.222988132382510074e+01
1.753324891502007488e-01 1.204711266601837849e+01
1.763730380468661318e-01 1.178607549555084333e+01
1.774135869435315149e-01 1.141458593027839896e+01
1.784541358401968980e-01 1.128131171971552860e+01
1.794946847368622811e-01 1.098794396757665837e+01
1.805352336335276642e-01 1.087461319669025173e+01
1.815757825301930473e-01 1.098436512968487833e+01
1.826163314268584303e-01 1.057749996744230003e+01
1.836568803235238134e-01 9.905983190464887400e+00
1.846974292201891965e-01 9.637891160170003246e+00
1.857379781168545796e-01 9.435113198177791816e+00
1.867785270135199627e-01 8.873807761603810462e+00
1.878190759101853458e-01 8.572448915772529432e+00
1.888596248068507288e-01 8.389877339898657027e+00
1.899001737035161119e-01 8.246058751484337535e+00
1.909407226001814950e-01 8.244489651280314746e+00
1.919812714968468781e-01 7.651864630281689728e+00
1.930218203935122612e-01 6.988476771594811510e+00
1.940623692901776443e-01 6.638948850842126603e+00
1.951029181868430273e-01 6.535460328205044078e+00
1.961434670835084104e-01 5.993624400287941967e+00
1.971840159801737935e-01 5.626585000789301461e+00
1.982245648768391766e-01 5.551079424687319630e+00
1.992651137735045597e-01 5.083380818441657567e+00
2.003056626701699428e-01 4.809777693043749025e+00
2.013462115668353813e-01 4.877903623715390324e+00
2.023867604635007644e-01 4.689299958056903250e+00
2.034273093601661475e-01 4.254954799666855081e+00
2.044678582568315306e-01 3.593357130039123604e+00
2.055084071534969137e-01 3.453477169358055932e+00
2.065489560501622968e-01 3.305016316249957953e+00
2.075895049468276798e-01 3.146088336642382188e+00
2.086300538434930629e-01 2.910008075699249019e+00
2.096706027401584460e-01 2.655236068726992471e+00
2.107111516368238291e-01 2.220769435753656040e+00
2.117517005334892122e-01 1.919056081261423685e+00
2.127922494301545953e-01 1.899190473719034600e+00
2.138327983268199783e-01 1.747878530874640290e+00
2.148733472234853614e-01 1.679833957909917075e+00
2.159138961201507445e-01 1.281086674669992931e+00
2.169544450168161276e-01 1.378834104989511644e+00
2.179949939134815107e-01 1.302918107581231055e+00
2.190355428101468938e-01 1.136303395424469898e+00
2.200760917068122768e-01 1.056217244120805532e+00
2.211166406034776599e-01 8.134794928935811242e-01
2.221571895001430430e-01 7.089602939170447371e-01
2.231977383968084261e-01 5.623048642856929291e-01
2.242382872934738092e-01 7.528818450022924935e-01
2.252788361901391923e-01 7.607068988655214525e-01
2.263193850868045753e-01 1.039011407703878120e+00
2.273599339834699584e-01 9.373541350851404275e-01
2.284004828801353415e-01 6.239565787804295383e-01
2.294410317768007246e-01 5.211517682182673639e-01
2.304815806734661077e-01 6.244497431136935006e-01
2.315221295701314908e-01 6.200211488987577013e-01
2.325626784667968738e-01 7.047346669974388078e-01
2.336032273634622569e-01 6.539785268730611278e-01
2.346437762601276400e-01 5.003963600888887697e-01
2.356843251567930231e-01 7.123021369946549441e-01
2.367248740534584062e-01 7.757170770235397583e-01
2.377654229501237892e-01 9.502485518703736034e-01
2.388059718467891723e-01 1.012255474477154138e+00
2.398465207434545554e-01 1.248919026018807443e+00
2.408870696401199385e-01 1.120611185482488281e+00
2.419276185367853216e-01 1.234565833833947579e+00
2.429681674334507047e-01 1.343979737832381005e+00
2.440087163301160877e-01 1.276975144916963956e+00
2.450492652267814708e-01 1.429393944199262023e+00
2.460898141234468539e-01 1.611156481448233535e+00
2.471303630201122370e-01 1.648588684568544238e+00
2.481709119167776201e-01 1.774152772804459488e+00
2.492114608134430032e-01 1.746403320520311553e+00
2.502520097101083585e-01 1.752529851992161269e+00
2.512925586067737416e-01 1.865712570914993762e+00
2.523331075034391247e-01 1.765593164207221122e+00
2.533736564001045077e-01 1.804618502200984409e+00
2.544142052967698908e-01 1.757470194133073704e+00
2.554547541934352739e-01 1.862619966793445769e+00
2.564953030901006570e-01 2.207851456242487131e+00
2.575358519867660401e-01 2.088619408996265747e+00
2.585764008834314231e-01 1.930918998757817917e+00
2.596169497800968062e-01 2.014249870380027119e+00
2.606574986767621893e-01 2.202145640855889042e+00
2.616980475734275724e-01 2.518133489650161039e+00
2.627385964700929555e-01 2.331740262603908320e+00
2.637791453667583386e-01 2.140505663958862215e+00
2.648196942634237216e-01 2.259310891379499253e+00
2.658602431600891047e-01 2.245616309319949266e+00
2.669007920567544878e-01 2.199125594697598274e+00
2.679413409534198709e-01 2.054728877498614992e+00
2.689818898500852540e-01 1.789835202308534434e+00
2.700224387467506371e-01 1.859516695050118074e+00
2.710629876434160201e-01 2.082321970696124680e+00
2.721035365400814032e-01 1.928260907686954795e+00
2.731440854367467863e-01 2.130568928655087291e+00
2.741846343334121694e-01 2.217005848507202614e+00
2.752251832300775525e-01 1.967522177629536628e+00
2.762657321267429356e-01 2.063087864680078098e+00
2.773062810234083186e-01 1.911710688029245375e+00
2.783468299200737017e-01 1.813084553024257417e+00
2.793873788167390848e-01 1.762207713557966571e+00
2.804279277134044679e-01 1.912655831861382438e+00
2.814684766100698510e-01 1.852284265559148935e+00
2.825090255067352341e-01 1.877726874509264121e+00
2.835495744034006171e-01 1.689970525221806241e+00
2.845901233000660002e-01 1.504890118746377681e+00
2.856306721967313833e-01 1.403040457222218151e+00
2.866712210933967664e-01 1.409169798929603701e+00
2.877117699900621495e-01 1.541882587570793106e+00
2.887523188867275326e-01 1.293643419916229220e+00
2.897928677833929156e-01 1.227085840422706298e+00
2.908334166800582987e-01 1.385063424140302146e+00
2.918739655767236818e-01 1.329485809459779233e+00
2.929145144733890649e-01 1.226509848251762236e+00
2.939550633700544480e-01 1.217773431914778826e+00
2.949956122667198311e-01 1.033977031422235626e+00
2.960361611633852141e-01 1.082697843039142072e+00
2.970767100600505972e-01 8.907215016568308386e-01
2.981172589567159803e-01 8.325136582304679678e-01
2.991578078533813634e-01 7.483529979472827165e-01
3.001983567500468020e-01 6.444791769024220685e-01
3.012389056467121851e-01 9.010443887252179707e-01
3.022794545433775681e-01 7.945443956521813789e-01
3.033200034400429512e-01 5.007573689557176522e-01
3.043605523367083343e-01 5.933636312976346971e-01
3.054011012333737174e-01 7.677332406699832745e-01
3.064416501300391005e-01 6.808642451328772438e-01
3.074821990267044836e-01 5.213208729920104645e-01
3.085227479233698666e-01 6.220880653861478038e-01
3.095632968200352497e-01 6.867445199160577829e-01
3.106038457167006328e-01 5.223559427752029194e-01
3.116443946133660159e-01 4.907104179786472287e-01
3.126849435100313990e-01 6.169201599603368891e-01
3.137254924066967821e-01 8.435985426224803518e-01
3.147660413033621651e-01 8.335257867930323528e-01
3.158065902000275482e-01 6.351567256558325880e-01
3.168471390966929313e-01 5.439672335714860196e-01
3.178876879933583144e-01 3.446429582568804051e-01
3.189282368900236975e-01 5.192298516841518108e-01
3.199687857866890806e-01 4.940717514999377613e-01
3.210093346833544636e-01 4.905508967916780705e-01
3.220498835800198467e-01 2.959453165550556264e-01
3.230904324766852298e-01 4.046473421174674456e-01
3.241309813733506129e-01 3.444692874702468544e-01
3.251715302700159960e-01 5.660598621744910020e-01
3.262120791666813790e-01 5.522985025657511926e-01
3.272526280633467621e-01 4.054870560185115380e-01
3.282931769600121452e-01 6.267159145923599795e-01
3.293337258566775283e-01 6.448203015287639062e-01
3.303742747533429114e-01 5.012617313807012920e-01
3.314148236500082945e-01 2.418741569009839054e-01
3.324553725466736775e-01 2.861836798939449977e-01
3.334959214433390606e-01 4.988654370619585166e-01
3.345364703400044437e-01 4.562811489550924193e-01
3.355770192366698268e-01 3.805180668505840913e-01
3.366175681333352099e-01 3.442035163319552282e-01
3.376581170300005930e-01 6.292271899660519807e-01
3.386986659266659760e-01 6.412461473025246050e-01
3.397392148233313591e-01 6.700954240272629647e-01
3.407797637199967422e-01 6.018194057626793381e-01
3.418203126166621253e-01 5.996792695228840842e-01
3.428608615133275084e-01 5.487211009599661793e-01
3.439014104099928915e-01 5.867324568958416364e-01
3.449419593066582745e-01 5.274398456221724985e-01
3.459825082033236576e-01 5.670271364220269561e-01
3.470230570999890407e-01 7.348870315213176241e-01
3.480636059966544238e-01 6.411724878374052139e-01
3.491041548933198069e-01 5.933647887217787797e-01
3.501447037899851900e-01 6.709647613014588785e-01
3.511852526866505730e-01 5.898281511268947952e-01
3.522258015833159561e-01 5.422128631723239778e-01
3.532663504799813392e-01 6.379885542333738613e-01
3.543068993766467223e-01 7.012707662583856916e-01
3.553474482733121054e-01 6.581659638142625113e-01
3.563879971699774885e-01 6.967716456965433736e-01
3.574285460666428715e-01 4.156054594013340875e-01
3.584690949633082546e-01 7.436231390085410453e-01
3.595096438599736377e-01 7.200591340272595176e-01
3.605501927566390208e-01 7.147725224736305449e-01
3.615907416533044039e-01 8.317343607584142262e-01
3.626312905499697870e-01 6.730749999836049824e-01
3.636718394466351700e-01 8.046163110497772664e-01
3.647123883433005531e-01 8.103816201530946728e-01
3.657529372399659362e-01 6.089912971881119574e-01
3.667934861366313193e-01 4.241738044666760743e-01
3.678340350332967024e-01 5.174189359170391356e-01
3.688745839299620854e-01 4.053873977591990752e-01
3.699151328266274685e-01 2.352153924365687487e-01
3.709556817232928516e-01 4.531853202448132834e-01
3.719962306199582347e-01 4.878009523927460123e-01
3.730367795166236178e-01 7.746529598782423420e-01
3.740773284132890009e-01 6.314598230428849490e-01
3.751178773099543839e-01 6.410756513538089507e-01
3.761584262066197670e-01 8.997454595068354877e-01
3.771989751032851501e-01 7.876862525378172109e-01
3.782395239999505332e-01 6.839033527802165224e-01
3.792800728966159163e-01 6.664751702523368238e-01
3.803206217932812994e-01 7.012964083449766406e-01
3.813611706899466824e-01 5.810273718312188862e-01
3.824017195866120655e-01 4.434201336664216342e-01
3.834422684832774486e-01 4.387526935140186879e-01
3.844828173799428317e-01 5.248302915614964093e-01
3.855233662766082148e-01 4.484436328865584187e-01
3.865639151732735979e-01 4.380121361552902215e-01
3.876044640699389809e-01 5.934295264901408018e-01
3.886450129666043640e-01 6.065182765447687530e-01
3.896855618632697471e-01 4.755275264073155483e-01
3.907261107599351302e-01 4.588314019121995102e-01
3.917666596566005133e-01 5.415066392083076607e-01
3.928072085532658964e-01 5.759711880793112471e-01
3.938477574499312794e-01 4.377026277485782657e-01
3.948883063465966625e-01 3.172675685310331062e-01
3.959288552432620456e-01 3.917471160474654823e-01
3.969694041399274287e-01 3.080639659133019848e-01
3.980099530365928118e-01 5.292826430844641550e-01
3.990505019332581949e-01 4.897383072082490685e-01
4.000910508299235779e-01 6.750072679571523793e-01
4.011315997265889610e-01 6.803937745197110587e-01
4.021721486232543441e-01 4.678228959469699078e-01
4.032126975199197272e-01 4.617925494342607351e-01
4.042532464165851103e-01 5.409673486360624395e-01
4.052937953132504934e-01 5.867114263725348167e-01
4.063343442099158764e-01 3.677963858102692996e-01
4.073748931065812595e-01 3.407169417783606491e-01
4.084154420032466426e-01 3.623039086288386557e-01
4.094559908999120257e-01 1.497218086164338047e-01
4.104965397965774088e-01 2.017405741703193200e-01
4.115370886932427918e-01 3.573381996156719254e-01
4.125776375899081749e-01 2.738443234062444276e-01
4.136181864865735580e-01 3.270484464162102256e-01
4.146587353832389411e-01 3.267224175881864312e-01
4.156992842799043242e-01 2.417564980228590343e-01
4.167398331765697073e-01 4.507708641022780682e-01
4.177803820732350903e-01 5.955068455850813791e-01
4.188209309699004734e-01 6.077605065590994116e-01
4.198614798665658565e-01 5.270298575447789347e-01
4.209020287632312396e-01 4.027758887908738927e-01
4.219425776598966227e-01 3.934648191008349727e-01
4.229831265565620058e-01 2.607192530704445232e-01
4.240236754532273888e-01 2.118473832748684060e-01
4.250642243498927719e-01 4.032342984956827081e-01
4.261047732465581550e-01 3.793110913668122919e-01
4.271453221432235381e-01 3.319757182640437065e-01
4.281858710398889212e-01 3.044182801693509077e-01
4.292264199365543043e-01 3.373712148354428564e-01
4.302669688332196873e-01 5.054473687862568454e-01
4.313075177298850704e-01 4.528343618603258847e-01
4.323480666265504535e-01 1.826248646607808723e-01
4.333886155232158366e-01 2.425962687646112670e-01
4.344291644198812197e-01 2.948983904760424934e-01
