# q (1/Angstrom), Intensity (arb)
3.063590265382597211e-02 7.601662103705207585e+01
3.167440782643154290e-02 7.550414241628173784e+01
3.271291299903710675e-02 7.526249944337276077e+01
3.375141817164267755e-02 7.494641175290934143e+01
3.478992334424824834e-02 7.485584411984436315e+01
3.582842851685381913e-02 7.420571865567322334e+01
3.686693368945938992e-02 7.366714946632845340e+01
3.790543886206496071e-02 7.321807674940966137e+01
3.894394403467052457e-02 7.299882691067304563e+01
3.998244920727608842e-02 7.249543389418739991e+01
4.102095437988165921e-02 7.177159413758536743e+01
4.205945955248723001e-02 7.116539185160058878e+01
4.309796472509280080e-02 7.062368976210419191e+01
4.413646989769837159e-02 6.979803772443226251e+01
4.517497507030393544e-02 6.905493924381853788e+01
4.621348024290949930e-02 6.842471372118305339e+01
4.725198541551507009e-02 6.757877865499284553e+01
4.829049058812064088e-02 6.705951649601962572e+01
4.932899576072621167e-02 6.640558497483263523e+01
5.036750093333178246e-02 6.583199778047963946e+01
5.140600610593734632e-02 6.493643099894393345e+01
5.244451127854291711e-02 6.407088742628032207e+01
5.348301645114848096e-02 6.361791438066731530e+01
5.452152162375405869e-02 6.276456160323421329e+01
5.556002679635962255e-02 6.167240859901797023e+01
5.659853196896519334e-02 6.108892643005990664e+01
5.763703714157075719e-02 6.034900809435307423e+01
5.867554231417632105e-02 5.976133478319638925e+01
5.971404748678189878e-02 5.910061985661150175e+01
6.075255265938746263e-02 5.813479780916785700e+01
6.179105783199304036e-02 5.733132413065550992e+01
6.282956300459860421e-02 5.606737328388713593e+01
6.386806817720418195e-02 5.515026239303958278e+01
6.490657334980974580e-02 5.417473796884426207e+01
6.594507852241530965e-02 5.328877273269836934e+01
6.698358369502087351e-02 5.255250543785065531e+01
6.802208886762643736e-02 5.209900553400170509e+01
6.906059404023201509e-02 5.129869380137934343e+01
7.009909921283757894e-02 5.031909955949913638e+01
7.113760438544315667e-02 4.974829201330827999e+01
7.217610955804872053e-02 4.885742067198846428e+01
7.321461473065429826e-02 4.794888914463340512e+01
7.425311990325986211e-02 4.714018801219303612e+01
7.529162507586543984e-02 4.622510675050358486e+01
7.633013024847100370e-02 4.533586821226046482e+01
7.736863542107656755e-02 4.429716228225839814e+01
7.840714059368214528e-02 4.366414241114421912e+01
7.944564576628770913e-02 4.319838224547008565e+01
8.048415093889327299e-02 4.234402702433032317e+01
8.152265611149883684e-02 4.139290044201818830e+01
8.256116128410441457e-02 4.051743056478039051e+01
8.359966645670997842e-02 4.002499107643458842e+01
8.463817162931554228e-02 3.906790224706685422e+01
8.567667680192112001e-02 3.818076864065181297e+01
8.671518197452668386e-02 3.721287948802684298e+01
8.775368714713226159e-02 3.661210499417769171e+01
8.879219231973782545e-02 3.606681323429484110e+01
8.983069749234340318e-02 3.550109945284462754e+01
9.086920266494896703e-02 3.477228949720139894e+01
9.190770783755453088e-02 3.414310191260441485e+01
9.294621301016009474e-02 3.346460357347153547e+01
9.398471818276565859e-02 3.272571910438041698e+01
9.502322335537123632e-02 3.181466780903058122e+01
9.606172852797680017e-02 3.123433289777148048e+01
9.710023370058237790e-02 3.048640022758414858e+01
9.813873887318794176e-02 2.969436002324837176e+01
9.917724404579351949e-02 2.920487770799103089e+01
1.002157492183990695e-01 2.840476890212551098e+01
1.012542543910046472e-01 2.755293399804664745e+01
1.022927595636101972e-01 2.705106245118395591e+01
1.033312647362157749e-01 2.639091378254208919e+01
1.043697699088213526e-01 2.581249575390870987e+01
1.054082750814269165e-01 2.516537171144363683e+01
1.064467802540324803e-01 2.453784058629083376e+01
1.074852854266380442e-01 2.393742031830750250e+01
1.085237905992436219e-01 2.323590869266210035e+01
1.095622957718491719e-01 2.249964814031996596e+01
1.106008009444547496e-01 2.206146775900016976e+01
1.116393061170603274e-01 2.140260455589444888e+01
1.126778112896659051e-01 2.099905257373722733e+01
1.137163164622714551e-01 2.046793877114690119e+01
1.147548216348770328e-01 1.993656021959530733e+01
1.157933268074826105e-01 1.933220128418033923e+01
1.168318319800881605e-01 1.889722125260190211e+01
1.178703371526937382e-01 1.843165513296927926e+01
1.189088423252993021e-01 1.786431603807291069e+01
1.199473474979048798e-01 1.737556797463948399e+01
1.209858526705104298e-01 1.678221847643759901e+01
1.220243578431160075e-01 1.654608362998131810e+01
1.230628630157215853e-01 1.590783497658059886e+01
1.241013681883271630e-01 1.547896313005316671e+01
1.251398733609327130e-01 1.513441799390116316e+01
1.261783785335382768e-01 1.465204983330022515e+01
1.272168837061438684e-01 1.440704028669544456e+01
1.282553888787494045e-01 1.406377047841117545e+01
1.292938940513549961e-01 1.360726387013573202e+01
1.303323992239605600e-01 1.309359078634880547e+01
1.313709043965661516e-01 1.266134383740173774e+01
1.324094095691716877e-01 1.216681445136992679e+01
1.334479147417772793e-01 1.192842167428023004e+01
1.344864199143828432e-01 1.166294199223825245e+01
1.355249250869884070e-01 1.129548519032704945e+01
1.365634302595939709e-01 1.091049057641064834e+01
1.376019354321995347e-01 1.063301716305176470e+01
1.386404406048051263e-01 1.035842457669015104e+01
1.396789457774106624e-01 1.009433625121891609e+01
1.407174509500162540e-01 9.798481214222466207e+00
1.417559561226218179e-01 9.312314949447074497e+00
1.427944612952273817e-01 8.821397907755997636e+00
1.438329664678329456e-01 8.676779911262716638e+00
1.448714716404385372e-01 8.546706224389424733e+00
1.459099768130441011e-01 8.245887870678675569e+00
1.469484819856496649e-01 7.939595589526227570e+00
1.479869871582552288e-01 7.642898121735100858e+00
1.490254923308607926e-01 7.394857976781729292e+00
1.500639975034663842e-01 7.083552872644602871e+00
1.511025026760719481e-01 6.825077818447510936e+00
1.521410078486775119e-01 6.642440271840168720e+00
1.531795130212830758e-01 6.439732352645147984e+00
1.542180181938886396e-01 6.140297788195116624e+00
1.552565233664942035e-01 5.949793045771805566e+00
1.562950285390997951e-01 5.885283493030328827e+00
1.573335337117053589e-01 5.641414923988854468e+00
1.583720388843109228e-01 5.397565957694606453e+00
1.594105440569164867e-01 5.251390335316774127e+00
1.604490492295220783e-01 5.190895896673655585e+00
1.614875544021276144e-01 4.904750629229511105e+00
1.625260595747332060e-01 4.786549691540322726e+00
1.635645647473387698e-01 4.681171151482018900e+00
1.646030699199443337e-01 4.496692519393615584e+00
1.656415750925498975e-01 4.387778272385737921e+00
1.666800802651554614e-01 4.165127781620242331e+00
1.677185854377610530e-01 4.006926566226781006e+00
1.687570906103665891e-01 3.935580678294730461e+00
1.697955957829721807e-01 3.782496439630914864e+00
1.708341009555777446e-01 3.650800087895273549e+00
1.718726061281833362e-01 3.485307691536512209e+00
1.729111113007888723e-01 3.312841130643075616e+00
1.739496164733944639e-01 3.271697451501498932e+00
1.749881216460000277e-01 3.129812785822128518e+00
1.760266268186055916e-01 3.060214256522883147e+00
1.770651319912111554e-01 2.970096756228606694e+00
1.781036371638167193e-01 2.855972771102123886e+00
1.791421423364223109e-01 2.757023160319935329e+00
1.801806475090278470e-01 2.616283545642424713e+00
1.812191526816334386e-01 2.467409696959780518e+00
1.822576578542390024e-01 2.550634473153369441e+00
1.832961630268445663e-01 2.436936746789935881e+00
1.843346681994501302e-01 2.329802397347524590e+00
1.853731733720557218e-01 2.227386918046200037e+00
1.864116785446612856e-01 2.187454474149866712e+00
1.874501837172668495e-01 2.169478245402473249e+00
1.884886888898724133e-01 2.028742114437068977e+00
1.895271940624779772e-01 1.983833375439640889e+00
1.905656992350835688e-01 1.903040990401660082e+00
1.916042044076891049e-01 1.800975281533677474e+00
1.926427095802946965e-01 1.763084922335362847e+00
1.936812147529002603e-01 1.796928186998872690e+00
1.947197199255058242e-01 1.705906343317405316e+00
1.957582250981113881e-01 1.582947241291318363e+00
1.967967302707169797e-01 1.493221277273587333e+00
1.978352354433225435e-01 1.396524637136778324e+00
1.988737406159281074e-01 1.423579978123417078e+00
1.999122457885336712e-01 1.445789479289768309e+00
2.009507509611392351e-01 1.322519690410171478e+00
2.019892561337448267e-01 1.318730944774806346e+00
2.030277613063503905e-01 1.258395417398045169e+00
2.040662664789559266e-01 1.241015593995577149e+00
2.051047716515614905e-01 1.171164609784657529e+00
2.061432768241670821e-01 1.100108054689531656e+00
2.071817819967726459e-01 1.087686046863701961e+00
2.082202871693782376e-01 1.126295123656575470e+00
2.092587923419838014e-01 1.019824164034808689e+00
2.102972975145893653e-01 8.740176943616866367e-01
2.113358026871949014e-01 8.942633657877223641e-01
2.123743078598004930e-01 9.565588223091481268e-01
2.134128130324060568e-01 9.017201964207330889e-01
2.144513182050116207e-01 8.984511576943674527e-01
2.154898233776172123e-01 9.440254462500909938e-01
2.165283285502227761e-01 8.938451513089944456e-01
2.175668337228283677e-01 8.546549098502005393e-01
2.186053388954338761e-01 8.433649476023319380e-01
2.196438440680394677e-01 7.514110364045016865e-01
2.206823492406450316e-01 7.315694357864082065e-01
2.217208544132506232e-01 6.993461365386011153e-01
2.227593595858561870e-01 7.548871353014732222e-01
2.237978647584617509e-01 7.207812747903759032e-01
2.248363699310673425e-01 6.562306439702929595e-01
2.258748751036728786e-01 6.972612399009463502e-01
2.269133802762784424e-01 7.105330570692061087e-01
2.279518854488840063e-01 7.080870132000427475e-01
2.289903906214895979e-01 6.489171558612021329e-01
2.300288957940951617e-01 6.833569223293878281e-01
2.310674009667007534e-01 7.024810365864162520e-01
2.321059061393063172e-01 6.601697241511210734e-01
2.331444113119118533e-01 5.921809327512157495e-01
2.341829164845174172e-01 6.306391637110877468e-01
2.352214216571230088e-01 6.755888567733521199e-01
2.362599268297285726e-01 6.674464744444819075e-01
2.372984320023341365e-01 6.519538716878123807e-01
2.383369371749397281e-01 5.620355699652108683e-01
2.393754423475452919e-01 4.912050191986558900e-01
2.404139475201508835e-01 4.884211402912868039e-01
2.414524526927563919e-01 4.782280819882451794e-01
2.424909578653619835e-01 5.236566636109500905e-01
2.435294630379675473e-01 5.817886928845297234e-01
2.445679682105731390e-01 5.613071962644653468e-01
2.456064733831787028e-01 4.926871308971563224e-01
2.466449785557842667e-01 4.823714537741778940e-01
2.476834837283898583e-01 5.129341481180773599e-01
2.487219889009953944e-01 5.259938879177923354e-01
2.497604940736009582e-01 4.785865491134728700e-01
2.507989992462065221e-01 4.350159053957014521e-01
2.518375044188120859e-01 5.083964957795359396e-01
2.528760095914177053e-01 4.533447665059107123e-01
2.539145147640232691e-01 4.343354498000522312e-01
2.549530199366288330e-01 3.878182536681791248e-01
2.559915251092343413e-01 3.980284700113863039e-01
2.570300302818399607e-01 4.204785418235381655e-01
2.580685354544455246e-01 4.135386562492087137e-01
2.591070406270510884e-01 5.457359668220895799e-01
2.601455457996566523e-01 5.793059748820148513e-01
2.611840509722622161e-01 5.039649008804545360e-01
2.622225561448678355e-01 4.399773222367926451e-01
2.632610613174733438e-01 4.148058438953903249e-01
2.642995664900789077e-01 4.383496814371952155e-01
2.653380716626844715e-01 4.607165278491081040e-01
2.663765768352900909e-01 4.212560815897248290e-01
2.674150820078956547e-01 4.379005550476335884e-01
2.684535871805012186e-01 3.673521395454173444e-01
2.694920923531067825e-01 4.078119895540197604e-01
2.705305975257123463e-01 4.030631264930377711e-01
2.715691026983179102e-01 4.439014523122288836e-01
2.726076078709234740e-01 4.583919864672409972e-01
2.736461130435290379e-01 3.982154326661024868e-01
2.746846182161346017e-01 4.280361590833905439e-01
2.757231233887402211e-01 4.267213342555322697e-01
2.767616285613457849e-01 4.112333584605103454e-01
2.778001337339512933e-01 4.196061327221514148e-01
2.788386389065568571e-01 5.092781874046963253e-01
2.798771440791624765e-01 4.423324249922693241e-01
2.809156492517680404e-01 4.115712394341990432e-01
2.819541544243736042e-01 4.617007478300187984e-01
2.829926595969791681e-01 4.591408621973869231e-01
2.840311647695847319e-01 4.043303892732339477e-01
2.850696699421902958e-01 4.531954994701195005e-01
2.861081751147958596e-01 4.823620887368669230e-01
2.871466802874014235e-01 4.420820572227661671e-01
2.881851854600069873e-01 5.194213587942044796e-01
2.892236906326126067e-01 5.173996866906094283e-01
2.902621958052181705e-01 3.858538736123477975e-01
2.913007009778237344e-01 3.406198027063886968e-01
2.923392061504292427e-01 3.801856209237257644e-01
2.933777113230348621e-01 3.905972771682577616e-01
2.944162164956404260e-01 4.269692771006106113e-01
2.954547216682459898e-01 4.296976138118893118e-01
2.964932268408515537e-01 4.481073582451138293e-01
2.975317320134571175e-01 4.378748639126186504e-01
2.985702371860627369e-01 4.413518334533534926e-01
2.996087423586683007e-01 4.193386222801187557e-01
3.006472475312738091e-01 4.227652282490090840e-01
3.016857527038794284e-01 3.562708864503001394e-01
3.027242578764849923e-01 3.675024326807481145e-01
3.037627630490905561e-01 3.729571018619672884e-01
3.048012682216961200e-01 3.646244284186721529e-01
3.058397733943016839e-01 3.088645205616167289e-01
3.068782785669073032e-01 3.400901087158878511e-01
3.079167837395128116e-01 3.677105889319030041e-01
3.089552889121183754e-01 3.310679752467109438e-01
3.099937940847239393e-01 3.388568272095859868e-01
3.110322992573295586e-01 3.103102725527620009e-01
3.120708044299351225e-01 3.084990105395917226e-01
3.131093096025406863e-01 3.615900927870292492e-01
3.141478147751462502e-01 3.310660768566613399e-01
3.151863199477518140e-01 3.495805699073102346e-01
3.162248251203573779e-01 3.333985340923284468e-01
3.172633302929629417e-01 2.642351600193570960e-01
3.183018354655685056e-01 3.518701976826541511e-01
3.193403406381740695e-01 3.590136382649049551e-01
3.203788458107796888e-01 3.843329099021062234e-01
3.214173509833852527e-01 3.489967529452009387e-01
3.224558561559907610e-01 3.232723415634524144e-01
3.234943613285963249e-01 3.699886594954939767e-01
3.245328665012019442e-01 3.559047199008453788e-01
3.255713716738075081e-01 2.761680160093469283e-01
3.266098768464130719e-01 3.325519862863792753e-01
3.276483820190186358e-01 3.636715579305551671e-01
3.286868871916241996e-01 3.463803438606056773e-01
3.297253923642297635e-01 2.640766609857934100e-01
3.307638975368353274e-01 2.402907590238640978e-01
3.318024027094408912e-01 2.913031171771685024e-01
3.328409078820464551e-01 3.199681058627170671e-01
3.338794130546520744e-01 3.910872564487455350e-01
3.349179182272576383e-01 3.401041724730546889e-01
3.359564233998632021e-01 2.671169709532925651e-01
3.369949285724687105e-01 2.385182679659720861e-01
3.380334337450743298e-01 2.864097959159046525e-01
3.390719389176798937e-01 2.900321535761598568e-01
3.401104440902854575e-01 2.935990998107200767e-01
3.411489492628910214e-01 2.726566786711011048e-01
3.421874544354965852e-01 2.274815266945360293e-01
3.432259596081022046e-01 2.689535543154022434e-01
3.442644647807077130e-01 2.171928469301427356e-01
3.453029699533132768e-01 2.383907522616901531e-01
3.463414751259188407e-01 2.671548216395400743e-01
3.473799802985244600e-01 2.165833348886394560e-01
3.484184854711300239e-01 1.845126782604395999e-01
3.494569906437355877e-01 1.598294111445355270e-01
3.504954958163411516e-01 1.753749246955926822e-01
3.515340009889467154e-01 2.531894202529301197e-01
3.525725061615522793e-01 3.271915474075761665e-01
3.536110113341578431e-01 3.450759603662767461e-01
3.546495165067634070e-01 2.802867902911927445e-01
3.556880216793689709e-01 2.748991005995620185e-01
3.567265268519745902e-01 2.192126241880814064e-01
3.577650320245801541e-01 2.805760097402654196e-01
3.588035371971856624e-01 2.612815654710516355e-01
3.598420423697912263e-01 2.631268526222179105e-01
3.608805475423968456e-01 1.993710884571804343e-01
3.619190527150024095e-01 1.956567509985127629e-01
3.629575578876079733e-01 2.473563321816776295e-01
3.639960630602135372e-01 2.379597577914971396e-01
3.650345682328191010e-01 2.329824978059598095e-01
3.660730734054246649e-01 2.389228061423303018e-01
3.671115785780302287e-01 1.944767244628486935e-01
3.681500837506357926e-01 1.309311087843418875e-01
3.691885889232413565e-01 1.506073440687316634e-01
3.702270940958469758e-01 2.876499098029903223e-01
3.712655992684525397e-01 3.135521395959770530e-01
3.723041044410581035e-01 2.418259730608163238e-01
3.733426096136636674e-01 1.714041153635754711e-01
3.743811147862692312e-01 1.626312405234457970e-01
3.754196199588747951e-01 2.254156218990850391e-01
3.764581251314803589e-01 2.167828144749961439e-01
3.774966303040859228e-01 1.720519006723080224e-01
3.785351354766914866e-01 1.550482553979009026e-01
3.795736406492971060e-01 1.371904603826443747e-01
3.806121458219026699e-01 1.530089997908632427e-01
3.816506509945081782e-01 1.820939558287157922e-01
3.826891561671137421e-01 2.126527460945553116e-01
3.837276613397193614e-01 1.980254467000115426e-01
3.847661665123249253e-01 1.879601781476054612e-01
3.858046716849304891e-01 1.576505890272308363e-01
3.868431768575360530e-01 1.873179265468323251e-01
3.878816820301416168e-01 2.251845146830113720e-01
3.889201872027471807e-01 1.849025629572871310e-01
3.899586923753527445e-01 2.051320550567403700e-01
3.909971975479583084e-01 2.120869115712693542e-01
3.920357027205638722e-01 2.443033263932399279e-01
3.930742078931694916e-01 3.067099139788282969e-01
3.941127130657750555e-01 2.252919897340390776e-01
3.951512182383806193e-01 2.107637015845185147e-01
3.961897234109861277e-01 2.401810080366004740e-01
3.972282285835917470e-01 2.425822496859737498e-01
3.982667337561973109e-01 2.183743922324907771e-01
3.993052389288028747e-01 1.480130143762181660e-01
4.003437441014084941e-01 1.575041075733700779e-01
4.013822492740140579e-01 9.908794294350187215e-02
4.024207544466196218e-01 1.348186447029178225e-01
4.034592596192252412e-01 1.917547589998100932e-01
4.044977647918308050e-01 1.817472982237440249e-01
4.055362699644363689e-01 1.230505487223361172e-01
4.065747751370419327e-01 1.392174827887906474e-01
4.076132803096474411e-01 2.159626781598511513e-01
4.086517854822530049e-01 1.855964149783240202e-01
4.096902906548585688e-01 1.636040394268043485e-01
4.107287958274641326e-01 1.433256610868163250e-01
4.117673010000697520e-01 1.251048088419715043e-01
4.128058061726753158e-01 1.393716263239355158e-01
4.138443113452808797e-01 1.420840922066837209e-01
4.148828165178864436e-01 1.664442334793356792e-01
4.159213216904920074e-01 1.659101032582768198e-01
4.169598268630976268e-01 1.845928152981741732e-01
4.179983320357031906e-01 1.608093917642889892e-01
4.190368372083087545e-01 1.636540785471041204e-01
4.200753423809143183e-01 1.856605443854313364e-01
4.211138475535198822e-01 1.786687750071038749e-01
4.221523527261253905e-01 1.377652698648361707e-01
4.231908578987309544e-01 1.062472300136185765e-01
4.242293630713365182e-01 6.055203503078132599e-02
4.252678682439421376e-01 1.095961800900830951e-01
4.263063734165477014e-01 1.704770448402932459e-01
4.273448785891532653e-01 1.343723887078986934e-01
4.283833837617588292e-01 1.251086659025411052e-01
4.294218889343643930e-01 9.173141261436157379e-02
4.304603941069700124e-01 1.105499243916021612e-01
4.314988992795755762e-01 8.593495885085289387e-02
4.325374044521811401e-01 7.629203367572401362e-02
4.335759096247867039e-01 1.031779341645417958e-01
4.346144147973922678e-01 1.134860591322706114e-01
4.356529199699978872e-01 8.797895561632174122e-02
4.366914251426033400e-01 1.038073767343519194e-01
4.377299303152089038e-01 1.047154322488985656e-01
4.387684354878145232e-01 9.911795477602680648e-02
4.398069406604200871e-01 9.551842287309497692e-02
4.408454458330256509e-01 1.238908520583237305e-01
4.418839510056312148e-01 1.706143134659079408e-01
4.429224561782367786e-01 1.468516425139156922e-01
4.439609613508423980e-01 1.335193066834818865e-01
