# q (1/Angstrom), Intensity (arb)
2.078726924066784734e-02 1.347370285664138123e+02
2.212838338006469993e-02 2.659594436331549332e+02
2.346949751946154905e-02 4.030218822230739306e+02
2.481061165885840164e-02 5.478971702616863695e+02
2.615172579825525423e-02 6.175031660488780290e+02
2.749283993765210335e-02 6.563866759337932990e+02
2.883395407704895941e-02 6.829573566625571175e+02
3.017506821644580506e-02 7.041833721330988283e+02
3.151618235584265765e-02 7.058331064305012887e+02
3.285729649523951718e-02 7.022801958454560918e+02
3.419841063463636283e-02 7.035701860506352432e+02
3.553952477403321542e-02 7.029163946849047306e+02
3.688063891343006800e-02 6.969108314501434052e+02
3.822175305282692059e-02 6.886739993833192557e+02
3.956286719222376624e-02 6.888284505416482943e+02
4.090398133162062577e-02 6.821018608340946230e+02
4.224509547101747142e-02 6.718604941337318905e+02
4.358620961041432401e-02 6.630573343333628600e+02
4.492732374981117660e-02 6.557910618651693540e+02
4.626843788920802919e-02 6.515222177083762745e+02
4.760955202860488178e-02 6.477723954351856719e+02
4.895066616800172743e-02 6.396609837714861442e+02
5.029178030739858696e-02 6.301262974143451174e+02
5.163289444679544649e-02 6.232855900301375414e+02
5.297400858619229214e-02 6.144943666471353936e+02
5.431512272558913779e-02 6.038882031681607714e+02
5.565623686498599731e-02 5.930530105507914413e+02
5.699735100438284990e-02 5.836038216610268137e+02
5.833846514377969555e-02 5.741019629295683444e+02
5.967957928317654814e-02 5.645924153830085288e+02
6.102069342257340767e-02 5.541488638534970050e+02
6.236180756197025332e-02 5.417678553597893369e+02
6.370292170136709897e-02 5.300565132695699049e+02
6.504403584076395850e-02 5.217206201222633126e+02
6.638514998016080415e-02 5.098033075257656037e+02
6.772626411955766368e-02 4.989170154258256957e+02
6.906737825895450933e-02 4.860342406151024761e+02
7.040849239835136886e-02 4.703946219465673266e+02
7.174960653774821451e-02 4.574756686180770089e+02
7.309072067714506016e-02 4.442782302815464845e+02
7.443183481654190581e-02 4.329198518025953035e+02
7.577294895593877921e-02 4.214204644927262393e+02
7.711406309533562486e-02 4.071563476922266318e+02
7.845517723473247051e-02 3.930615638064323321e+02
7.979629137412933004e-02 3.816134359510485297e+02
8.113740551352617569e-02 3.713212243142674538e+02
8.247851965292302134e-02 3.586864877541523811e+02
8.381963379231988087e-02 3.457597314265109389e+02
8.516074793171674040e-02 3.322234314312667038e+02
8.650186207111358605e-02 3.200387186359670295e+02
8.784297621051043170e-02 3.108155524379309895e+02
8.918409034990729123e-02 2.994827114609685736e+02
9.052520448930413688e-02 2.881891240295123566e+02
9.186631862870098253e-02 2.774036654953632137e+02
9.320743276809784206e-02 2.651982387615640846e+02
9.454854690749470159e-02 2.557063624572454614e+02
9.588966104689154724e-02 2.445187073972916778e+02
9.723077518628839289e-02 2.347363657094572034e+02
9.857188932568525241e-02 2.247214541442781410e+02
9.991300346508209806e-02 2.161869355641030950e+02
1.012541176044789437e-01 2.064392942861809672e+02
1.025952317438758032e-01 1.966593331784955581e+02
1.039363458832726350e-01 1.880070954274479504e+02
1.052774600226694945e-01 1.797234822960208191e+02
1.066185741620663541e-01 1.700015047199665901e+02
1.079596883014631858e-01 1.607482235455411512e+02
1.093008024408600454e-01 1.525731424580489488e+02
1.106419165802569049e-01 1.453501003112554031e+02
1.119830307196537506e-01 1.384802295814638455e+02
1.133241448590506101e-01 1.310264284374434567e+02
1.146652589984474419e-01 1.230329714967822667e+02
1.160063731378443014e-01 1.161364348576261705e+02
1.173474872772411609e-01 1.105578952250637883e+02
1.186886014166380066e-01 1.043732312416899077e+02
1.200297155560348661e-01 9.766412967077069140e+01
1.213708296954317256e-01 9.219998812955280698e+01
1.227119438348285574e-01 8.706835268198463496e+01
1.240530579742254169e-01 8.109136082962213266e+01
1.253941721136222764e-01 7.495234748912355371e+01
1.267352862530191082e-01 6.990823398625589391e+01
1.280764003924159677e-01 6.558206384437252723e+01
1.294175145318128273e-01 6.144013004802941680e+01
1.307586286712096590e-01 5.743183520319216484e+01
1.320997428106065186e-01 5.337983724229037819e+01
1.334408569500033781e-01 4.968012338239861947e+01
1.347819710894002376e-01 4.568590837522894788e+01
1.361230852287970972e-01 4.152975276004565330e+01
1.374641993681939289e-01 3.768851257366738139e+01
1.388053135075907885e-01 3.534177392868571133e+01
1.401464276469876480e-01 3.289917884468913201e+01
1.414875417863844798e-01 2.952747106839733249e+01
1.428286559257813393e-01 2.717158178453726691e+01
1.441697700651781988e-01 2.449426009953546668e+01
1.455108842045750306e-01 2.270128279267258620e+01
1.468519983439718901e-01 2.050677391598932786e+01
1.481931124833687219e-01 1.877145204140977341e+01
1.495342266227655814e-01 1.650542372843247563e+01
1.508753407621624687e-01 1.510705906210613136e+01
1.522164549015593005e-01 1.380769419805008624e+01
1.535575690409561600e-01 1.140779781609904830e+01
1.548986831803530195e-01 1.046720011576218212e+01
1.562397973197498513e-01 9.056576502809306817e+00
1.575809114591467108e-01 8.284904847122106730e+00
1.589220255985435704e-01 7.902283175077315036e+00
1.602631397379404021e-01 6.419907583774914883e+00
1.616042538773372617e-01 5.216200931551497888e+00
1.629453680167341212e-01 4.458739438416358780e+00
1.642864821561309530e-01 4.680213120072892252e+00
1.656275962955278125e-01 4.235161984281816672e+00
1.669687104349246720e-01 3.299434962094494495e+00
1.683098245743215315e-01 2.357918550239062938e+00
1.696509387137183911e-01 2.660589659871448021e+00
1.709920528531152228e-01 2.225658475436233630e+00
1.723331669925120824e-01 2.580623688719754227e+00
1.736742811319089419e-01 2.738305139590764270e+00
1.750153952713057737e-01 2.225001298858899190e+00
1.763565094107026332e-01 1.902145715617209021e+00
1.776976235500994927e-01 1.349552676772120208e+00
1.790387376894963245e-01 1.958856564592920790e+00
1.803798518288931840e-01 2.797801571787047692e+00
1.817209659682900158e-01 2.483091730633333327e+00
1.830620801076868753e-01 2.658383335890476928e+00
1.844031942470837349e-01 2.936726507234169503e+00
1.857443083864805944e-01 2.907287628562954751e+00
1.870854225258774539e-01 2.749244155665110156e+00
1.884265366652743134e-01 2.746475934676922748e+00
1.897676508046711452e-01 3.184284080548181350e+00
1.911087649440680047e-01 3.915456647811083712e+00
1.924498790834648643e-01 3.485018614024369299e+00
1.937909932228616960e-01 3.369178188382264238e+00
1.951321073622585556e-01 3.820671843034446624e+00
1.964732215016554151e-01 4.444009818038992421e+00
1.978143356410522469e-01 4.643716596881148462e+00
1.991554497804491064e-01 4.966631309154337259e+00
2.004965639198459382e-01 4.453888858242933679e+00
2.018376780592427977e-01 4.561650177035872389e+00
2.031787921986396572e-01 4.798848811239921019e+00
2.045199063380365168e-01 5.898617540822385763e+00
2.058610204774333763e-01 6.179156824998315756e+00
2.072021346168302081e-01 5.723353100607369015e+00
2.085432487562270676e-01 5.427968266850015766e+00
2.098843628956239271e-01 5.862546245805376088e+00
2.112254770350207866e-01 6.399687983758411747e+00
2.125665911744176462e-01 6.594734748771827526e+00
2.139077053138144502e-01 6.296961216666034034e+00
2.152488194532113097e-01 6.661612274165676695e+00
2.165899335926081692e-01 7.392417574122482904e+00
2.179310477320050288e-01 7.405193225748078589e+00
2.192721618714018883e-01 6.881053123156036122e+00
2.206132760107987478e-01 6.647904294068965214e+00
2.219543901501955796e-01 6.414298414559596040e+00
2.232955042895924391e-01 6.243109979405502941e+00
2.246366184289892987e-01 6.333871510070977706e+00
2.259777325683861582e-01 6.499475765657791726e+00
2.273188467077830177e-01 6.990403759221308633e+00
2.286599608471798217e-01 6.727124579365238333e+00
2.300010749865766813e-01 6.404346993472735505e+00
2.313421891259735408e-01 6.419139159496914715e+00
2.326833032653704003e-01 6.560187992465003504e+00
2.340244174047672598e-01 5.933693284836692783e+00
2.353655315441641194e-01 6.820181400681860850e+00
2.367066456835609234e-01 6.554444469172338472e+00
2.380477598229577829e-01 6.119035103159220057e+00
2.393888739623546424e-01 5.922823386672810386e+00
2.407299881017515020e-01 5.720534991118562118e+00
2.420711022411483615e-01 5.951972280031583296e+00
2.434122163805451933e-01 5.410841540563879448e+00
2.447533305199420528e-01 5.393589982452787979e+00
2.460944446593389123e-01 5.140945044119654028e+00
2.474355587987357719e-01 5.135640175333350044e+00
2.487766729381326314e-01 4.379430958141682595e+00
2.501177870775294632e-01 4.310052956198596519e+00
2.514589012169263227e-01 4.270233923143322841e+00
2.528000153563231822e-01 4.176916297921820842e+00
2.541411294957200417e-01 4.474795102571256677e+00
2.554822436351169013e-01 4.280203372298238662e+00
2.568233577745137608e-01 3.474733872993702732e+00
2.581644719139106203e-01 3.416151788238749987e+00
2.595055860533074243e-01 3.328585900737358827e+00
2.608467001927042839e-01 3.273417734682851687e+00
2.621878143321011434e-01 3.151339500582572839e+00
2.635289284714980029e-01 3.249630162003327882e+00
2.648700426108948625e-01 3.391310275413346176e+00
2.662111567502916665e-01 3.042578311128288249e+00
2.675522708896885260e-01 2.860158900587023822e+00
2.688933850290853855e-01 3.279966949130241005e+00
2.702344991684822451e-01 2.518728073539406864e+00
2.715756133078791046e-01 2.161721603776875611e+00
2.729167274472759641e-01 1.561737285907980777e+00
2.742578415866727681e-01 1.530666644710414914e+00
2.755989557260696277e-01 1.676707152214419239e+00
2.769400698654664872e-01 1.887396030188533302e+00
2.782811840048633467e-01 1.712986714562255486e+00
2.796222981442602062e-01 1.626964355810777363e+00
2.809634122836570103e-01 1.694588401909399522e+00
2.823045264230538698e-01 1.507405917773866122e+00
2.836456405624507293e-01 1.427275077648509694e+00
2.849867547018475888e-01 1.542571341266040008e+00
2.863278688412444484e-01 1.659152398030627751e+00
2.876689829806413079e-01 1.694439744648377655e+00
2.890100971200381674e-01 1.579976279007084372e+00
2.903512112594350270e-01 1.058119832853400055e+00
2.916923253988318865e-01 8.752517824454741913e-01
2.930334395382287460e-01 8.269556689174777375e-01
2.943745536776256055e-01 1.299289037282868264e+00
2.957156678170224096e-01 1.220819385680265157e+00
2.970567819564192691e-01 1.056486228967976615e+00
2.983978960958161286e-01 1.277689938706423334e+00
2.997390102352129881e-01 9.324254992761069616e-01
3.010801243746098477e-01 6.369661135489295134e-01
3.024212385140067072e-01 9.203916646418406344e-01
3.037623526534035112e-01 9.853912540536882148e-01
3.051034667928003707e-01 1.395764696893436962e+00
3.064445809321972303e-01 9.995892711040212930e-01
3.077856950715940898e-01 1.127438043015054348e+00
3.091268092109909493e-01 1.711985478540988481e+00
3.104679233503877533e-01 1.456636027302529612e+00
3.118090374897846129e-01 1.147141517629222562e+00
3.131501516291814724e-01 1.327957486744331561e+00
3.144912657685783319e-01 1.303254836758171109e+00
3.158323799079751915e-01 1.313064819445173725e+00
3.171734940473720510e-01 1.417561476310297053e+00
3.185146081867689105e-01 1.192232893367609847e+00
3.198557223261657700e-01 1.116388635560618070e+00
3.211968364655626296e-01 1.246222463043160644e+00
3.225379506049594891e-01 1.275099543000479230e+00
3.238790647443563486e-01 8.136107084694259584e-01
3.252201788837532082e-01 8.097666372178125016e-01
3.265612930231500122e-01 1.180924730900230202e+00
3.279024071625468717e-01 1.855707994718464704e+00
3.292435213019437312e-01 1.561175420742912934e+00
3.305846354413405908e-01 1.494369988979052266e+00
3.319257495807374503e-01 1.260910308328725193e+00
3.332668637201342543e-01 1.308542218174274296e+00
3.346079778595311138e-01 1.575089907504334974e+00
3.359490919989279734e-01 1.840456614554582870e+00
3.372902061383248329e-01 1.505861852530401279e+00
3.386313202777216924e-01 1.894745880104160562e+00
3.399724344171185519e-01 1.789702085494958794e+00
3.413135485565153560e-01 1.672925998913143530e+00
3.426546626959122155e-01 1.631360598677900953e+00
3.439957768353090750e-01 1.688851858606923884e+00
3.453368909747059345e-01 1.393645792306031694e+00
3.466780051141027941e-01 1.702856771912763634e+00
3.480191192534995981e-01 1.719473523660106196e+00
3.493602333928964576e-01 1.575013862852095770e+00
3.507013475322933171e-01 1.383801240320380543e+00
3.520424616716901767e-01 1.537498567753715406e+00
3.533835758110870362e-01 1.475791170350795767e+00
3.547246899504838957e-01 1.669898521641236755e+00
3.560658040898807553e-01 1.455701250127219737e+00
3.574069182292776148e-01 1.330720626246232996e+00
3.587480323686744743e-01 1.328789522431677028e+00
3.600891465080713338e-01 1.577574622669402515e+00
3.614302606474681934e-01 1.611731802921035239e+00
3.627713747868649974e-01 1.521421464371520926e+00
3.641124889262618569e-01 1.136786161337340673e+00
3.654536030656587164e-01 1.468692144622998796e+00
3.667947172050555760e-01 1.200478763097841295e+00
3.681358313444524355e-01 1.187149281882305729e+00
3.694769454838492950e-01 1.261200169937474413e+00
3.708180596232460990e-01 8.120852732105703353e-01
3.721591737626429586e-01 9.110992936995216951e-01
3.735002879020398181e-01 1.133455689616432949e+00
3.748414020414366776e-01 1.267339766690540159e+00
3.761825161808335372e-01 1.234221938665697849e+00
3.775236303202303967e-01 1.592823627096286998e+00
3.788647444596272007e-01 1.297758217806979530e+00
3.802058585990240602e-01 1.316117981533032832e+00
3.815469727384209198e-01 1.417944363476230762e+00
3.828880868778177793e-01 1.466383574135953438e+00
3.842292010172146388e-01 1.379527002593356144e+00
3.855703151566114428e-01 1.596853605079395777e+00
3.869114292960083024e-01 1.552222536843153478e+00
3.882525434354051619e-01 1.178044887453197020e+00
3.895936575748020214e-01 1.125464589285208206e+00
3.909347717141988809e-01 9.704531137201541924e-01
3.922758858535957405e-01 7.928949934407398814e-01
3.936169999929926000e-01 9.506176320492087939e-01
3.949581141323894595e-01 1.092350250396165734e+00
3.962992282717863191e-01 1.124639421609401779e+00
3.976403424111831786e-01 1.084455522294575758e+00
3.989814565505800381e-01 6.000785914554640499e-01
4.003225706899768976e-01 8.437596261876620929e-01
4.016636848293737572e-01 8.757054979534615313e-01
4.030047989687706167e-01 1.220416756086486032e+00
4.043459131081674207e-01 1.169894806748054350e+00
4.056870272475643358e-01 1.049805847629158961e+00
4.070281413869611398e-01 1.256834935422510569e+00
4.083692555263580548e-01 1.198264390686404113e+00
4.097103696657548588e-01 7.440844423626344906e-01
4.110514838051517739e-01 6.647849992199965641e-01
4.123925979445485779e-01 8.211465980063792358e-01
4.137337120839453819e-01 9.965087667463308208e-01
4.150748262233422969e-01 8.237241592044597382e-01
4.164159403627391010e-01 5.852344375536162602e-01
4.177570545021360160e-01 6.978480705853158383e-01
4.190981686415328200e-01 9.886557765534789155e-01
4.204392827809296240e-01 9.211522978444293130e-01
4.217803969203265391e-01 6.711703550397132290e-01
4.231215110597233431e-01 5.448861751634623829e-01
4.244626251991202581e-01 6.308249457770500612e-01
4.258037393385170621e-01 6.505617361580675606e-01
4.271448534779138662e-01 5.155393270976844633e-01
4.284859676173107812e-01 7.296562598589702020e-01
4.298270817567075852e-01 6.128783405905053883e-01
4.311681958961045003e-01 7.990192252634074066e-01
4.325093100355013043e-01 7.849274298343260625e-01
4.338504241748981638e-01 7.535370936392240537e-01
4.351915383142950233e-01 1.617931715186202268e+00
4.365326524536918829e-01 1.080196651847650458e+00
4.378737665930887424e-01 6.728692536930935830e-01
4.392148807324856019e-01 8.625433447709056622e-01
4.405559948718824614e-01 1.021902973409943627e+00
4.418971090112793210e-01 1.143373846203203925e+00
4.432382231506761250e-01 9.547156425498570798e-01
4.445793372900730400e-01 1.066873406096725319e+00
4.459204514294698440e-01 1.110362789748535306e+00
4.472615655688667591e-01 1.117478204564399391e+00
4.486026797082635631e-01 1.084414949515434046e+00
4.499437938476603671e-01 8.115979770087378142e-01
4.512849079870572822e-01 1.131885146065990000e+00
4.526260221264540862e-01 1.370684520780258708e+00
4.539671362658510012e-01 1.121116458778864455e+00
4.553082504052478052e-01 6.965572492958713724e-01
4.566493645446446092e-01 1.084474713587191275e+00
4.579904786840415243e-01 8.640333087325089423e-01
4.593315928234383283e-01 5.447422522704528092e-01
4.606727069628352433e-01 6.056650499647417973e-01
4.620138211022320474e-01 7.077315778260739876e-01
4.633549352416289624e-01 6.651394296588435395e-01
4.646960493810257664e-01 1.087213185340971222e+00
4.660371635204225704e-01 9.486136484044394024e-01
4.673782776598194855e-01 7.649007354911674383e-01
4.687193917992162895e-01 1.021641213337595389e+00
4.700605059386132045e-01 9.245880051938044630e-01
4.714016200780100085e-01 7.309252211742176542e-01
4.727427342174068681e-01 1.173648180409259112e+00
4.740838483568037276e-01 1.048663724020073573e+00
4.754249624962005871e-01 9.301504183690951777e-01
4.767660766355974467e-01 8.891209062074310054e-01
4.781071907749943062e-01 1.178425690585903851e+00
4.794483049143911102e-01 1.035943336255286340e+00
4.807894190537880252e-01 1.150679318622650271e+00
4.821305331931848293e-01 1.055363508051691213e+00
4.834716473325817443e-01 1.042494018199818129e+00
4.848127614719785483e-01 8.038478072395136564e-01
4.861538756113753523e-01 6.620948397990957801e-01
4.874949897507722674e-01 6.617229784609719445e-01
4.888361038901690714e-01 7.094570562304056693e-01
4.901772180295659864e-01 8.295770941208218119e-01
4.915183321689627904e-01 1.064644583353384633e+00
4.928594463083597055e-01 1.011377507098458750e+00
4.942005604477565095e-01 8.606417388441940375e-01
4.955416745871533135e-01 8.543463600910570221e-01
4.968827887265502286e-01 7.807063006075836142e-01
4.982239028659470326e-01 8.031412737907004384e-01
4.995650170053439476e-01 4.299814112902851093e-01
5.009061311447408071e-01 4.838035131513223064e-01
5.022472452841375556e-01 5.718977165939875817e-01
5.035883594235345262e-01 9.600155367010074769e-01
5.049294735629312747e-01 7.551554894168290843e-01
5.062705877023282452e-01 5.302179797820159024e-01
5.076117018417249938e-01 5.509933520382048755e-01
5.089528159811218533e-01 2.691222070670065136e-01
5.102939301205187128e-01 1.432576629893560494e-01
5.116350442599155723e-01 3.025118718619168590e-01
5.129761583993124319e-01 2.694044072187864458e-01
5.143172725387092914e-01 3.780260086251203688e-01
5.156583866781061509e-01 8.003380296373450165e-01
5.169995008175030105e-01 8.630648521951584939e-01
5.183406149568997590e-01 6.167066006059584993e-01
5.196817290962967295e-01 5.729147190619983121e-01
5.210228432356934780e-01 7.922985715769144122e-01
5.223639573750904486e-01 7.548418902363280836e-01
5.237050715144871971e-01 6.656897875676364151e-01
5.250461856538840566e-01 7.706096421120136597e-01
5.263872997932809161e-01 4.784101950910724099e-01
5.277284139326777757e-01 3.181744225212739252e-01
5.290695280720746352e-01 7.497358577319133133e-01
5.304106422114714947e-01 3.354283555110839643e-01
5.317517563508683542e-01 7.808498474249603305e-01
5.330928704902652138e-01 6.669359252523037185e-01
5.344339846296620733e-01 2.665383753776211506e-01
5.357750987690589328e-01 4.155720165404588329e-01
5.371162129084557924e-01 5.169802853287848166e-01
5.384573270478525409e-01 4.166937685526193036e-01
5.397984411872495114e-01 4.664336779400102273e-01
5.411395553266462599e-01 6.222948313821135002e-01
5.424806694660432305e-01 5.665771542466515598e-01
5.438217836054399790e-01 4.593855853825843383e-01
5.451628977448369495e-01 2.796607881971695519e-01
5.465040118842336980e-01 1.994296129899311154e-01
5.478451260236305576e-01 1.480583587304735715e-01
5.491862401630274171e-01 4.753650881361437541e-01
5.505273543024242766e-01 3.499519269313822178e-01
5.518684684418211361e-01 7.211381142214392526e-01
5.532095825812179957e-01 5.011648209328569692e-01
5.545506967206147442e-01 2.348085289384016505e-02
