# q (1/Angstrom), Intensity (arb)
2.078726924066784734e-02 6.058952770106307639e+01
2.212838338006469993e-02 1.346796412124198525e+02
2.346949751946154905e-02 2.006477376718812025e+02
2.481061165885840164e-02 2.745611883799709858e+02
2.615172579825525423e-02 3.104295110942213114e+02
2.749283993765210335e-02 3.276155914751504952e+02
2.883395407704895941e-02 3.388411512149937153e+02
3.017506821644580506e-02 3.495080052273349906e+02
3.151618235584265765e-02 3.550954173422167059e+02
3.285729649523951718e-02 3.536030813489754223e+02
3.419841063463636283e-02 3.498450039862483436e+02
3.553952477403321542e-02 3.518671673960495809e+02
3.688063891343006800e-02 3.508375487300115765e+02
3.822175305282692059e-02 3.475351601195494595e+02
3.956286719222376624e-02 3.460632667214314893e+02
4.090398133162062577e-02 3.436619891828191840e+02
4.224509547101747142e-02 3.422222962174721488e+02
4.358620961041432401e-02 3.381573309477848852e+02
4.492732374981117660e-02 3.362161879354782172e+02
4.626843788920802919e-02 3.350123324223623058e+02
4.760955202860488178e-02 3.347247595487008311e+02
4.895066616800172743e-02 3.307289659893025942e+02
5.029178030739858696e-02 3.252491156440720488e+02
5.163289444679544649e-02 3.239779549684865287e+02
5.297400858619229214e-02 3.192999041974026113e+02
5.431512272558913779e-02 3.159262742883197461e+02
5.565623686498599731e-02 3.120675621265439759e+02
5.699735100438284990e-02 3.078998834454040434e+02
5.833846514377969555e-02 3.033199094136515441e+02
5.967957928317654814e-02 3.008196057588062331e+02
6.102069342257340767e-02 2.969727314618851324e+02
6.236180756197025332e-02 2.915494141081466068e+02
6.370292170136709897e-02 2.875440121102882358e+02
6.504403584076395850e-02 2.841081777671951158e+02
6.638514998016080415e-02 2.804562787996378574e+02
6.772626411955766368e-02 2.747571741920367572e+02
6.906737825895450933e-02 2.669706661231354587e+02
7.040849239835136886e-02 2.613631053239255948e+02
7.174960653774821451e-02 2.573365522612405698e+02
7.309072067714506016e-02 2.529535445864580652e+02
7.443183481654190581e-02 2.459932632269486987e+02
7.577294895593877921e-02 2.398485324150916256e+02
7.711406309533562486e-02 2.345849815509816665e+02
7.845517723473247051e-02 2.295744983208566907e+02
7.979629137412933004e-02 2.237913015204919134e+02
8.113740551352617569e-02 2.196490696635806898e+02
8.247851965292302134e-02 2.137574448659725022e+02
8.381963379231988087e-02 2.083514451091312480e+02
8.516074793171674040e-02 2.030488586975394583e+02
8.650186207111358605e-02 1.961407795506405876e+02
8.784297621051043170e-02 1.915329195875079336e+02
8.918409034990729123e-02 1.870612085353565135e+02
9.052520448930413688e-02 1.814612654681733943e+02
9.186631862870098253e-02 1.759403180913939764e+02
9.320743276809784206e-02 1.703595464826523198e+02
9.454854690749470159e-02 1.649090912371198101e+02
9.588966104689154724e-02 1.605281303060568803e+02
9.723077518628839289e-02 1.565698894383849051e+02
9.857188932568525241e-02 1.512595153398317507e+02
9.991300346508209806e-02 1.457368287326399354e+02
1.012541176044789437e-01 1.403405166998290099e+02
1.025952317438758032e-01 1.369773260974619120e+02
1.039363458832726350e-01 1.312460677093982895e+02
1.052774600226694945e-01 1.262878424221402582e+02
1.066185741620663541e-01 1.217604747451838421e+02
1.079596883014631858e-01 1.184182688676901023e+02
1.093008024408600454e-01 1.140518475546467414e+02
1.106419165802569049e-01 1.101380677121934752e+02
1.119830307196537506e-01 1.053367802374296502e+02
1.133241448590506101e-01 1.005909874425029926e+02
1.146652589984474419e-01 9.731121851123967303e+01
1.160063731378443014e-01 9.335705101533322647e+01
1.173474872772411609e-01 8.910405997854408611e+01
1.186886014166380066e-01 8.576365239347295244e+01
1.200297155560348661e-01 8.318849805451178270e+01
1.213708296954317256e-01 7.906924155431298118e+01
1.227119438348285574e-01 7.508204804035229074e+01
1.240530579742254169e-01 7.359803330550002443e+01
1.253941721136222764e-01 7.007168890402924433e+01
1.267352862530191082e-01 6.542284433877371441e+01
1.280764003924159677e-01 6.217787946345875127e+01
1.294175145318128273e-01 5.928289639515777765e+01
1.307586286712096590e-01 5.602568876563837819e+01
1.320997428106065186e-01 5.324322205963410681e+01
1.334408569500033781e-01 5.090590103059435023e+01
1.347819710894002376e-01 4.825957634224758408e+01
1.361230852287970972e-01 4.563954307077324302e+01
1.374641993681939289e-01 4.413304239755838410e+01
1.388053135075907885e-01 4.189664422226195484e+01
1.401464276469876480e-01 3.915566417807484356e+01
1.414875417863844798e-01 3.626843310353775962e+01
1.428286559257813393e-01 3.422627054265205970e+01
1.441697700651781988e-01 3.223699708862693569e+01
1.455108842045750306e-01 2.996697609432460752e+01
1.468519983439718901e-01 2.843647306990143875e+01
1.481931124833687219e-01 2.667041288430048951e+01
1.495342266227655814e-01 2.434018548977680041e+01
1.508753407621624687e-01 2.315010047630603651e+01
1.522164549015593005e-01 2.259034392051330542e+01
1.535575690409561600e-01 2.112964980317320851e+01
1.548986831803530195e-01 1.949540474380444266e+01
1.562397973197498513e-01 1.831452652576925288e+01
1.575809114591467108e-01 1.627179688316478234e+01
1.589220255985435704e-01 1.422418947538470491e+01
1.602631397379404021e-01 1.338801387758665840e+01
1.616042538773372617e-01 1.306842783240742278e+01
1.629453680167341212e-01 1.241865927490077581e+01
1.642864821561309530e-01 1.172056367860977844e+01
1.656275962955278125e-01 1.062178066592565528e+01
1.669687104349246720e-01 9.590227542131103178e+00
1.683098245743215315e-01 9.109249738218423431e+00
1.696509387137183911e-01 8.329097323539556896e+00
1.709920528531152228e-01 7.561167877749980448e+00
1.723331669925120824e-01 6.979854579736326059e+00
1.736742811319089419e-01 6.041450561899097238e+00
1.750153952713057737e-01 5.481967347763685439e+00
1.763565094107026332e-01 5.424181751790740691e+00
1.776976235500994927e-01 5.667190810196345296e+00
1.790387376894963245e-01 4.981021056441164774e+00
1.803798518288931840e-01 4.100340939137623764e+00
1.817209659682900158e-01 4.112451753016699740e+00
1.830620801076868753e-01 4.152329556068352190e+00
1.844031942470837349e-01 4.180729863988887018e+00
1.857443083864805944e-01 3.499381732480429719e+00
1.870854225258774539e-01 2.976485423654565921e+00
1.884265366652743134e-01 2.583233628982952723e+00
1.897676508046711452e-01 2.656361601638437264e+00
1.911087649440680047e-01 2.318355084180367953e+00
1.924498790834648643e-01 2.445462308076841396e+00
1.937909932228616960e-01 2.121253168222438035e+00
1.951321073622585556e-01 1.649333640694720771e+00
1.964732215016554151e-01 2.420536093121810950e+00
1.978143356410522469e-01 2.607727245687144091e+00
1.991554497804491064e-01 2.278550283977793356e+00
2.004965639198459382e-01 2.033896355117065013e+00
2.018376780592427977e-01 9.926126952143619064e-01
2.031787921986396572e-01 1.235066204463791451e+00
2.045199063380365168e-01 1.357300330211046457e+00
2.058610204774333763e-01 1.505284126273423340e+00
2.072021346168302081e-01 2.407355372566982510e+00
2.085432487562270676e-01 2.403028479624282454e+00
2.098843628956239271e-01 2.581437421179103353e+00
2.112254770350207866e-01 2.070407379830214722e+00
2.125665911744176462e-01 1.480850137215099949e+00
2.139077053138144502e-01 2.351579346561933903e+00
2.152488194532113097e-01 2.502527008538294240e+00
2.165899335926081692e-01 2.544523986466913357e+00
2.179310477320050288e-01 2.612579828925319703e+00
2.192721618714018883e-01 3.157623041961272747e+00
2.206132760107987478e-01 3.450924312798754556e+00
2.219543901501955796e-01 3.822670689913934439e+00
2.232955042895924391e-01 3.135943673996465009e+00
2.246366184289892987e-01 2.566795346984235948e+00
2.259777325683861582e-01 3.226632579015060287e+00
2.273188467077830177e-01 3.102847008945182949e+00
2.286599608471798217e-01 2.894054664525256726e+00
2.300010749865766813e-01 3.800877634281356166e+00
2.313421891259735408e-01 4.059750402153014193e+00
2.326833032653704003e-01 3.597815697512345423e+00
2.340244174047672598e-01 3.453971113815981653e+00
2.353655315441641194e-01 3.555998475233366207e+00
2.367066456835609234e-01 4.246400151130224287e+00
2.380477598229577829e-01 4.380968192554540508e+00
2.393888739623546424e-01 3.747177836581414567e+00
2.407299881017515020e-01 3.782420754595449353e+00
2.420711022411483615e-01 3.748912943597332514e+00
2.434122163805451933e-01 3.618762365749340404e+00
2.447533305199420528e-01 3.484420726326561635e+00
2.460944446593389123e-01 3.889646966224731273e+00
2.474355587987357719e-01 4.470578945862840214e+00
2.487766729381326314e-01 4.299659417256201266e+00
2.501177870775294632e-01 4.410948259054670473e+00
2.514589012169263227e-01 4.161542138987222472e+00
2.528000153563231822e-01 4.336902872401672937e+00
2.541411294957200417e-01 3.999428459821750437e+00
2.554822436351169013e-01 3.694807267375324500e+00
2.568233577745137608e-01 3.467313649655949348e+00
2.581644719139106203e-01 3.860704755326899829e+00
2.595055860533074243e-01 3.988710616599121295e+00
2.608467001927042839e-01 3.813860933979128731e+00
2.621878143321011434e-01 3.595878377660184810e+00
2.635289284714980029e-01 4.210234964510945588e+00
2.648700426108948625e-01 3.646123057465089801e+00
2.662111567502916665e-01 3.454320524541650173e+00
2.675522708896885260e-01 3.467522294805867489e+00
2.688933850290853855e-01 3.591749201076986253e+00
2.702344991684822451e-01 3.847817939327150327e+00
2.715756133078791046e-01 3.324033381337407889e+00
2.729167274472759641e-01 3.137207560263455264e+00
2.742578415866727681e-01 2.682703817228251353e+00
2.755989557260696277e-01 2.576001876968270210e+00
2.769400698654664872e-01 3.147518544897501158e+00
2.782811840048633467e-01 3.725052561894273140e+00
2.796222981442602062e-01 3.502952685471477423e+00
2.809634122836570103e-01 3.042323787166992588e+00
2.823045264230538698e-01 2.590280506051300335e+00
2.836456405624507293e-01 2.811507162522445924e+00
2.849867547018475888e-01 2.904394744148184770e+00
2.863278688412444484e-01 2.972863413929559329e+00
2.876689829806413079e-01 2.805879856799464278e+00
2.890100971200381674e-01 2.677004247892838862e+00
2.903512112594350270e-01 2.816496269977271538e+00
2.916923253988318865e-01 2.776753018157414488e+00
2.930334395382287460e-01 2.399993294209878059e+00
2.943745536776256055e-01 2.429521966332906402e+00
2.957156678170224096e-01 2.839527515451671036e+00
2.970567819564192691e-01 2.738734807928253190e+00
2.983978960958161286e-01 2.717345480761714782e+00
2.997390102352129881e-01 2.942548837009326235e+00
3.010801243746098477e-01 2.527291359499862722e+00
3.024212385140067072e-01 2.552328103017622141e+00
3.037623526534035112e-01 2.140938809781026464e+00
3.051034667928003707e-01 1.891294549217846566e+00
3.064445809321972303e-01 2.005386659217549550e+00
3.077856950715940898e-01 1.910855021038486257e+00
3.091268092109909493e-01 1.410001412050625902e+00
3.104679233503877533e-01 1.108934855881393844e+00
3.118090374897846129e-01 1.581569893858784326e+00
3.131501516291814724e-01 1.661604200453304259e+00
3.144912657685783319e-01 1.969575969324210973e+00
3.158323799079751915e-01 1.645806431296527705e+00
3.171734940473720510e-01 1.530317788108938259e+00
3.185146081867689105e-01 1.823025985214250966e+00
3.198557223261657700e-01 1.692649411916313795e+00
3.211968364655626296e-01 1.759794718579861694e+00
3.225379506049594891e-01 2.075314236565212411e+00
3.238790647443563486e-01 1.803359331629224016e+00
3.252201788837532082e-01 1.237263142946005701e+00
3.265612930231500122e-01 1.306865814109336554e+00
3.279024071625468717e-01 1.480958920896256359e+00
3.292435213019437312e-01 1.799694381181780045e+00
3.305846354413405908e-01 1.469221099783190709e+00
3.319257495807374503e-01 1.234914311218169303e+00
3.332668637201342543e-01 1.806284024755022699e+00
3.346079778595311138e-01 1.551093755595822188e+00
3.359490919989279734e-01 1.470660232634919851e+00
3.372902061383248329e-01 1.563657160893711762e+00
3.386313202777216924e-01 1.240630949554685003e+00
3.399724344171185519e-01 1.711281904819536237e+00
3.413135485565153560e-01 1.729938908131657627e+00
3.426546626959122155e-01 1.751441099586159567e+00
3.439957768353090750e-01 1.610055207623346973e+00
3.453368909747059345e-01 1.247281447661393372e+00
3.466780051141027941e-01 9.960944614625830695e-01
3.480191192534995981e-01 1.132724883159056617e+00
3.493602333928964576e-01 1.093708313613674932e+00
3.507013475322933171e-01 1.074158644339320290e+00
3.520424616716901767e-01 9.595990098491924414e-01
3.533835758110870362e-01 1.051589381840344117e+00
3.547246899504838957e-01 1.727140153862393390e+00
3.560658040898807553e-01 2.032465439016725384e+00
3.574069182292776148e-01 1.492933734304386917e+00
3.587480323686744743e-01 1.453422097636149601e+00
3.600891465080713338e-01 1.354859538620253545e+00
3.614302606474681934e-01 1.255923908579354986e+00
3.627713747868649974e-01 8.009150249631105112e-01
3.641124889262618569e-01 1.269250780870258666e+00
3.654536030656587164e-01 1.410732150589140588e+00
3.667947172050555760e-01 1.125150199423096353e+00
3.681358313444524355e-01 1.386427781478076326e+00
3.694769454838492950e-01 1.330995740640595670e+00
3.708180596232460990e-01 1.362628133891220727e+00
3.721591737626429586e-01 1.660600096702687267e+00
3.735002879020398181e-01 1.609128567274098032e+00
3.748414020414366776e-01 1.599643424189274299e+00
3.761825161808335372e-01 1.551106495430076393e+00
3.775236303202303967e-01 1.414412304042642177e+00
3.788647444596272007e-01 1.449437715216625122e+00
3.802058585990240602e-01 1.594629444546541208e+00
3.815469727384209198e-01 1.617428567995673916e+00
3.828880868778177793e-01 1.613030564904583741e+00
3.842292010172146388e-01 1.480340815601266513e+00
3.855703151566114428e-01 1.293254510252381806e+00
3.869114292960083024e-01 1.314192542661707819e+00
3.882525434354051619e-01 1.635895044136098875e+00
3.895936575748020214e-01 1.222445188863268584e+00
3.909347717141988809e-01 1.231196828893416750e+00
3.922758858535957405e-01 1.521165291210714088e+00
3.936169999929926000e-01 1.527898016265510250e+00
3.949581141323894595e-01 1.642094123251560234e+00
3.962992282717863191e-01 1.755205819338449658e+00
3.976403424111831786e-01 1.293945108665880639e+00
3.989814565505800381e-01 1.481757664308290146e+00
4.003225706899768976e-01 1.500120676306323730e+00
4.016636848293737572e-01 1.539018920147547931e+00
4.030047989687706167e-01 1.627409473054676425e+00
4.043459131081674207e-01 1.322816989750897676e+00
4.056870272475643358e-01 1.684860688290235942e+00
4.070281413869611398e-01 1.378808812941102246e+00
4.083692555263580548e-01 1.221160311199966486e+00
4.097103696657548588e-01 1.342595622664255473e+00
4.110514838051517739e-01 1.167948613730914076e+00
4.123925979445485779e-01 1.078442794866717236e+00
4.137337120839453819e-01 1.178082192196420408e+00
4.150748262233422969e-01 1.424647168073150283e+00
4.164159403627391010e-01 1.689191888644138828e+00
4.177570545021360160e-01 1.682350164212422783e+00
4.190981686415328200e-01 1.848280038829209104e+00
4.204392827809296240e-01 1.447336376007811509e+00
4.217803969203265391e-01 1.418010220069518823e+00
4.231215110597233431e-01 1.452531334862214862e+00
4.244626251991202581e-01 1.511257812893063601e+00
4.258037393385170621e-01 1.544700019277613023e+00
4.271448534779138662e-01 1.553281022794038790e+00
4.284859676173107812e-01 1.335959918485038145e+00
4.298270817567075852e-01 1.485835975141171161e+00
4.311681958961045003e-01 1.509211254575973271e+00
4.325093100355013043e-01 1.347017397720229326e+00
4.338504241748981638e-01 1.351236271554455470e+00
4.351915383142950233e-01 1.097983496937828818e+00
4.365326524536918829e-01 1.517836372071080575e+00
4.378737665930887424e-01 1.596087248386410806e+00
4.392148807324856019e-01 1.511010931880825581e+00
4.405559948718824614e-01 1.165556078055274725e+00
4.418971090112793210e-01 8.236811636029344186e-01
4.432382231506761250e-01 1.151592446644080781e+00
4.445793372900730400e-01 1.110262628744159485e+00
4.459204514294698440e-01 1.206681702382930155e+00
4.472615655688667591e-01 1.592903629976696323e+00
4.486026797082635631e-01 1.607939921263522365e+00
4.499437938476603671e-01 1.390712349213416132e+00
4.512849079870572822e-01 9.145789038149558792e-01
4.526260221264540862e-01 1.406978560419133828e+00
4.539671362658510012e-01 1.337738635190234504e+00
4.553082504052478052e-01 1.201095738419475367e+00
4.566493645446446092e-01 1.087875690716863630e+00
4.579904786840415243e-01 1.065935576301406229e+00
4.593315928234383283e-01 1.143216211515273528e+00
4.606727069628352433e-01 1.106813996409762524e+00
4.620138211022320474e-01 1.428415491174042984e+00
4.633549352416289624e-01 1.171934038880237949e+00
4.646960493810257664e-01 1.260322003388523626e+00
4.660371635204225704e-01 1.221891938427511093e+00
4.673782776598194855e-01 1.260051408398922490e+00
4.687193917992162895e-01 1.400222950337571604e+00
4.700605059386132045e-01 1.114266386488658611e+00
4.714016200780100085e-01 8.490402915881460899e-01
4.727427342174068681e-01 9.418197857116794580e-01
4.740838483568037276e-01 7.676721605959997419e-01
4.754249624962005871e-01 7.839687585745096499e-01
4.767660766355974467e-01 9.637405522024664606e-01
4.781071907749943062e-01 8.238024819249645248e-01
4.794483049143911102e-01 9.953139433607063324e-01
4.807894190537880252e-01 9.282444749996940914e-01
4.821305331931848293e-01 9.003125824556335033e-01
4.834716473325817443e-01 1.030840258326882974e+00
4.848127614719785483e-01 1.001340801477290654e+00
4.861538756113753523e-01 1.260500448580010868e+00
4.874949897507722674e-01 1.121284888685998737e+00
4.888361038901690714e-01 1.218381701175452747e+00
4.901772180295659864e-01 9.841297110206284060e-01
4.915183321689627904e-01 9.196826727235887233e-01
4.928594463083597055e-01 6.517845174521497142e-01
4.942005604477565095e-01 9.140850019757706946e-01
4.955416745871533135e-01 1.049053344869953719e+00
4.968827887265502286e-01 9.466662671257921602e-01
4.982239028659470326e-01 6.732179258538550926e-01
4.995650170053439476e-01 7.531735146219702415e-01
5.009061311447408071e-01 4.865110212432099956e-01
5.022472452841375556e-01 8.144797858371504162e-01
5.035883594235345262e-01 8.036201288452318181e-01
5.049294735629312747e-01 1.129513333594672986e+00
5.062705877023282452e-01 8.571136663096368125e-01
5.076117018417249938e-01 8.529487217974818236e-01
5.089528159811218533e-01 5.262269979104203799e-01
5.102939301205187128e-01 5.944825223100735911e-01
5.116350442599155723e-01 5.935354567471264886e-01
5.129761583993124319e-01 4.089246573270841623e-01
5.143172725387092914e-01 7.077776979721406292e-01
5.156583866781061509e-01 1.010726773493388464e+00
5.169995008175030105e-01 1.044423649918819308e+00
5.183406149568997590e-01 6.634958044242580399e-01
5.196817290962967295e-01 8.942822182852765422e-01
5.210228432356934780e-01 9.500607974352703877e-01
5.223639573750904486e-01 9.090715264537081453e-01
5.237050715144871971e-01 1.003633020297492351e+00
5.250461856538840566e-01 1.086481544929618792e+00
5.263872997932809161e-01 6.175950777557162041e-01
5.277284139326777757e-01 5.924015965842244213e-01
5.290695280720746352e-01 4.766991387150127935e-01
5.304106422114714947e-01 5.244997926931418419e-01
5.317517563508683542e-01 4.217701331585459457e-01
5.330928704902652138e-01 3.950406625680500383e-01
5.344339846296620733e-01 4.956228586647455359e-01
5.357750987690589328e-01 7.349492452587185198e-01
5.371162129084557924e-01 7.415843759953304470e-01
5.384573270478525409e-01 7.478334357734368609e-01
5.397984411872495114e-01 7.404492126236448257e-01
5.411395553266462599e-01 5.956038717409626315e-01
5.424806694660432305e-01 6.851212548700473803e-01
5.438217836054399790e-01 9.298825268068284799e-01
5.451628977448369495e-01 9.184621064508604604e-01
5.465040118842336980e-01 6.512069665743425162e-01
5.478451260236305576e-01 6.453958755710047512e-01
5.491862401630274171e-01 6.954589580786318948e-01
5.505273543024242766e-01 5.255197273931599966e-01
5.518684684418211361e-01 6.697326689834994795e-01
5.532095825812179957e-01 8.171553953151544647e-01
5.545506967206147442e-01 5.065449630140861359e-01
