# q (1/Angstrom), Intensity (arb)
2.078726924066784734e-02 2.636222260826062325e+01
2.212838338006469993e-02 7.535055752291998488e+01
2.346949751946154905e-02 1.139127904330002536e+02
2.481061165885840164e-02 1.392879774742687289e+02
2.615172579825525423e-02 1.494365711689949876e+02
2.749283993765210335e-02 1.556612693421595566e+02
2.883395407704895941e-02 1.606422306496174599e+02
3.017506821644580506e-02 1.665712776181455013e+02
3.151618235584265765e-02 1.647470944887133726e+02
3.285729649523951718e-02 1.628456753860467927e+02
3.419841063463636283e-02 1.594118531414038671e+02
3.553952477403321542e-02 1.582807050442590651e+02
3.688063891343006800e-02 1.533980623658223692e+02
3.822175305282692059e-02 1.506063223048894315e+02
3.956286719222376624e-02 1.491132611066904587e+02
4.090398133162062577e-02 1.465539676577353134e+02
4.224509547101747142e-02 1.443980122011309959e+02
4.358620961041432401e-02 1.432572063894197925e+02
4.492732374981117660e-02 1.397430513851442413e+02
4.626843788920802919e-02 1.379919157292553678e+02
4.760955202860488178e-02 1.374447761738182976e+02
4.895066616800172743e-02 1.342793050682347484e+02
5.029178030739858696e-02 1.312560984236833974e+02
5.163289444679544649e-02 1.282051443234157944e+02
5.297400858619229214e-02 1.270118311321242146e+02
5.431512272558913779e-02 1.261063900108229205e+02
5.565623686498599731e-02 1.233286698806612662e+02
5.699735100438284990e-02 1.201843972013407722e+02
5.833846514377969555e-02 1.177400070327601895e+02
5.967957928317654814e-02 1.142455589298296701e+02
6.102069342257340767e-02 1.137457916391958292e+02
6.236180756197025332e-02 1.110495029654461234e+02
6.370292170136709897e-02 1.083131509790947575e+02
6.504403584076395850e-02 1.056858231834178952e+02
6.638514998016080415e-02 1.029126363112921183e+02
6.772626411955766368e-02 9.975634991645132743e+01
6.906737825895450933e-02 9.621257023436089639e+01
7.040849239835136886e-02 9.377707000101007395e+01
7.174960653774821451e-02 9.145074841175618019e+01
7.309072067714506016e-02 8.944164675614375426e+01
7.443183481654190581e-02 8.692001740322713488e+01
7.577294895593877921e-02 8.512692616117936950e+01
7.711406309533562486e-02 8.321980498348530375e+01
7.845517723473247051e-02 8.156270530170630195e+01
7.979629137412933004e-02 7.806018960669359785e+01
8.113740551352617569e-02 7.657076099609828645e+01
8.247851965292302134e-02 7.556069441808702436e+01
8.381963379231988087e-02 7.622210960089222453e+01
8.516074793171674040e-02 7.650988138017929430e+01
8.650186207111358605e-02 7.850277681261361806e+01
8.784297621051043170e-02 9.064134545466819759e+01
8.918409034990729123e-02 1.402650434502528469e+02
9.052520448930413688e-02 2.554338033202465681e+02
9.186631862870098253e-02 3.877204066510957432e+02
9.320743276809784206e-02 5.595639163467840262e+02
9.454854690749470159e-02 1.136764037977385215e+03
9.588966104689154724e-02 2.151918394755887221e+03
9.723077518628839289e-02 2.385370050913141313e+03
9.857188932568525241e-02 1.464247405853099053e+03
9.991300346508209806e-02 7.318887484011288507e+02
1.012541176044789437e-01 4.654749374488384319e+02
1.025952317438758032e-01 3.692274550274856892e+02
1.039363458832726350e-01 3.109066335978901634e+02
1.052774600226694945e-01 2.650169054540625666e+02
1.066185741620663541e-01 2.305613232316376298e+02
1.079596883014631858e-01 2.207105631894473845e+02
1.093008024408600454e-01 2.730096464663035931e+02
1.106419165802569049e-01 3.910528548553440942e+02
1.119830307196537506e-01 4.009259965109181394e+02
1.133241448590506101e-01 2.510354178387667616e+02
1.146652589984474419e-01 1.160719240677650816e+02
1.160063731378443014e-01 6.231396462257997371e+01
1.173474872772411609e-01 4.328225127192695254e+01
1.186886014166380066e-01 3.361525020109797879e+01
1.200297155560348661e-01 2.811864092163399675e+01
1.213708296954317256e-01 2.376500065467740797e+01
1.227119438348285574e-01 2.052102772675168296e+01
1.240530579742254169e-01 1.773322295441755614e+01
1.253941721136222764e-01 1.467476696101211076e+01
1.267352862530191082e-01 1.361127286465529096e+01
1.280764003924159677e-01 1.279239586829996256e+01
1.294175145318128273e-01 1.190490012827137889e+01
1.307586286712096590e-01 1.057778413848555488e+01
1.320997428106065186e-01 9.575545828195544118e+00
1.334408569500033781e-01 9.201736604015962939e+00
1.347819710894002376e-01 8.353181580199276368e+00
1.361230852287970972e-01 7.145517862829450451e+00
1.374641993681939289e-01 5.505896750444321697e+00
1.388053135075907885e-01 6.015071146553879089e+00
1.401464276469876480e-01 6.319308219652995717e+00
1.414875417863844798e-01 4.895881754344515002e+00
1.428286559257813393e-01 4.986597706880601777e+00
1.441697700651781988e-01 4.709681973643043307e+00
1.455108842045750306e-01 5.295326409274522916e+00
1.468519983439718901e-01 4.938965188554817587e+00
1.481931124833687219e-01 4.864347354654825040e+00
1.495342266227655814e-01 4.790679616005064645e+00
1.508753407621624687e-01 5.003470250489044702e+00
1.522164549015593005e-01 5.250787929404197030e+00
1.535575690409561600e-01 6.157502932403048135e+00
1.548986831803530195e-01 1.060596245825173867e+01
1.562397973197498513e-01 2.353961785861568501e+01
1.575809114591467108e-01 3.838222449482063325e+01
1.589220255985435704e-01 3.366337732558423568e+01
1.602631397379404021e-01 1.854954749081045406e+01
1.616042538773372617e-01 1.073843165238116626e+01
1.629453680167341212e-01 7.925989820781012440e+00
1.642864821561309530e-01 7.791674804053386083e+00
1.656275962955278125e-01 8.227601398356185314e+00
1.669687104349246720e-01 8.407769789795267457e+00
1.683098245743215315e-01 7.934146266745031539e+00
1.696509387137183911e-01 8.219076957850262488e+00
1.709920528531152228e-01 8.115739507289362109e+00
1.723331669925120824e-01 9.049760893304409137e+00
1.736742811319089419e-01 9.674898092172156794e+00
1.750153952713057737e-01 9.096870168356574027e+00
1.763565094107026332e-01 9.499907576831290612e+00
1.776976235500994927e-01 9.456341519007665397e+00
1.790387376894963245e-01 1.036921471543094242e+01
1.803798518288931840e-01 1.419861661480759096e+01
1.817209659682900158e-01 2.623970138547728936e+01
1.830620801076868753e-01 6.161049738332202708e+01
1.844031942470837349e-01 1.149260700585360979e+02
1.857443083864805944e-01 1.186498036863833079e+02
1.870854225258774539e-01 7.225883065749580680e+01
1.884265366652743134e-01 3.759048678678225031e+01
1.897676508046711452e-01 2.670138255782565295e+01
1.911087649440680047e-01 2.860003498145526635e+01
1.924498790834648643e-01 3.533322539611307889e+01
1.937909932228616960e-01 3.534855321632326763e+01
1.951321073622585556e-01 2.325133705946343810e+01
1.964732215016554151e-01 1.286978722054990953e+01
1.978143356410522469e-01 8.316029054933224529e+00
1.991554497804491064e-01 6.621216256658385646e+00
2.004965639198459382e-01 5.939614923654943368e+00
2.018376780592427977e-01 4.823150342796893142e+00
2.031787921986396572e-01 4.393145391261512600e+00
2.045199063380365168e-01 4.594528929163800512e+00
2.058610204774333763e-01 4.486694184547530995e+00
2.072021346168302081e-01 4.382768369412218590e+00
2.085432487562270676e-01 3.728553053486777458e+00
2.098843628956239271e-01 3.748208119099743385e+00
2.112254770350207866e-01 3.764479396290411728e+00
2.125665911744176462e-01 3.324582827786656480e+00
2.139077053138144502e-01 3.062303587320258202e+00
2.152488194532113097e-01 3.517866977403613760e+00
2.165899335926081692e-01 3.984304950667919343e+00
2.179310477320050288e-01 4.233682977302180461e+00
2.192721618714018883e-01 3.573708446699399133e+00
2.206132760107987478e-01 3.738099371259338000e+00
2.219543901501955796e-01 4.321311305829681260e+00
2.232955042895924391e-01 4.894677216427268718e+00
2.246366184289892987e-01 4.219346769098976324e+00
2.259777325683861582e-01 3.382834018918941865e+00
2.273188467077830177e-01 3.286800629005966812e+00
2.286599608471798217e-01 2.689425311565884158e+00
2.300010749865766813e-01 2.371298681942874964e+00
2.313421891259735408e-01 2.136411526240010517e+00
2.326833032653704003e-01 2.106356886133070816e+00
2.340244174047672598e-01 1.951557515404957144e+00
2.353655315441641194e-01 2.377403851353520281e+00
2.367066456835609234e-01 2.023196039463364571e+00
2.380477598229577829e-01 1.986262447092208561e+00
2.393888739623546424e-01 1.687045492148712356e+00
2.407299881017515020e-01 1.427281609106614724e+00
2.420711022411483615e-01 1.351039867783299542e+00
2.434122163805451933e-01 1.746819843206644407e+00
2.447533305199420528e-01 1.865268918481895355e+00
2.460944446593389123e-01 1.913969327829349254e+00
2.474355587987357719e-01 2.017340045324161224e+00
2.487766729381326314e-01 1.728487966099940820e+00
2.501177870775294632e-01 1.973996912684128802e+00
2.514589012169263227e-01 1.819099020926614685e+00
2.528000153563231822e-01 1.574804456218778625e+00
2.541411294957200417e-01 1.929459277943507800e+00
2.554822436351169013e-01 1.633066050864577790e+00
2.568233577745137608e-01 1.331361262256322675e+00
2.581644719139106203e-01 1.662224214619556051e+00
2.595055860533074243e-01 1.662740635617439011e+00
2.608467001927042839e-01 1.558732318395072980e+00
2.621878143321011434e-01 1.621878430243782532e+00
2.635289284714980029e-01 1.522805031017618660e+00
2.648700426108948625e-01 1.942170413034823184e+00
2.662111567502916665e-01 2.033197317755622180e+00
2.675522708896885260e-01 1.956555092066224688e+00
2.688933850290853855e-01 2.767502339130778921e+00
2.702344991684822451e-01 2.773735021523400235e+00
2.715756133078791046e-01 4.305950704441144694e+00
2.729167274472759641e-01 5.344449616808155668e+00
2.742578415866727681e-01 5.114535169480255661e+00
2.755989557260696277e-01 3.682851491021764900e+00
2.769400698654664872e-01 3.105507927887309449e+00
2.782811840048633467e-01 2.323127934904157144e+00
2.796222981442602062e-01 2.353091913225135556e+00
2.809634122836570103e-01 2.775902357379749219e+00
2.823045264230538698e-01 2.521438495429286775e+00
2.836456405624507293e-01 2.427565886224485325e+00
2.849867547018475888e-01 2.815055673016438220e+00
2.863278688412444484e-01 3.400254631977340125e+00
2.876689829806413079e-01 5.084544823525078527e+00
2.890100971200381674e-01 7.296559689246642222e+00
2.903512112594350270e-01 7.721881099834483564e+00
2.916923253988318865e-01 5.473270773486049734e+00
2.930334395382287460e-01 2.934874942067587256e+00
2.943745536776256055e-01 2.258824708676954174e+00
2.957156678170224096e-01 2.022628027781735227e+00
2.970567819564192691e-01 1.952121053536281181e+00
2.983978960958161286e-01 2.160095067456516915e+00
2.997390102352129881e-01 1.920826323431981564e+00
3.010801243746098477e-01 1.690192788103210830e+00
3.024212385140067072e-01 1.299030164740962334e+00
3.037623526534035112e-01 1.483150270063930520e+00
3.051034667928003707e-01 1.694024954841012232e+00
3.064445809321972303e-01 1.703524857860529096e+00
3.077856950715940898e-01 1.847500775784418181e+00
3.091268092109909493e-01 2.562620556079330925e+00
3.104679233503877533e-01 1.904964667231716646e+00
3.118090374897846129e-01 1.125959902804055446e+00
3.131501516291814724e-01 1.622824507883358081e+00
3.144912657685783319e-01 2.182585378023112810e+00
3.158323799079751915e-01 2.352738406730992438e+00
3.171734940473720510e-01 2.415390483274286737e+00
3.185146081867689105e-01 1.656407621315096890e+00
3.198557223261657700e-01 1.546112972304655386e+00
3.211968364655626296e-01 1.135390450823642539e+00
3.225379506049594891e-01 1.137883081405071550e+00
3.238790647443563486e-01 9.146284129578603483e-01
3.252201788837532082e-01 6.801149452976531506e-01
3.265612930231500122e-01 1.326618543218955892e+00
3.279024071625468717e-01 2.280527430033764347e+00
3.292435213019437312e-01 2.083432176758179821e+00
3.305846354413405908e-01 2.242504004788465011e+00
3.319257495807374503e-01 2.062071609441858300e+00
3.332668637201342543e-01 1.561232956045401465e+00
3.346079778595311138e-01 1.214629279601645351e+00
3.359490919989279734e-01 1.558087370528355109e+00
3.372902061383248329e-01 1.264825488944495646e+00
3.386313202777216924e-01 1.264953065580129987e+00
3.399724344171185519e-01 1.472833184873216794e+00
3.413135485565153560e-01 1.431078437002241799e+00
3.426546626959122155e-01 8.336265641241809021e-01
3.439957768353090750e-01 1.017420887698669674e+00
3.453368909747059345e-01 6.751285158114583851e-01
3.466780051141027941e-01 4.662030369159495535e-01
3.480191192534995981e-01 5.542191750100897707e-01
3.493602333928964576e-01 8.136116915790765347e-01
3.507013475322933171e-01 9.491679725076735963e-01
3.520424616716901767e-01 1.253069293912737692e+00
3.533835758110870362e-01 9.886686407815830080e-01
3.547246899504838957e-01 1.288348252878861899e+00
3.560658040898807553e-01 1.291237283853924112e+00
3.574069182292776148e-01 1.027453394000026776e+00
3.587480323686744743e-01 7.009475872628954107e-01
3.600891465080713338e-01 7.856560397988019417e-01
3.614302606474681934e-01 9.951415238698686494e-01
3.627713747868649974e-01 1.308292547718295395e+00
3.641124889262618569e-01 9.127211142916991093e-01
3.654536030656587164e-01 1.036525349351286707e+00
3.667947172050555760e-01 1.099184300088417388e+00
3.681358313444524355e-01 9.820847077369734279e-01
3.694769454838492950e-01 1.203366778407968241e+00
3.708180596232460990e-01 1.129955429421961810e+00
3.721591737626429586e-01 9.788224788408825816e-01
3.735002879020398181e-01 6.660420062473164649e-01
3.748414020414366776e-01 7.593613597749140354e-01
3.761825161808335372e-01 1.074387723453320120e+00
3.775236303202303967e-01 1.233382616518184705e+00
3.788647444596272007e-01 1.051710542955397898e+00
3.802058585990240602e-01 9.766993575942990446e-01
3.815469727384209198e-01 9.298078164720209315e-01
3.828880868778177793e-01 1.267276571150368625e+00
3.842292010172146388e-01 1.158692073545466883e+00
3.855703151566114428e-01 1.563735064304452749e+00
3.869114292960083024e-01 1.534312361336063191e+00
3.882525434354051619e-01 1.423482729554621073e+00
3.895936575748020214e-01 1.375216696522436166e+00
3.909347717141988809e-01 1.123819949202804480e+00
3.922758858535957405e-01 1.104680654442859122e+00
3.936169999929926000e-01 1.273151293258443673e+00
3.949581141323894595e-01 1.263505452572992738e+00
3.962992282717863191e-01 1.776219993532379249e+00
3.976403424111831786e-01 2.024764606648076892e+00
3.989814565505800381e-01 1.729350029642077402e+00
4.003225706899768976e-01 1.873311196659862787e+00
4.016636848293737572e-01 1.828038581818617558e+00
4.030047989687706167e-01 1.602156350524630568e+00
4.043459131081674207e-01 1.724663782986382898e+00
4.056870272475643358e-01 1.804238316127076303e+00
4.070281413869611398e-01 1.609798580806227619e+00
4.083692555263580548e-01 1.570177370260253724e+00
4.097103696657548588e-01 1.206405934882027964e+00
4.110514838051517739e-01 8.674376999901411978e-01
4.123925979445485779e-01 1.076768200774175455e+00
4.137337120839453819e-01 1.248663728718149457e+00
4.150748262233422969e-01 1.134759665760782354e+00
4.164159403627391010e-01 1.006573196138539572e+00
4.177570545021360160e-01 1.190427684512400219e+00
4.190981686415328200e-01 1.219504933677534098e+00
4.204392827809296240e-01 1.139607245912486633e+00
4.217803969203265391e-01 1.372663441907548076e+00
4.231215110597233431e-01 1.470242378683025208e+00
4.244626251991202581e-01 1.068464055619827491e+00
4.258037393385170621e-01 7.910045138360288774e-01
4.271448534779138662e-01 9.166022446635224696e-01
4.284859676173107812e-01 9.829334294012923579e-01
4.298270817567075852e-01 1.047452135228645886e+00
4.311681958961045003e-01 1.383079285052552621e+00
4.325093100355013043e-01 1.199003240317431107e+00
4.338504241748981638e-01 7.363109330247965545e-01
4.351915383142950233e-01 1.493674802439493021e+00
4.365326524536918829e-01 1.156534850970530215e+00
4.378737665930887424e-01 9.227047864131989741e-01
4.392148807324856019e-01 9.129896572106517283e-01
4.405559948718824614e-01 8.887873548123579326e-01
4.418971090112793210e-01 8.468416240041563015e-01
4.432382231506761250e-01 9.619088481415118963e-01
4.445793372900730400e-01 1.085729031268563460e+00
4.459204514294698440e-01 9.253955306657672963e-01
4.472615655688667591e-01 1.078968956463519646e+00
4.486026797082635631e-01 9.250783427698934247e-01
4.499437938476603671e-01 6.750698402127497388e-01
4.512849079870572822e-01 8.571421816869744248e-01
4.526260221264540862e-01 9.735098630472833747e-01
4.539671362658510012e-01 1.025448955935807760e+00
4.553082504052478052e-01 8.285806126649148950e-01
4.566493645446446092e-01 8.387237999105323638e-01
4.579904786840415243e-01 5.770856147865401908e-01
4.593315928234383283e-01 4.546640274321518405e-01
4.606727069628352433e-01 7.004563198560447290e-01
4.620138211022320474e-01 7.322736070543243159e-01
4.633549352416289624e-01 8.020574533639219794e-01
4.646960493810257664e-01 1.095384057568374203e+00
4.660371635204225704e-01 6.973485123480074321e-01
4.673782776598194855e-01 4.233326911557142580e-01
4.687193917992162895e-01 9.100483137267190159e-01
4.700605059386132045e-01 7.966378311343831342e-01
4.714016200780100085e-01 5.050633894591527451e-01
4.727427342174068681e-01 8.166305282693997469e-01
4.740838483568037276e-01 9.604608441151896159e-01
4.754249624962005871e-01 1.118108137695109860e+00
4.767660766355974467e-01 9.363644796873842324e-01
4.781071907749943062e-01 9.922606976814307700e-01
4.794483049143911102e-01 9.615094216029334007e-01
4.807894190537880252e-01 9.133012351187019817e-01
4.821305331931848293e-01 8.159790235948065629e-01
4.834716473325817443e-01 9.801651684739809411e-01
4.848127614719785483e-01 1.141771879256765487e+00
4.861538756113753523e-01 7.060783778003596467e-01
4.874949897507722674e-01 6.624523457220021783e-01
4.888361038901690714e-01 8.526738643608098300e-01
4.901772180295659864e-01 8.419357750815734676e-01
4.915183321689627904e-01 8.412350689221526068e-01
4.928594463083597055e-01 8.547419874447967914e-01
4.942005604477565095e-01 6.299819091643001912e-01
4.955416745871533135e-01 4.964292343213827507e-01
4.968827887265502286e-01 9.117397926923302975e-01
4.982239028659470326e-01 1.059191996224946308e+00
4.995650170053439476e-01 1.123256289427352783e+00
5.009061311447408071e-01 1.385212011307253022e+00
5.022472452841375556e-01 8.979318710215693500e-01
5.035883594235345262e-01 1.039537883408101493e+00
5.049294735629312747e-01 6.836961302278368180e-01
5.062705877023282452e-01 5.558137055865230991e-01
5.076117018417249938e-01 9.038223885663185797e-01
5.089528159811218533e-01 6.380410735654251653e-01
5.102939301205187128e-01 3.847663387977533489e-01
5.116350442599155723e-01 6.561261477175577284e-01
5.129761583993124319e-01 3.673286652441518640e-01
5.143172725387092914e-01 3.103264468771556039e-01
5.156583866781061509e-01 8.107588090315687168e-01
5.169995008175030105e-01 9.208192468626279492e-01
5.183406149568997590e-01 8.514448916263077649e-01
5.196817290962967295e-01 9.523048406733920501e-01
5.210228432356934780e-01 9.107406083808626818e-01
5.223639573750904486e-01 8.675602049694646212e-01
5.237050715144871971e-01 8.784398914021025462e-01
5.250461856538840566e-01 9.677977816539282685e-01
5.263872997932809161e-01 6.160706578366159647e-01
5.277284139326777757e-01 5.046254308576649805e-01
5.290695280720746352e-01 9.027315350712399322e-01
5.304106422114714947e-01 7.845176555125945583e-01
5.317517563508683542e-01 7.806884977933492564e-01
5.330928704902652138e-01 5.159477133223191458e-01
5.344339846296620733e-01 3.307498973213824911e-01
5.357750987690589328e-01 4.974600985330113190e-01
5.371162129084557924e-01 6.398417855807636556e-01
5.384573270478525409e-01 6.602808828807482655e-01
5.397984411872495114e-01 6.135356468019779186e-01
5.411395553266462599e-01 6.794420617934306961e-01
5.424806694660432305e-01 4.583687677988805831e-01
5.438217836054399790e-01 5.104848198863365383e-01
5.451628977448369495e-01 4.382743593914426583e-01
5.465040118842336980e-01 2.757462200192222213e-01
5.478451260236305576e-01 0.000000000000000000e+00
5.491862401630274171e-01 3.526131683545870033e-01
5.505273543024242766e-01 2.056488649340124653e-01
5.518684684418211361e-01 4.426210817907616502e-01
5.532095825812179957e-01 5.759513563626299515e-01
5.545506967206147442e-01 4.178615775642526842e-01
