# q (1/Angstrom), Intensity (arb)
2.078726924066784734e-02 2.074255875320338305e+01
2.212838338006469993e-02 6.662547540953138991e+01
2.346949751946154905e-02 9.641453555715060020e+01
2.481061165885840164e-02 1.150556120787171324e+02
2.615172579825525423e-02 1.236178692599019655e+02
2.749283993765210335e-02 1.296008484922697619e+02
2.883395407704895941e-02 1.332176578122732451e+02
3.017506821644580506e-02 1.355706236616660476e+02
3.151618235584265765e-02 1.340157516175970613e+02
3.285729649523951718e-02 1.305162131950392848e+02
3.419841063463636283e-02 1.300431776212084287e+02
3.553952477403321542e-02 1.305700629135852182e+02
3.688063891343006800e-02 1.262394096839928466e+02
3.822175305282692059e-02 1.233116367469352497e+02
3.956286719222376624e-02 1.214987682179291397e+02
4.090398133162062577e-02 1.195771219338013083e+02
4.224509547101747142e-02 1.158895659714599873e+02
4.358620961041432401e-02 1.132491814830426193e+02
4.492732374981117660e-02 1.123203538814769189e+02
4.626843788920802919e-02 1.111571156418872874e+02
4.760955202860488178e-02 1.099243260938535940e+02
4.895066616800172743e-02 1.075404149825163529e+02
5.029178030739858696e-02 1.051759965416225384e+02
5.163289444679544649e-02 1.021737752018349710e+02
5.297400858619229214e-02 1.006337908163575321e+02
5.431512272558913779e-02 1.004010875190182617e+02
5.565623686498599731e-02 9.744471839500015165e+01
5.699735100438284990e-02 9.634744137920857554e+01
5.833846514377969555e-02 9.399933507219900264e+01
5.967957928317654814e-02 9.090193282159114574e+01
6.102069342257340767e-02 8.925292287118590195e+01
6.236180756197025332e-02 8.838702679914129590e+01
6.370292170136709897e-02 8.646186487026638190e+01
6.504403584076395850e-02 8.588909729148346628e+01
6.638514998016080415e-02 8.439829489472055002e+01
6.772626411955766368e-02 8.203650661199634442e+01
6.906737825895450933e-02 8.021017302998302512e+01
7.040849239835136886e-02 7.737464837245327942e+01
7.174960653774821451e-02 7.598384845491774797e+01
7.309072067714506016e-02 7.387387553598526324e+01
7.443183481654190581e-02 7.317364836567089981e+01
7.577294895593877921e-02 7.238084281848414037e+01
7.711406309533562486e-02 7.010395017110239735e+01
7.845517723473247051e-02 6.978140871034342751e+01
7.979629137412933004e-02 6.900588907743427569e+01
8.113740551352617569e-02 6.783062638763186669e+01
8.247851965292302134e-02 6.779387835460170209e+01
8.381963379231988087e-02 7.054794919722438351e+01
8.516074793171674040e-02 7.666955930511358019e+01
8.650186207111358605e-02 1.027030277255992416e+02
8.784297621051043170e-02 1.888571717704146806e+02
8.918409034990729123e-02 3.426398865418041737e+02
9.052520448930413688e-02 5.037506198128713777e+02
9.186631862870098253e-02 8.528725247671363832e+02
9.320743276809784206e-02 1.825077531359163231e+03
9.454854690749470159e-02 2.778239834865532430e+03
9.588966104689154724e-02 2.338468539865621096e+03
9.723077518628839289e-02 1.255422782563945475e+03
9.857188932568525241e-02 6.954829777713882777e+02
9.991300346508209806e-02 4.888534415280315670e+02
1.012541176044789437e-01 3.921739553861042396e+02
1.025952317438758032e-01 3.276551108318155912e+02
1.039363458832726350e-01 2.833663141014554867e+02
1.052774600226694945e-01 2.577969812058951788e+02
1.066185741620663541e-01 2.831663399159305072e+02
1.079596883014631858e-01 3.975828045492983165e+02
1.093008024408600454e-01 4.670522115119576370e+02
1.106419165802569049e-01 3.433178455143209931e+02
1.119830307196537506e-01 1.708768413474940644e+02
1.133241448590506101e-01 8.491664599501334010e+01
1.146652589984474419e-01 5.212437277155868287e+01
1.160063731378443014e-01 3.805626226060110184e+01
1.173474872772411609e-01 3.059956626861057316e+01
1.186886014166380066e-01 2.562701481646830359e+01
1.200297155560348661e-01 2.182569389388335424e+01
1.213708296954317256e-01 1.892013318008814338e+01
1.227119438348285574e-01 1.643029111283361487e+01
1.240530579742254169e-01 1.440300952037792115e+01
1.253941721136222764e-01 1.276396816739946871e+01
1.267352862530191082e-01 1.167085410218669494e+01
1.280764003924159677e-01 1.036955696583324027e+01
1.294175145318128273e-01 9.672346109340196563e+00
1.307586286712096590e-01 9.248681272912506302e+00
1.320997428106065186e-01 8.439938675734239837e+00
1.334408569500033781e-01 7.628190682230794550e+00
1.347819710894002376e-01 7.335356067003957037e+00
1.361230852287970972e-01 6.829997853797607377e+00
1.374641993681939289e-01 5.489469649823675468e+00
1.388053135075907885e-01 5.679147180170716069e+00
1.401464276469876480e-01 5.606004810395958771e+00
1.414875417863844798e-01 4.935233166478340650e+00
1.428286559257813393e-01 4.813284788748447340e+00
1.441697700651781988e-01 4.571906022937156422e+00
1.455108842045750306e-01 4.468652314109547774e+00
1.468519983439718901e-01 5.113006868221873447e+00
1.481931124833687219e-01 5.932422905356276033e+00
1.495342266227655814e-01 6.859965037816650124e+00
1.508753407621624687e-01 9.229703414723630317e+00
1.522164549015593005e-01 1.912992263531153014e+01
1.535575690409561600e-01 3.848329066263499953e+01
1.548986831803530195e-01 4.931197632014718124e+01
1.562397973197498513e-01 3.473173295519364956e+01
1.575809114591467108e-01 1.917192655645879995e+01
1.589220255985435704e-01 1.311820062828962818e+01
1.602631397379404021e-01 1.014096175252687715e+01
1.616042538773372617e-01 9.147236411628952624e+00
1.629453680167341212e-01 8.954797081895577548e+00
1.642864821561309530e-01 9.941139004548432467e+00
1.656275962955278125e-01 1.035133287557860626e+01
1.669687104349246720e-01 1.039782204411758926e+01
1.683098245743215315e-01 9.934463051223843877e+00
1.696509387137183911e-01 9.933444830076126664e+00
1.709920528531152228e-01 1.023986135541504439e+01
1.723331669925120824e-01 1.094204107362340039e+01
1.736742811319089419e-01 1.192901416573488405e+01
1.750153952713057737e-01 1.264546234039988803e+01
1.763565094107026332e-01 1.487355658823415183e+01
1.776976235500994927e-01 2.606297685966822542e+01
1.790387376894963245e-01 6.144060150720765989e+01
1.803798518288931840e-01 1.219121273146430866e+02
1.817209659682900158e-01 1.424651203761986267e+02
1.830620801076868753e-01 9.562668898598766987e+01
1.844031942470837349e-01 5.174401666417750789e+01
1.857443083864805944e-01 3.585116269492723973e+01
1.870854225258774539e-01 3.456465038459155892e+01
1.884265366652743134e-01 4.172207263433020330e+01
1.897676508046711452e-01 4.135206790743416150e+01
1.911087649440680047e-01 2.764095299758605506e+01
1.924498790834648643e-01 1.608303521602870489e+01
1.937909932228616960e-01 1.022017276657118146e+01
1.951321073622585556e-01 7.949313193848269066e+00
1.964732215016554151e-01 6.742093035183700067e+00
1.978143356410522469e-01 4.977438753956903383e+00
1.991554497804491064e-01 4.749077753164186788e+00
2.004965639198459382e-01 4.691612906359196700e+00
2.018376780592427977e-01 4.724280991593516887e+00
2.031787921986396572e-01 4.704178806049498007e+00
2.045199063380365168e-01 4.445823801574590561e+00
2.058610204774333763e-01 3.697238530146577773e+00
2.072021346168302081e-01 3.655702109981803005e+00
2.085432487562270676e-01 3.285712519310763469e+00
2.098843628956239271e-01 3.247894220389738962e+00
2.112254770350207866e-01 3.009390762937812269e+00
2.125665911744176462e-01 3.246252073264884075e+00
2.139077053138144502e-01 3.063327937504354281e+00
2.152488194532113097e-01 3.288572976343104415e+00
2.165899335926081692e-01 4.240601063812611926e+00
2.179310477320050288e-01 5.225584440445544487e+00
2.192721618714018883e-01 5.125115621223528706e+00
2.206132760107987478e-01 3.784528507480430903e+00
2.219543901501955796e-01 2.549631780779733958e+00
2.232955042895924391e-01 2.488415549300270868e+00
2.246366184289892987e-01 2.636929399384541739e+00
2.259777325683861582e-01 2.157563834919969281e+00
2.273188467077830177e-01 2.485006579943075167e+00
2.286599608471798217e-01 2.472544505629009848e+00
2.300010749865766813e-01 1.831476474042659675e+00
2.313421891259735408e-01 2.162205494983986398e+00
2.326833032653704003e-01 2.178449175369678414e+00
2.340244174047672598e-01 1.914421866132173022e+00
2.353655315441641194e-01 2.313870016066132962e+00
2.367066456835609234e-01 2.407813392282406539e+00
2.380477598229577829e-01 1.630042832609198911e+00
2.393888739623546424e-01 1.391906228623405184e+00
2.407299881017515020e-01 1.154055274424003130e+00
2.420711022411483615e-01 1.759347157296467401e+00
2.434122163805451933e-01 2.240541016504472793e+00
2.447533305199420528e-01 2.291671910214937213e+00
2.460944446593389123e-01 2.392953870792752014e+00
2.474355587987357719e-01 2.239170084988124643e+00
2.487766729381326314e-01 1.704761873597981037e+00
2.501177870775294632e-01 1.340259497550469803e+00
2.514589012169263227e-01 1.230293834836444944e+00
2.528000153563231822e-01 1.673222676544121157e+00
2.541411294957200417e-01 2.204889617436748495e+00
2.554822436351169013e-01 1.579246596117506840e+00
2.568233577745137608e-01 1.096171609369761768e+00
2.581644719139106203e-01 1.379310271880434868e+00
2.595055860533074243e-01 1.794003188778837909e+00
2.608467001927042839e-01 1.802708873493727992e+00
2.621878143321011434e-01 2.123649660276612394e+00
2.635289284714980029e-01 2.099016725821343243e+00
2.648700426108948625e-01 3.576120057184702716e+00
2.662111567502916665e-01 5.022069573891592142e+00
2.675522708896885260e-01 7.048316933850273358e+00
2.688933850290853855e-01 6.933047612252074998e+00
2.702344991684822451e-01 4.346488795136785654e+00
2.715756133078791046e-01 3.143482413429055100e+00
2.729167274472759641e-01 2.517492101196545207e+00
2.742578415866727681e-01 2.400336698402497859e+00
2.755989557260696277e-01 2.130658899095045911e+00
2.769400698654664872e-01 2.322625659052043545e+00
2.782811840048633467e-01 2.136096037344863419e+00
2.796222981442602062e-01 2.841974389495760533e+00
2.809634122836570103e-01 4.353807101011398117e+00
2.823045264230538698e-01 6.757047043967887134e+00
2.836456405624507293e-01 8.612716406034884642e+00
2.849867547018475888e-01 7.719706626598366483e+00
2.863278688412444484e-01 5.026684179376736950e+00
2.876689829806413079e-01 3.334912318196174397e+00
2.890100971200381674e-01 2.387902339711871491e+00
2.903512112594350270e-01 1.780215237451713506e+00
2.916923253988318865e-01 1.595740650675601557e+00
2.930334395382287460e-01 1.597889119190661233e+00
2.943745536776256055e-01 1.729870403968028825e+00
2.957156678170224096e-01 1.596044551682922474e+00
2.970567819564192691e-01 1.434981027518986707e+00
2.983978960958161286e-01 1.677352607369115844e+00
2.997390102352129881e-01 1.688062755043183927e+00
3.010801243746098477e-01 1.276376137731915605e+00
3.024212385140067072e-01 1.331918126397951596e+00
3.037623526534035112e-01 1.276552883232490387e+00
3.051034667928003707e-01 1.441487737518798440e+00
3.064445809321972303e-01 1.368241784377879355e+00
3.077856950715940898e-01 1.845090737061589437e+00
3.091268092109909493e-01 2.495766817096644274e+00
3.104679233503877533e-01 1.958521836932099802e+00
3.118090374897846129e-01 1.077490513311374798e+00
3.131501516291814724e-01 8.492491284254839456e-01
3.144912657685783319e-01 1.137045176656329204e+00
3.158323799079751915e-01 1.429606851613463903e+00
3.171734940473720510e-01 1.790699141371156600e+00
3.185146081867689105e-01 1.039787891141600085e+00
3.198557223261657700e-01 1.013884595659966692e+00
3.211968364655626296e-01 1.413776198648832860e+00
3.225379506049594891e-01 1.890666289146764711e+00
3.238790647443563486e-01 1.470696536866746840e+00
3.252201788837532082e-01 1.312871772918931867e+00
3.265612930231500122e-01 1.231773366636332412e+00
3.279024071625468717e-01 1.359218208577168241e+00
3.292435213019437312e-01 1.178777156150921712e+00
3.305846354413405908e-01 1.302502664182547676e+00
3.319257495807374503e-01 1.196605270543514621e+00
3.332668637201342543e-01 1.032719223344891191e+00
3.346079778595311138e-01 9.377960894369010703e-01
3.359490919989279734e-01 1.054100645332546549e+00
3.372902061383248329e-01 1.103820426654102960e+00
3.386313202777216924e-01 1.278378316536823434e+00
3.399724344171185519e-01 9.253596111895632248e-01
3.413135485565153560e-01 1.063411217616568649e+00
3.426546626959122155e-01 7.833216139780674325e-01
3.439957768353090750e-01 1.143672466416838063e+00
3.453368909747059345e-01 9.675074728818984227e-01
3.466780051141027941e-01 1.031058870329474075e+00
3.480191192534995981e-01 6.604560510119483752e-01
3.493602333928964576e-01 1.189304620662426260e+00
3.507013475322933171e-01 1.377698367605091789e+00
3.520424616716901767e-01 1.095330152866075935e+00
3.533835758110870362e-01 9.383344465096499221e-01
3.547246899504838957e-01 1.039206795608642153e+00
3.560658040898807553e-01 1.593446832446332451e+00
3.574069182292776148e-01 1.572266537804289044e+00
3.587480323686744743e-01 1.267662761212854150e+00
3.600891465080713338e-01 1.417897700317311660e+00
3.614302606474681934e-01 1.388311086954367113e+00
3.627713747868649974e-01 1.563471487509715985e+00
3.641124889262618569e-01 1.071637996095567757e+00
3.654536030656587164e-01 1.046703148515206294e+00
3.667947172050555760e-01 9.443825699843486632e-01
3.681358313444524355e-01 8.266279778262060063e-01
3.694769454838492950e-01 6.787749207747211244e-01
3.708180596232460990e-01 4.950409513297486797e-01
3.721591737626429586e-01 8.422054386467223708e-01
3.735002879020398181e-01 9.670562418748360756e-01
3.748414020414366776e-01 1.025967016926713882e+00
3.761825161808335372e-01 1.163425805595629470e+00
3.775236303202303967e-01 1.398807587834298261e+00
3.788647444596272007e-01 1.258333465112706051e+00
3.802058585990240602e-01 9.984320705439202470e-01
3.815469727384209198e-01 8.901755333049834462e-01
3.828880868778177793e-01 1.304716410284243011e+00
3.842292010172146388e-01 1.519254760026498730e+00
3.855703151566114428e-01 1.978184365037094494e+00
3.869114292960083024e-01 1.864606882611944627e+00
3.882525434354051619e-01 1.509681079172914053e+00
3.895936575748020214e-01 1.898740445840886082e+00
3.909347717141988809e-01 2.144039551104015118e+00
3.922758858535957405e-01 1.923404239283378558e+00
3.936169999929926000e-01 1.839443817267692793e+00
3.949581141323894595e-01 1.733508730686672550e+00
3.962992282717863191e-01 1.654318653836469366e+00
3.976403424111831786e-01 1.118482104591500104e+00
3.989814565505800381e-01 8.015715136544443453e-01
4.003225706899768976e-01 9.296084764096335107e-01
4.016636848293737572e-01 1.140366898999282341e+00
4.030047989687706167e-01 1.265875463055621708e+00
4.043459131081674207e-01 1.231196519261864353e+00
4.056870272475643358e-01 1.515860177304595879e+00
4.070281413869611398e-01 1.650098155373207476e+00
4.083692555263580548e-01 1.620779769744906673e+00
4.097103696657548588e-01 1.486037149619704678e+00
4.110514838051517739e-01 1.281584104573035177e+00
4.123925979445485779e-01 1.411717473390559974e+00
4.137337120839453819e-01 1.101013982580674622e+00
4.150748262233422969e-01 1.111451712715620488e+00
4.164159403627391010e-01 1.041971703615182321e+00
4.177570545021360160e-01 1.088785161330775964e+00
4.190981686415328200e-01 1.261889049313424493e+00
4.204392827809296240e-01 1.288974858828929371e+00
4.217803969203265391e-01 8.705201720239585939e-01
4.231215110597233431e-01 8.982722063868351370e-01
4.244626251991202581e-01 7.807875206409420343e-01
4.258037393385170621e-01 6.226039617890251066e-01
4.271448534779138662e-01 5.351474290576234694e-01
4.284859676173107812e-01 3.646075900178260554e-01
4.298270817567075852e-01 4.630443891601316864e-01
4.311681958961045003e-01 9.144017723172552792e-01
4.325093100355013043e-01 6.449744859622015269e-01
4.338504241748981638e-01 5.151575578375116038e-01
4.351915383142950233e-01 1.188466721575991869e+00
4.365326524536918829e-01 6.544050647632317919e-01
4.378737665930887424e-01 4.395746035925611750e-01
4.392148807324856019e-01 7.246576721554589540e-01
4.405559948718824614e-01 7.751987990926281213e-01
4.418971090112793210e-01 8.427271278294483636e-01
4.432382231506761250e-01 7.467161841417819801e-01
4.445793372900730400e-01 9.661966563934996088e-01
4.459204514294698440e-01 1.066725142846586039e+00
4.472615655688667591e-01 1.354835026770757622e+00
4.486026797082635631e-01 1.416784627888283410e+00
4.499437938476603671e-01 8.228375453450738064e-01
4.512849079870572822e-01 8.173120015668828842e-01
4.526260221264540862e-01 9.880350267596114122e-01
4.539671362658510012e-01 1.144143022683437039e+00
4.553082504052478052e-01 6.088455539654162862e-01
4.566493645446446092e-01 6.245907797817764617e-01
4.579904786840415243e-01 6.746031797621654391e-01
4.593315928234383283e-01 4.437061054378403924e-01
4.606727069628352433e-01 5.066409626286869639e-01
4.620138211022320474e-01 6.568968839994226983e-01
4.633549352416289624e-01 6.680012743003587161e-01
4.646960493810257664e-01 7.226073652311200135e-01
4.660371635204225704e-01 6.756851330752979834e-01
4.673782776598194855e-01 6.461987157170483442e-01
4.687193917992162895e-01 1.130706082776256949e+00
4.700605059386132045e-01 9.867366850710723725e-01
4.714016200780100085e-01 7.347928166304455999e-01
4.727427342174068681e-01 1.176464335494991076e+00
4.740838483568037276e-01 1.154721300316360555e+00
4.754249624962005871e-01 1.018504741661971025e+00
4.767660766355974467e-01 9.857384862405780268e-01
4.781071907749943062e-01 1.141823993911536661e+00
4.794483049143911102e-01 7.934794553553956575e-01
4.807894190537880252e-01 8.333357846284243919e-01
4.821305331931848293e-01 6.540448020264406637e-01
4.834716473325817443e-01 8.323183711064672252e-01
4.848127614719785483e-01 8.865365031842031840e-01
4.861538756113753523e-01 7.686062087827849609e-01
4.874949897507722674e-01 6.666535381644820291e-01
4.888361038901690714e-01 6.051156024128800937e-01
4.901772180295659864e-01 4.568668467413843359e-01
4.915183321689627904e-01 6.081349310018424603e-01
4.928594463083597055e-01 7.472482845445966859e-01
4.942005604477565095e-01 9.173735327995231614e-01
4.955416745871533135e-01 8.831282497895713846e-01
4.968827887265502286e-01 9.221991824278745753e-01
4.982239028659470326e-01 1.118060366418397678e+00
4.995650170053439476e-01 1.062919387216005873e+00
5.009061311447408071e-01 9.651874762401817520e-01
5.022472452841375556e-01 1.007152897541082837e+00
5.035883594235345262e-01 1.146960810571805212e+00
5.049294735629312747e-01 9.558625502238555782e-01
5.062705877023282452e-01 7.679527064304565442e-01
5.076117018417249938e-01 7.182431601589556180e-01
5.089528159811218533e-01 3.283518340234010680e-01
5.102939301205187128e-01 4.415852532153508037e-01
5.116350442599155723e-01 4.952410990285684989e-01
5.129761583993124319e-01 5.185445477368659795e-01
5.143172725387092914e-01 5.280119108167014019e-02
5.156583866781061509e-01 4.415529193156260135e-01
5.169995008175030105e-01 9.114903809623342568e-01
5.183406149568997590e-01 7.829740367777020538e-01
5.196817290962967295e-01 6.354044904173932196e-01
5.210228432356934780e-01 6.568188276620290367e-01
5.223639573750904486e-01 7.676268273398960673e-01
5.237050715144871971e-01 6.460906078790600304e-01
5.250461856538840566e-01 6.402179031723207459e-01
5.263872997932809161e-01 3.704386446815988165e-01
5.277284139326777757e-01 4.440420718215705165e-01
5.290695280720746352e-01 1.025070950864893859e+00
5.304106422114714947e-01 8.528312323790672167e-01
5.317517563508683542e-01 8.094086305571721596e-01
5.330928704902652138e-01 6.406224511735345573e-01
5.344339846296620733e-01 4.473362085514978048e-01
5.357750987690589328e-01 3.671427739671315749e-01
5.371162129084557924e-01 4.440315059268158393e-01
5.384573270478525409e-01 6.099881173084469310e-01
5.397984411872495114e-01 5.432792046562013866e-01
5.411395553266462599e-01 7.253014002983348973e-01
5.424806694660432305e-01 6.060894111171322152e-01
5.438217836054399790e-01 6.821157489588145495e-01
5.451628977448369495e-01 5.711842932995949695e-01
5.465040118842336980e-01 3.461092372993235244e-01
5.478451260236305576e-01 3.622499265897403120e-01
5.491862401630274171e-01 2.321044554415365724e-01
5.505273543024242766e-01 0.000000000000000000e+00
5.518684684418211361e-01 4.216365595508690944e-01
5.532095825812179957e-01 5.938111775711618634e-01
5.545506967206147442e-01 5.846311150054006589e-01
