# q (1/Angstrom), Intensity (arb)
2.029070354705860696e-02 1.660551253112034601e+03
2.133125244372399004e-02 1.650772953906820021e+03
2.237180134038937659e-02 1.640330734689174733e+03
2.341235023705475968e-02 1.629873395103806843e+03
2.445289913372014276e-02 1.616100317723338776e+03
2.549344803038552584e-02 1.598898677659913801e+03
2.653399692705091240e-02 1.582192803946916683e+03
2.757454582371629548e-02 1.567561603846743310e+03
2.861509472038167856e-02 1.544770953752483592e+03
2.965564361704706164e-02 1.523841044622155323e+03
3.069619251371244473e-02 1.502140300352856002e+03
3.173674141037782781e-02 1.483641022792909325e+03
3.277729030704321089e-02 1.462574219335715497e+03
3.381783920370859398e-02 1.440390991119493265e+03
3.485838810037397706e-02 1.414364121566742824e+03
3.589893699703936014e-02 1.394387666012840782e+03
3.693948589370474322e-02 1.372251893129997370e+03
3.798003479037012631e-02 1.346141116178684342e+03
3.902058368703550939e-02 1.318454274884663619e+03
4.006113258370089247e-02 1.288814540196720827e+03
4.110168148036627556e-02 1.263577244536322041e+03
4.214223037703165864e-02 1.237363241813598279e+03
4.318277927369704866e-02 1.209228568830583981e+03
4.422332817036243174e-02 1.185684527258805019e+03
4.526387706702781483e-02 1.157928846002217597e+03
4.630442596369319791e-02 1.131572111170344215e+03
4.734497486035858099e-02 1.106773646355135270e+03
4.838552375702396408e-02 1.081286952197474420e+03
4.942607265368934716e-02 1.051930594437971877e+03
5.046662155035473024e-02 1.022675784021763093e+03
5.150717044702011332e-02 9.972676588918943708e+02
5.254771934368549641e-02 9.726246178414431824e+02
5.358826824035087949e-02 9.468254972094244977e+02
5.462881713701626257e-02 9.210061267738986999e+02
5.566936603368164566e-02 8.926685438433864874e+02
5.670991493034702874e-02 8.643781243796481704e+02
5.775046382701241182e-02 8.364487673705166344e+02
5.879101272367779490e-02 8.100797294844599037e+02
5.983156162034317799e-02 7.857566468060400666e+02
6.087211051700856107e-02 7.625373262197667827e+02
6.191265941367394415e-02 7.356989798716234645e+02
6.295320831033933417e-02 7.129773592425081006e+02
6.399375720700471726e-02 6.886562492677703631e+02
6.503430610367010034e-02 6.614688143745427169e+02
6.607485500033548342e-02 6.387429454734738101e+02
6.711540389700086651e-02 6.151558065523779533e+02
6.815595279366624959e-02 5.920749250705479199e+02
6.919650169033163267e-02 5.680810463493030511e+02
7.023705058699701576e-02 5.445657832403982184e+02
7.127759948366239884e-02 5.214373082052640029e+02
7.231814838032778192e-02 5.018238101756362539e+02
7.335869727699316500e-02 4.804818464102610278e+02
7.439924617365854809e-02 4.598321535164175202e+02
7.543979507032393117e-02 4.381646424344542083e+02
7.648034396698931425e-02 4.187806334029526738e+02
7.752089286365469734e-02 3.994989558920848367e+02
7.856144176032008042e-02 3.817584811391390076e+02
7.960199065698546350e-02 3.636175385304354677e+02
8.064253955365084658e-02 3.438465432703996498e+02
8.168308845031622967e-02 3.257077730574168868e+02
8.272363734698161275e-02 3.113780914284428718e+02
8.376418624364699583e-02 2.958171069678502931e+02
8.480473514031239279e-02 2.795865740802255459e+02
8.584528403697777588e-02 2.645556139988930227e+02
8.688583293364315896e-02 2.498532766425634009e+02
8.792638183030854204e-02 2.355660995528448325e+02
8.896693072697392513e-02 2.226128108280867366e+02
9.000747962363930821e-02 2.077072793372273622e+02
9.104802852030469129e-02 1.937840466382528177e+02
9.208857741697007437e-02 1.830335190035967230e+02
9.312912631363545746e-02 1.737243030848041769e+02
9.416967521030084054e-02 1.612004621504316617e+02
9.521022410696622362e-02 1.494181108060169834e+02
9.625077300363160671e-02 1.379338337983109852e+02
9.729132190029698979e-02 1.272095428183674386e+02
9.833187079696237287e-02 1.180282352061915958e+02
9.937241969362775595e-02 1.093561142993560651e+02
1.004129685902931390e-01 1.014616991852413150e+02
1.014535174869585221e-01 9.240791559258983057e+01
1.024940663836239052e-01 8.480646883067875308e+01
1.035346152802892883e-01 7.769813794987550182e+01
1.045751641769546714e-01 6.986555700546990977e+01
1.056157130736200545e-01 6.357946415732197210e+01
1.066562619702854375e-01 5.790936998795639568e+01
1.076968108669508206e-01 5.210904450186123427e+01
1.087373597636162037e-01 4.702232958370321825e+01
1.097779086602815868e-01 4.247678698985016155e+01
1.108184575569469699e-01 3.785430549089140584e+01
1.118590064536123529e-01 3.363701431187512014e+01
1.128995553502777360e-01 2.960465006261770426e+01
1.139401042469431191e-01 2.604534524682922836e+01
1.149806531436085022e-01 2.322941850037330269e+01
1.160212020402738853e-01 1.967275980019660864e+01
1.170617509369392684e-01 1.716719541332081533e+01
1.181022998336046514e-01 1.500394823403282629e+01
1.191428487302700345e-01 1.270368566968712898e+01
1.201833976269354176e-01 1.072889234488213717e+01
1.212239465236008007e-01 9.202101496452954166e+00
1.222644954202661838e-01 7.765416316829551135e+00
1.233050443169315669e-01 6.437407702640953744e+00
1.243455932135969499e-01 5.508735522558197317e+00
1.253861421102623330e-01 4.661771380819971000e+00
1.264266910069277161e-01 3.540970846723290322e+00
1.274672399035930992e-01 2.219861557880239644e+00
1.285077888002584823e-01 1.774802685635133770e+00
1.295483376969238654e-01 1.848604808066543370e+00
1.305888865935892484e-01 1.614201772741665764e+00
1.316294354902546315e-01 1.174831028666567079e+00
1.326699843869200146e-01 1.765033203177832632e+00
1.337105332835853977e-01 1.936338859886983954e+00
1.347510821802507808e-01 2.067669208088023680e+00
1.357916310769161639e-01 2.157114460321832183e+00
1.368321799735815469e-01 2.525718210486079585e+00
1.378727288702469300e-01 2.580287376386309006e+00
1.389132777669123131e-01 2.750641904262575821e+00
1.399538266635776962e-01 3.360252502488751958e+00
1.409943755602430793e-01 3.810178399759255541e+00
1.420349244569084624e-01 4.383400144780551955e+00
1.430754733535738454e-01 5.107406762967656277e+00
1.441160222502392285e-01 5.606690702393041903e+00
1.451565711469046116e-01 5.884062256547956338e+00
1.461971200435699947e-01 6.522954610986566593e+00
1.472376689402353778e-01 6.753838419497064649e+00
1.482782178369007609e-01 7.408049707396308747e+00
1.493187667335661439e-01 8.074906877049993881e+00
1.503593156302315270e-01 8.592919095030268295e+00
1.513998645268969101e-01 8.979663269826648531e+00
1.524404134235622932e-01 9.706062300121946151e+00
1.534809623202276763e-01 1.034047524784139327e+01
1.545215112168930593e-01 1.035601669402307223e+01
1.555620601135584424e-01 1.101860280908631395e+01
1.566026090102238255e-01 1.160428264012173827e+01
1.576431579068892086e-01 1.173003422492554648e+01
1.586837068035545917e-01 1.210580521427274547e+01
1.597242557002199748e-01 1.243022810345156870e+01
1.607648045968853578e-01 1.282287153413473035e+01
1.618053534935507409e-01 1.319512747979483436e+01
1.628459023902161240e-01 1.310534257936980040e+01
1.638864512868815071e-01 1.322753141181549807e+01
1.649270001835468902e-01 1.349565205921667399e+01
1.659675490802122733e-01 1.357320753721830897e+01
1.670080979768776563e-01 1.316338154887092671e+01
1.680486468735430672e-01 1.365785254261876958e+01
1.690891957702084503e-01 1.429558304166729243e+01
1.701297446668738333e-01 1.430723562527751014e+01
1.711702935635392164e-01 1.396076796049020174e+01
1.722108424602045995e-01 1.387423177817423792e+01
1.732513913568699826e-01 1.349505995151277205e+01
1.742919402535353657e-01 1.299898862249610332e+01
1.753324891502007488e-01 1.249348502493611690e+01
1.763730380468661318e-01 1.263671867835454776e+01
1.774135869435315149e-01 1.270215633734647653e+01
1.784541358401968980e-01 1.239720287093480877e+01
1.794946847368622811e-01 1.243896671074194060e+01
1.805352336335276642e-01 1.210442670982799385e+01
1.815757825301930473e-01 1.146300874874078701e+01
1.826163314268584303e-01 1.113544365049901330e+01
1.836568803235238134e-01 1.054373212294005668e+01
1.846974292201891965e-01 1.053304604642041298e+01
1.857379781168545796e-01 1.039266758234972343e+01
1.867785270135199627e-01 9.896243235198710408e+00
1.878190759101853458e-01 9.436704543321383198e+00
1.888596248068507288e-01 9.310532351503422177e+00
1.899001737035161119e-01 8.852536904221697256e+00
1.909407226001814950e-01 8.315628841188026144e+00
1.919812714968468781e-01 8.063121374253370277e+00
1.930218203935122612e-01 7.575456557066154062e+00
1.940623692901776443e-01 6.995634615278749635e+00
1.951029181868430273e-01 6.634039151796649492e+00
1.961434670835084104e-01 6.357139824980443166e+00
1.971840159801737935e-01 6.079082761059250828e+00
1.982245648768391766e-01 5.582990449602050376e+00
1.992651137735045597e-01 5.483379719613260761e+00
2.003056626701699428e-01 5.082019999875580396e+00
2.013462115668353813e-01 4.863533432117307598e+00
2.023867604635007644e-01 4.441194863016633576e+00
2.034273093601661475e-01 3.979439568141870609e+00
2.044678582568315306e-01 3.749560421225936580e+00
2.055084071534969137e-01 3.526327908934884903e+00
2.065489560501622968e-01 3.153554804317796112e+00
2.075895049468276798e-01 2.832803281502037862e+00
2.086300538434930629e-01 2.383223738064181418e+00
2.096706027401584460e-01 2.155781802005300563e+00
2.107111516368238291e-01 1.982427400856746402e+00
2.117517005334892122e-01 1.948278426266998764e+00
2.127922494301545953e-01 1.638444183524967457e+00
2.138327983268199783e-01 1.653248297577690096e+00
2.148733472234853614e-01 1.419860226848577156e+00
2.159138961201507445e-01 1.217743279024126934e+00
2.169544450168161276e-01 1.123478212024433986e+00
2.179949939134815107e-01 8.218005034207465087e-01
2.190355428101468938e-01 6.717715690509464821e-01
2.200760917068122768e-01 6.749402090062091020e-01
2.211166406034776599e-01 4.454973802584945020e-01
2.221571895001430430e-01 4.495343523494561566e-01
2.231977383968084261e-01 6.780158594546428219e-01
2.242382872934738092e-01 7.446895565100533076e-01
2.252788361901391923e-01 7.049783534108016170e-01
2.263193850868045753e-01 5.940172719202720941e-01
2.273599339834699584e-01 5.323249641447382885e-01
2.284004828801353415e-01 6.526499613124769894e-01
2.294410317768007246e-01 5.310709058802949301e-01
2.304815806734661077e-01 4.898968476809635320e-01
2.315221295701314908e-01 5.644427177844342225e-01
2.325626784667968738e-01 4.897154123186275854e-01
2.336032273634622569e-01 6.941413467969255180e-01
2.346437762601276400e-01 8.791997177843313693e-01
2.356843251567930231e-01 9.172571027712805858e-01
2.367248740534584062e-01 9.017725189293663846e-01
2.377654229501237892e-01 7.551426886385463888e-01
2.388059718467891723e-01 1.057791170957063542e+00
2.398465207434545554e-01 1.354018806133268527e+00
2.408870696401199385e-01 1.383776720987714981e+00
2.419276185367853216e-01 1.033303153952353171e+00
2.429681674334507047e-01 9.242363597715375079e-01
2.440087163301160877e-01 1.435874567647626776e+00
2.450492652267814708e-01 1.486229293166722698e+00
2.460898141234468539e-01 1.414371488695493895e+00
2.471303630201122370e-01 1.676801332225707597e+00
2.481709119167776201e-01 1.618800172346109179e+00
2.492114608134430032e-01 1.582805290787700159e+00
2.502520097101083585e-01 1.806898919573967532e+00
2.512925586067737416e-01 1.867949210258711190e+00
2.523331075034391247e-01 2.124116395769505061e+00
2.533736564001045077e-01 1.934234758996360881e+00
2.544142052967698908e-01 1.801607060992868270e+00
2.554547541934352739e-01 1.843194853113960363e+00
2.564953030901006570e-01 2.036249002243398110e+00
2.575358519867660401e-01 2.159224627773539851e+00
2.585764008834314231e-01 2.120970415664377384e+00
2.596169497800968062e-01 2.113210735779002647e+00
2.606574986767621893e-01 2.039160021496016384e+00
2.616980475734275724e-01 2.340069475394496834e+00
2.627385964700929555e-01 2.144740027393538639e+00
2.637791453667583386e-01 2.243898170496898103e+00
2.648196942634237216e-01 2.285681159165147136e+00
2.658602431600891047e-01 2.155239489492664973e+00
2.669007920567544878e-01 2.202392609546844682e+00
2.679413409534198709e-01 2.209928753787828271e+00
2.689818898500852540e-01 2.151789867321603822e+00
2.700224387467506371e-01 2.151357329770487326e+00
2.710629876434160201e-01 2.034201401007891263e+00
2.721035365400814032e-01 2.241507300924059365e+00
2.731440854367467863e-01 2.112986025560307013e+00
2.741846343334121694e-01 1.896299768513067363e+00
2.752251832300775525e-01 1.875664550346556325e+00
2.762657321267429356e-01 1.976640217240923647e+00
2.773062810234083186e-01 1.783851343875120676e+00
2.783468299200737017e-01 1.777674654845039726e+00
2.793873788167390848e-01 1.963316473566731446e+00
2.804279277134044679e-01 1.820078453186248169e+00
2.814684766100698510e-01 1.619713206148382767e+00
2.825090255067352341e-01 1.887846218990379299e+00
2.835495744034006171e-01 1.984461101834146035e+00
2.845901233000660002e-01 1.819832011674570538e+00
2.856306721967313833e-01 1.554923419320996203e+00
2.866712210933967664e-01 1.702085578042133562e+00
2.877117699900621495e-01 1.704364777512711981e+00
2.887523188867275326e-01 1.531133383336243270e+00
2.897928677833929156e-01 1.329087500049777049e+00
2.908334166800582987e-01 1.344951895047966417e+00
2.918739655767236818e-01 1.219330106481383069e+00
2.929145144733890649e-01 1.220145076478761581e+00
2.939550633700544480e-01 1.194430562138769858e+00
2.949956122667198311e-01 1.117958993178941540e+00
2.960361611633852141e-01 1.066497959075299207e+00
2.970767100600505972e-01 9.405351873031477794e-01
2.981172589567159803e-01 7.453951095447202135e-01
2.991578078533813634e-01 6.105616011442727142e-01
3.001983567500468020e-01 4.008992606889947297e-01
3.012389056467121851e-01 4.266428035623341941e-01
3.022794545433775681e-01 5.567113588048684392e-01
3.033200034400429512e-01 6.969029789540250874e-01
3.043605523367083343e-01 6.502273125368738249e-01
3.054011012333737174e-01 5.556711595732437559e-01
3.064416501300391005e-01 5.377720577827744819e-01
3.074821990267044836e-01 4.833120782147091177e-01
3.085227479233698666e-01 4.445871989422585102e-01
3.095632968200352497e-01 5.425493289378415795e-01
3.106038457167006328e-01 6.244368062092213734e-01
3.116443946133660159e-01 6.705252235710084108e-01
3.126849435100313990e-01 6.171723319611324143e-01
3.137254924066967821e-01 5.806576892485537655e-01
3.147660413033621651e-01 4.145222904827967625e-01
3.158065902000275482e-01 4.102277368205484720e-01
3.168471390966929313e-01 4.152647687256418862e-01
3.178876879933583144e-01 3.596313929743857329e-01
3.189282368900236975e-01 1.210199269309804038e-01
3.199687857866890806e-01 2.588426729342856447e-01
3.210093346833544636e-01 2.658568798626461671e-01
3.220498835800198467e-01 1.905167901816859910e-01
3.230904324766852298e-01 6.173804580851616208e-01
3.241309813733506129e-01 6.172318958077376294e-01
3.251715302700159960e-01 5.143282963025228582e-01
3.262120791666813790e-01 1.877685825307793266e-01
3.272526280633467621e-01 4.217535866110004861e-01
3.282931769600121452e-01 4.757776331098355627e-01
3.293337258566775283e-01 3.546788034753909358e-01
3.303742747533429114e-01 3.662002026927488885e-01
3.314148236500082945e-01 4.958643344407356324e-01
3.324553725466736775e-01 5.215600941428313320e-01
3.334959214433390606e-01 4.081037567273035904e-01
3.345364703400044437e-01 3.596560349197979178e-01
3.355770192366698268e-01 4.198715602164746485e-01
3.366175681333352099e-01 2.581862972924113819e-01
3.376581170300005930e-01 3.117965725971991731e-01
3.386986659266659760e-01 3.398591395649290803e-01
3.397392148233313591e-01 2.783156645202389257e-01
3.407797637199967422e-01 3.761158380688804925e-01
3.418203126166621253e-01 6.280429059817258519e-01
3.428608615133275084e-01 7.575395563773703600e-01
3.439014104099928915e-01 5.330531276761050208e-01
3.449419593066582745e-01 4.922769967233833199e-01
3.459825082033236576e-01 4.945152807090202884e-01
3.470230570999890407e-01 6.417383728212264771e-01
3.480636059966544238e-01 8.376938739891812702e-01
3.491041548933198069e-01 6.278998441615009085e-01
3.501447037899851900e-01 6.256760454290493101e-01
3.511852526866505730e-01 6.393775573000226586e-01
3.522258015833159561e-01 5.930930382103767329e-01
3.532663504799813392e-01 6.285497161627908724e-01
3.543068993766467223e-01 6.714586644268152327e-01
3.553474482733121054e-01 6.986742883974024210e-01
3.563879971699774885e-01 9.196165844781170051e-01
3.574285460666428715e-01 8.375559162832928450e-01
3.584690949633082546e-01 7.999436334336067489e-01
3.595096438599736377e-01 7.421975970794285615e-01
3.605501927566390208e-01 6.958734847648138100e-01
3.615907416533044039e-01 7.292607097870380528e-01
3.626312905499697870e-01 7.283311332227491164e-01
3.636718394466351700e-01 6.310743683216131217e-01
3.647123883433005531e-01 6.760788706263731740e-01
3.657529372399659362e-01 7.216312772919799556e-01
3.667934861366313193e-01 7.346683221485967863e-01
3.678340350332967024e-01 6.552362711976442711e-01
3.688745839299620854e-01 7.471469666271346455e-01
3.699151328266274685e-01 7.949389173235310579e-01
3.709556817232928516e-01 7.819693475827875773e-01
3.719962306199582347e-01 8.066504561694820552e-01
3.730367795166236178e-01 9.513014955570717746e-01
3.740773284132890009e-01 6.736056876988421038e-01
3.751178773099543839e-01 5.176689516992034612e-01
3.761584262066197670e-01 5.076772012880717000e-01
3.771989751032851501e-01 5.130367288636925593e-01
3.782395239999505332e-01 5.551578532583150150e-01
3.792800728966159163e-01 5.653874567414085561e-01
3.803206217932812994e-01 5.238496460947956734e-01
3.813611706899466824e-01 5.244490725937289710e-01
3.824017195866120655e-01 5.898666253032018858e-01
3.834422684832774486e-01 5.460934776942920621e-01
3.844828173799428317e-01 6.337446675436844146e-01
3.855233662766082148e-01 6.313821341238394780e-01
3.865639151732735979e-01 3.535204631473511938e-01
3.876044640699389809e-01 4.233962446639019106e-01
3.886450129666043640e-01 5.293300170855914644e-01
3.896855618632697471e-01 5.002275056924752050e-01
3.907261107599351302e-01 4.398225813524518912e-01
3.917666596566005133e-01 4.507303338650174851e-01
3.928072085532658964e-01 5.053085149169262991e-01
3.938477574499312794e-01 4.811495664244596071e-01
3.948883063465966625e-01 3.092663507927220223e-01
3.959288552432620456e-01 4.348678108473329473e-01
3.969694041399274287e-01 3.957408894437008939e-01
3.980099530365928118e-01 4.792131172333427003e-01
3.990505019332581949e-01 3.716510256586005312e-01
4.000910508299235779e-01 2.308302223920648544e-01
4.011315997265889610e-01 3.520314536243311920e-01
4.021721486232543441e-01 4.008326589200521539e-01
4.032126975199197272e-01 1.913834659673945282e-01
4.042532464165851103e-01 1.813673675033520283e-01
4.052937953132504934e-01 2.710296922807025055e-01
4.063343442099158764e-01 4.312759081457997468e-01
4.073748931065812595e-01 3.905627347106666036e-01
4.084154420032466426e-01 2.909701629258378830e-01
4.094559908999120257e-01 3.553514546045803968e-01
4.104965397965774088e-01 3.458922089834963742e-01
4.115370886932427918e-01 3.335149268534145506e-01
4.125776375899081749e-01 3.271914763070427057e-01
4.136181864865735580e-01 3.078383234938009139e-01
4.146587353832389411e-01 4.749102530590931792e-01
4.156992842799043242e-01 3.631272513843590843e-01
4.167398331765697073e-01 2.707386706068533044e-01
4.177803820732350903e-01 3.067017862175376308e-01
4.188209309699004734e-01 3.061360425075037028e-01
4.198614798665658565e-01 2.736750667685647898e-01
4.209020287632312396e-01 2.408019684823834439e-01
4.219425776598966227e-01 4.055694885098510838e-01
4.229831265565620058e-01 3.514705978903904793e-01
4.240236754532273888e-01 1.314673859416686241e-01
4.250642243498927719e-01 1.705001625851245706e-01
4.261047732465581550e-01 2.277795802825473004e-01
4.271453221432235381e-01 2.776534196735447324e-01
4.281858710398889212e-01 1.643162797804968989e-01
4.292264199365543043e-01 1.406381154608276063e-01
4.302669688332196873e-01 3.136271910239010197e-01
4.313075177298850704e-01 2.362057316638974669e-01
4.323480666265504535e-01 3.698180387235723288e-01
4.333886155232158366e-01 4.622101064981833929e-01
4.344291644198812197e-01 4.817267304759376145e-01
