# q (1/Angstrom), Intensity (arb)
2.029070354705860696e-02 1.555650180830840100e+03
2.133125244372399004e-02 1.550229430451089002e+03
2.237180134038937659e-02 1.543426298907714681e+03
2.341235023705475968e-02 1.531688686272890436e+03
2.445289913372014276e-02 1.522660900032595919e+03
2.549344803038552584e-02 1.512282881629001167e+03
2.653399692705091240e-02 1.496942123877147651e+03
2.757454582371629548e-02 1.478653636378647434e+03
2.861509472038167856e-02 1.458682332678646617e+03
2.965564361704706164e-02 1.437083458391895647e+03
3.069619251371244473e-02 1.417108543244610473e+03
3.173674141037782781e-02 1.394877591460123767e+03
3.277729030704321089e-02 1.375005893038743807e+03
3.381783920370859398e-02 1.359182664059806939e+03
3.485838810037397706e-02 1.337340166783854556e+03
3.589893699703936014e-02 1.306607352689080471e+03
3.693948589370474322e-02 1.285100523711273354e+03
3.798003479037012631e-02 1.263247373176090832e+03
3.902058368703550939e-02 1.236741928150347121e+03
4.006113258370089247e-02 1.214483275697533600e+03
4.110168148036627556e-02 1.190663492630366363e+03
4.214223037703165864e-02 1.166529753922260397e+03
4.318277927369704866e-02 1.142859815375368044e+03
4.422332817036243174e-02 1.117149843382263043e+03
4.526387706702781483e-02 1.090947252073579648e+03
4.630442596369319791e-02 1.068579724933098987e+03
4.734497486035858099e-02 1.042371233074557040e+03
4.838552375702396408e-02 1.018392191372449361e+03
4.942607265368934716e-02 9.901955167076411044e+02
5.046662155035473024e-02 9.641491724262815524e+02
5.150717044702011332e-02 9.403856536089767815e+02
5.254771934368549641e-02 9.157805129543851308e+02
5.358826824035087949e-02 8.911216532329152642e+02
5.462881713701626257e-02 8.671416023671878293e+02
5.566936603368164566e-02 8.413665497925177306e+02
5.670991493034702874e-02 8.133649092520485056e+02
5.775046382701241182e-02 7.865869607728637902e+02
5.879101272367779490e-02 7.622337295859797450e+02
5.983156162034317799e-02 7.371092563319514284e+02
6.087211051700856107e-02 7.143357941063409271e+02
6.191265941367394415e-02 6.905171869693554072e+02
6.295320831033933417e-02 6.661636587027279575e+02
6.399375720700471726e-02 6.448526469459218333e+02
6.503430610367010034e-02 6.211960445862434881e+02
6.607485500033548342e-02 5.974810493471783275e+02
6.711540389700086651e-02 5.746494272383285988e+02
6.815595279366624959e-02 5.528539893076159615e+02
6.919650169033163267e-02 5.316258162474663322e+02
7.023705058699701576e-02 5.101602872300189802e+02
7.127759948366239884e-02 4.912479805170490863e+02
7.231814838032778192e-02 4.689132454983857770e+02
7.335869727699316500e-02 4.484232673814887562e+02
7.439924617365854809e-02 4.283738421878576901e+02
7.543979507032393117e-02 4.066594245502894296e+02
7.648034396698931425e-02 3.889673300482442642e+02
7.752089286365469734e-02 3.729869983096613169e+02
7.856144176032008042e-02 3.544632779099837308e+02
7.960199065698546350e-02 3.367979147021390531e+02
8.064253955365084658e-02 3.192837804623454190e+02
8.168308845031622967e-02 3.022391646269725243e+02
8.272363734698161275e-02 2.865171464791025073e+02
8.376418624364699583e-02 2.715038060939425009e+02
8.480473514031239279e-02 2.571821567502190646e+02
8.584528403697777588e-02 2.432524900884204726e+02
8.688583293364315896e-02 2.293608009569507544e+02
8.792638183030854204e-02 2.150401691126128298e+02
8.896693072697392513e-02 2.021420795941754989e+02
9.000747962363930821e-02 1.895343840957243629e+02
9.104802852030469129e-02 1.782226582365287868e+02
9.208857741697007437e-02 1.671766219937488245e+02
9.312912631363545746e-02 1.560812380503867303e+02
9.416967521030084054e-02 1.455004010482742842e+02
9.521022410696622362e-02 1.360055210813694089e+02
9.625077300363160671e-02 1.259665369424958499e+02
9.729132190029698979e-02 1.169997636215626784e+02
9.833187079696237287e-02 1.075536635033607809e+02
9.937241969362775595e-02 9.864253375594421414e+01
1.004129685902931390e-01 9.107944986782518981e+01
1.014535174869585221e-01 8.378950725337045924e+01
1.024940663836239052e-01 7.692599916674279825e+01
1.035346152802892883e-01 7.045790737547862648e+01
1.045751641769546714e-01 6.352466478534384464e+01
1.056157130736200545e-01 5.815198435771897323e+01
1.066562619702854375e-01 5.342331247646436765e+01
1.076968108669508206e-01 4.787226910143074576e+01
1.087373597636162037e-01 4.274658621808779202e+01
1.097779086602815868e-01 3.823704317588935453e+01
1.108184575569469699e-01 3.447825327933537665e+01
1.118590064536123529e-01 3.053972577872150040e+01
1.128995553502777360e-01 2.712931748176351832e+01
1.139401042469431191e-01 2.391879096861767806e+01
1.149806531436085022e-01 2.080566119819948057e+01
1.160212020402738853e-01 1.782080971375590295e+01
1.170617509369392684e-01 1.523182224732799384e+01
1.181022998336046514e-01 1.314241529060625169e+01
1.191428487302700345e-01 1.145346152084737312e+01
1.201833976269354176e-01 9.321581085640090691e+00
1.212239465236008007e-01 7.811249221214101368e+00
1.222644954202661838e-01 6.637836566635744617e+00
1.233050443169315669e-01 5.456791049756649414e+00
1.243455932135969499e-01 4.666133778771204277e+00
1.253861421102623330e-01 3.719967170631917952e+00
1.264266910069277161e-01 2.819100451920061090e+00
1.274672399035930992e-01 2.263956725370327661e+00
1.285077888002584823e-01 1.726633680326262521e+00
1.295483376969238654e-01 1.592374374394825765e+00
1.305888865935892484e-01 1.741048439299621720e+00
1.316294354902546315e-01 1.640096267624723936e+00
1.326699843869200146e-01 1.293333889021738514e+00
1.337105332835853977e-01 9.538016370166388924e-01
1.347510821802507808e-01 1.045867194095361441e+00
1.357916310769161639e-01 1.729349685034708983e+00
1.368321799735815469e-01 2.027606349897755678e+00
1.378727288702469300e-01 2.848670222479341874e+00
1.389132777669123131e-01 2.874377679023691456e+00
1.399538266635776962e-01 3.337983123499700611e+00
1.409943755602430793e-01 3.918961623202992683e+00
1.420349244569084624e-01 4.181956959298172904e+00
1.430754733535738454e-01 4.293189992340550987e+00
1.441160222502392285e-01 4.875973280108585328e+00
1.451565711469046116e-01 5.560925583530288208e+00
1.461971200435699947e-01 6.026598115262146393e+00
1.472376689402353778e-01 6.570914826102953299e+00
1.482782178369007609e-01 7.057350127120972871e+00
1.493187667335661439e-01 7.657634683738095305e+00
1.503593156302315270e-01 8.142059574339750583e+00
1.513998645268969101e-01 8.526641189898573003e+00
1.524404134235622932e-01 8.965995406521241051e+00
1.534809623202276763e-01 9.411727311297525489e+00
1.545215112168930593e-01 1.006474757600378211e+01
1.555620601135584424e-01 1.013894086115300652e+01
1.566026090102238255e-01 1.048047660386074398e+01
1.576431579068892086e-01 1.101703921591015245e+01
1.586837068035545917e-01 1.101436678802791036e+01
1.597242557002199748e-01 1.152307159089832567e+01
1.607648045968853578e-01 1.206440858102022062e+01
1.618053534935507409e-01 1.202215993377761194e+01
1.628459023902161240e-01 1.187366889346894538e+01
1.638864512868815071e-01 1.240985258300270999e+01
1.649270001835468902e-01 1.297447603067169197e+01
1.659675490802122733e-01 1.283381654245064851e+01
1.670080979768776563e-01 1.279383732251282169e+01
1.680486468735430672e-01 1.270581611732876937e+01
1.690891957702084503e-01 1.268808377083790262e+01
1.701297446668738333e-01 1.266221093641637907e+01
1.711702935635392164e-01 1.226649311510765017e+01
1.722108424602045995e-01 1.245814788022266839e+01
1.732513913568699826e-01 1.248138930108152422e+01
1.742919402535353657e-01 1.224440613860359406e+01
1.753324891502007488e-01 1.226806864439101830e+01
1.763730380468661318e-01 1.173920675813067760e+01
1.774135869435315149e-01 1.153253748291837510e+01
1.784541358401968980e-01 1.143919640221077572e+01
1.794946847368622811e-01 1.108547116999118387e+01
1.805352336335276642e-01 1.092049738245512813e+01
1.815757825301930473e-01 1.058780861408496676e+01
1.826163314268584303e-01 1.035179822663394589e+01
1.836568803235238134e-01 1.014181843154458562e+01
1.846974292201891965e-01 9.906504111277161684e+00
1.857379781168545796e-01 9.397046136331635324e+00
1.867785270135199627e-01 9.054211854960904304e+00
1.878190759101853458e-01 8.720133382815468792e+00
1.888596248068507288e-01 8.004867340687127353e+00
1.899001737035161119e-01 7.367049002834225035e+00
1.909407226001814950e-01 7.487742507242586498e+00
1.919812714968468781e-01 7.086829693446983214e+00
1.930218203935122612e-01 6.711089348814116562e+00
1.940623692901776443e-01 6.541709828328375664e+00
1.951029181868430273e-01 6.075405394126214276e+00
1.961434670835084104e-01 5.680002288841723868e+00
1.971840159801737935e-01 5.530313720645740005e+00
1.982245648768391766e-01 5.517979556356504389e+00
1.992651137735045597e-01 4.800000463784115823e+00
2.003056626701699428e-01 4.444702421488347710e+00
2.013462115668353813e-01 3.854424447587366132e+00
2.023867604635007644e-01 3.487063664586820266e+00
2.034273093601661475e-01 3.254785018268950836e+00
2.044678582568315306e-01 3.015669230483567276e+00
2.055084071534969137e-01 3.097735870419075610e+00
2.065489560501622968e-01 2.525836076840221267e+00
2.075895049468276798e-01 2.119968195509109421e+00
2.086300538434930629e-01 2.194198713939876200e+00
2.096706027401584460e-01 1.860912479707398148e+00
2.107111516368238291e-01 1.547039718524995777e+00
2.117517005334892122e-01 1.493609738546386012e+00
2.127922494301545953e-01 1.438659251537835360e+00
2.138327983268199783e-01 1.377304015525670167e+00
2.148733472234853614e-01 1.108374325704115648e+00
2.159138961201507445e-01 9.004079468568235711e-01
2.169544450168161276e-01 7.556203194094592845e-01
2.179949939134815107e-01 6.997152490510636369e-01
2.190355428101468938e-01 7.971794020811557857e-01
2.200760917068122768e-01 6.884933905570562729e-01
2.211166406034776599e-01 4.433509661766521504e-01
2.221571895001430430e-01 4.716047342200369030e-01
2.231977383968084261e-01 6.059302688462651076e-01
2.242382872934738092e-01 5.905758353877992306e-01
2.252788361901391923e-01 4.224396027253014552e-01
2.263193850868045753e-01 2.950117977235713340e-01
2.273599339834699584e-01 3.395131188119506760e-01
2.284004828801353415e-01 3.273872527517909248e-01
2.294410317768007246e-01 6.288746029782288360e-02
2.304815806734661077e-01 9.156332189412452749e-02
2.315221295701314908e-01 1.308314377461847755e-01
2.325626784667968738e-01 3.485177038079676493e-01
2.336032273634622569e-01 5.454233007182338611e-01
2.346437762601276400e-01 6.817028660425172859e-01
2.356843251567930231e-01 6.419173510086615408e-01
2.367248740534584062e-01 8.582193643571010000e-01
2.377654229501237892e-01 9.771310423443964055e-01
2.388059718467891723e-01 7.745862121120552501e-01
2.398465207434545554e-01 1.009791424556258477e+00
2.408870696401199385e-01 9.425461471521572321e-01
2.419276185367853216e-01 1.095308150060930075e+00
2.429681674334507047e-01 1.223932781717319784e+00
2.440087163301160877e-01 1.335504876110519490e+00
2.450492652267814708e-01 1.467948674758794425e+00
2.460898141234468539e-01 1.454534282876377205e+00
2.471303630201122370e-01 1.262470631928316323e+00
2.481709119167776201e-01 1.273535909535294053e+00
2.492114608134430032e-01 1.375883263532770684e+00
2.502520097101083585e-01 1.473209093126502722e+00
2.512925586067737416e-01 1.509246912717895128e+00
2.523331075034391247e-01 1.405730329651877497e+00
2.533736564001045077e-01 1.341390763441264511e+00
2.544142052967698908e-01 1.876465859170160400e+00
2.554547541934352739e-01 2.075468771492843700e+00
2.564953030901006570e-01 2.017809313357297185e+00
2.575358519867660401e-01 1.745124112274357486e+00
2.585764008834314231e-01 1.968640624643679615e+00
2.596169497800968062e-01 2.167512423288012968e+00
2.606574986767621893e-01 2.053559457004840993e+00
2.616980475734275724e-01 1.992777676960116651e+00
2.627385964700929555e-01 2.099611315272085221e+00
2.637791453667583386e-01 2.043362410418946951e+00
2.648196942634237216e-01 2.067718708359876700e+00
2.658602431600891047e-01 2.144927794455128378e+00
2.669007920567544878e-01 1.921315791658226857e+00
2.679413409534198709e-01 2.194826354991157302e+00
2.689818898500852540e-01 2.188610112756609993e+00
2.700224387467506371e-01 2.053687613219171482e+00
2.710629876434160201e-01 2.221408445465669956e+00
2.721035365400814032e-01 2.371664727671618067e+00
2.731440854367467863e-01 2.210664229056465757e+00
2.741846343334121694e-01 1.980454817367732545e+00
2.752251832300775525e-01 1.847480342150966237e+00
2.762657321267429356e-01 1.795010054610663985e+00
2.773062810234083186e-01 1.759251861419230067e+00
2.783468299200737017e-01 1.774395682023939713e+00
2.793873788167390848e-01 1.614084889474540319e+00
2.804279277134044679e-01 1.682854221557285257e+00
2.814684766100698510e-01 1.731262177068146002e+00
2.825090255067352341e-01 1.651097340486572307e+00
2.835495744034006171e-01 1.595884881954514611e+00
2.845901233000660002e-01 1.688882848257261315e+00
2.856306721967313833e-01 1.692763935079018012e+00
2.866712210933967664e-01 1.481154267667665891e+00
2.877117699900621495e-01 1.233755124683519000e+00
2.887523188867275326e-01 1.151524868392648671e+00
2.897928677833929156e-01 9.356400040247088157e-01
2.908334166800582987e-01 1.082798998478427421e+00
2.918739655767236818e-01 1.251238887786104925e+00
2.929145144733890649e-01 1.195280849933610057e+00
2.939550633700544480e-01 9.996704645604204131e-01
2.949956122667198311e-01 9.359760520664117678e-01
2.960361611633852141e-01 1.204832861753931894e+00
2.970767100600505972e-01 1.055026764670731865e+00
2.981172589567159803e-01 7.074374143256960679e-01
2.991578078533813634e-01 5.179824027693662458e-01
3.001983567500468020e-01 6.322210739935449908e-01
3.012389056467121851e-01 9.106671935563603881e-01
3.022794545433775681e-01 9.512054799696585405e-01
3.033200034400429512e-01 5.749724152812234479e-01
3.043605523367083343e-01 3.246124862500643360e-01
3.054011012333737174e-01 3.630983298941536930e-01
3.064416501300391005e-01 7.439329568914523350e-01
3.074821990267044836e-01 7.666486945933144170e-01
3.085227479233698666e-01 3.394698327044878283e-01
3.095632968200352497e-01 2.856089240076542524e-01
3.106038457167006328e-01 2.729901097312321667e-01
3.116443946133660159e-01 1.989449053098013565e-01
3.126849435100313990e-01 3.450784047633241869e-01
3.137254924066967821e-01 3.431804248287448900e-01
3.147660413033621651e-01 3.517528990151106427e-01
3.158065902000275482e-01 3.516218156801187433e-01
3.168471390966929313e-01 3.374472959236491931e-01
3.178876879933583144e-01 2.421198951089031937e-01
3.189282368900236975e-01 1.419168644892430109e-01
3.199687857866890806e-01 3.698882635662421592e-01
3.210093346833544636e-01 4.705149690873575707e-01
3.220498835800198467e-01 5.184059672742442615e-01
3.230904324766852298e-01 6.173547279031517121e-01
3.241309813733506129e-01 4.714857103893166368e-01
3.251715302700159960e-01 5.479928496192378873e-01
3.262120791666813790e-01 3.964246776096835845e-01
3.272526280633467621e-01 2.983081546440402576e-01
3.282931769600121452e-01 4.875669640019708595e-01
3.293337258566775283e-01 4.850710149573806973e-01
3.303742747533429114e-01 4.526049156572646837e-01
3.314148236500082945e-01 3.439000425407101602e-01
3.324553725466736775e-01 2.113610246132680004e-01
3.334959214433390606e-01 4.593527840590496680e-01
3.345364703400044437e-01 6.192934466701522922e-01
3.355770192366698268e-01 5.369514676233393402e-01
3.366175681333352099e-01 6.743654099328146856e-01
3.376581170300005930e-01 4.906776578882414697e-01
3.386986659266659760e-01 4.057359773637223554e-01
3.397392148233313591e-01 1.815357694671924094e-01
3.407797637199967422e-01 3.708796783954753096e-01
3.418203126166621253e-01 6.533164467216288074e-01
3.428608615133275084e-01 4.146999729570879367e-01
3.439014104099928915e-01 3.626120578094109703e-01
3.449419593066582745e-01 4.560852838699744893e-01
3.459825082033236576e-01 4.424701525409737712e-01
3.470230570999890407e-01 6.706576875293137618e-01
3.480636059966544238e-01 7.170660371049528692e-01
3.491041548933198069e-01 9.584823885238975549e-01
3.501447037899851900e-01 9.032840431808253356e-01
3.511852526866505730e-01 9.176306973185255345e-01
3.522258015833159561e-01 5.960911297693662902e-01
3.532663504799813392e-01 6.045504620738952894e-01
3.543068993766467223e-01 7.360044744194240707e-01
3.553474482733121054e-01 8.409551687764498240e-01
3.563879971699774885e-01 7.052451093046130381e-01
3.574285460666428715e-01 7.118844846984302421e-01
3.584690949633082546e-01 8.557059335583154791e-01
3.595096438599736377e-01 7.534602419497034020e-01
3.605501927566390208e-01 7.729682975067753148e-01
3.615907416533044039e-01 9.366060999948118138e-01
3.626312905499697870e-01 5.690019178383494136e-01
3.636718394466351700e-01 7.778209806089648737e-01
3.647123883433005531e-01 8.337261451779340860e-01
3.657529372399659362e-01 7.775076434678140913e-01
3.667934861366313193e-01 1.006205639373558114e+00
3.678340350332967024e-01 8.475952814331932927e-01
3.688745839299620854e-01 6.102344383629159097e-01
3.699151328266274685e-01 7.892267585301731003e-01
3.709556817232928516e-01 7.419062745361912903e-01
3.719962306199582347e-01 5.371460595942743055e-01
3.730367795166236178e-01 4.647731833097203946e-01
3.740773284132890009e-01 5.946430596125225065e-01
3.751178773099543839e-01 5.379180610347837899e-01
3.761584262066197670e-01 6.274962299471233962e-01
3.771989751032851501e-01 5.984831011231364073e-01
3.782395239999505332e-01 4.476173299682706386e-01
3.792800728966159163e-01 4.494784783589551580e-01
3.803206217932812994e-01 5.346886601502731651e-01
3.813611706899466824e-01 7.648948176957759415e-01
3.824017195866120655e-01 7.266833450008398643e-01
3.834422684832774486e-01 5.156878778536935215e-01
3.844828173799428317e-01 5.866418542262188396e-01
3.855233662766082148e-01 5.032472055004930667e-01
3.865639151732735979e-01 4.463466260062958213e-01
3.876044640699389809e-01 3.778918854842316932e-01
3.886450129666043640e-01 3.825841990166871653e-01
3.896855618632697471e-01 4.005631121344812584e-01
3.907261107599351302e-01 3.696260294165298887e-01
3.917666596566005133e-01 4.379522417785182142e-01
3.928072085532658964e-01 4.143949270682938391e-01
3.938477574499312794e-01 5.433889980456712010e-01
3.948883063465966625e-01 4.046639274263199582e-01
3.959288552432620456e-01 3.864954066431778301e-01
3.969694041399274287e-01 3.464412382450845485e-01
3.980099530365928118e-01 3.620849784704738283e-01
3.990505019332581949e-01 2.805177507694800454e-01
4.000910508299235779e-01 3.699183653110544867e-01
4.011315997265889610e-01 2.459110967205297982e-01
4.021721486232543441e-01 2.988717823663726847e-01
4.032126975199197272e-01 3.218174352076594857e-01
4.042532464165851103e-01 3.406968195681550071e-01
4.052937953132504934e-01 3.819606306252119055e-01
4.063343442099158764e-01 4.870383746296909067e-01
4.073748931065812595e-01 3.884506366415081402e-01
4.084154420032466426e-01 3.654857383466918463e-01
4.094559908999120257e-01 5.930927713352822650e-01
4.104965397965774088e-01 5.252110103669380692e-01
4.115370886932427918e-01 5.348865159608173769e-01
4.125776375899081749e-01 4.650499155582323851e-01
4.136181864865735580e-01 2.906516201352964401e-01
4.146587353832389411e-01 1.616075151809148736e-01
4.156992842799043242e-01 3.190122019955197175e-01
4.167398331765697073e-01 2.994721975383924928e-01
4.177803820732350903e-01 3.995965140976096563e-01
4.188209309699004734e-01 4.818436723579040404e-01
4.198614798665658565e-01 5.601168231299631373e-01
4.209020287632312396e-01 5.827929366883459750e-01
4.219425776598966227e-01 2.871274550868179176e-01
4.229831265565620058e-01 3.366445755364892989e-01
4.240236754532273888e-01 4.742027844797043201e-01
4.250642243498927719e-01 4.055777260948438823e-01
4.261047732465581550e-01 2.616082697124326728e-01
4.271453221432235381e-01 3.289151381432624532e-01
4.281858710398889212e-01 3.562594108092085321e-01
4.292264199365543043e-01 4.530160299910370725e-01
4.302669688332196873e-01 2.734923582080206472e-01
4.313075177298850704e-01 3.953219157679654927e-02
4.323480666265504535e-01 2.779789918599462339e-01
4.333886155232158366e-01 3.106889272386119671e-01
4.344291644198812197e-01 5.204587400048303891e-01
