# q (1/Angstrom), Intensity (arb)
2.029070354705860696e-02 1.664956701988615578e+03
2.133125244372399004e-02 1.654252862153315391e+03
2.237180134038937659e-02 1.640143422515318434e+03
2.341235023705475968e-02 1.632042677358671654e+03
2.445289913372014276e-02 1.616119534050590119e+03
2.549344803038552584e-02 1.603212683821311884e+03
2.653399692705091240e-02 1.586208472015181997e+03
2.757454582371629548e-02 1.569641347991930388e+03
2.861509472038167856e-02 1.550664250084642617e+03
2.965564361704706164e-02 1.532390695981135877e+03
3.069619251371244473e-02 1.505391931406474214e+03
3.173674141037782781e-02 1.483233149679654389e+03
3.277729030704321089e-02 1.460743088601462887e+03
3.381783920370859398e-02 1.442124679522220049e+03
3.485838810037397706e-02 1.416991498287516833e+03
3.589893699703936014e-02 1.391165110995623991e+03
3.693948589370474322e-02 1.372174636163704008e+03
3.798003479037012631e-02 1.346297998052476942e+03
3.902058368703550939e-02 1.323636132480059132e+03
4.006113258370089247e-02 1.296685905289089305e+03
4.110168148036627556e-02 1.272714572210679307e+03
4.214223037703165864e-02 1.243486943698808318e+03
4.318277927369704866e-02 1.218341455573117855e+03
4.422332817036243174e-02 1.190216926617857325e+03
4.526387706702781483e-02 1.164521184926341675e+03
4.630442596369319791e-02 1.135652139201870114e+03
4.734497486035858099e-02 1.107727617399088103e+03
4.838552375702396408e-02 1.079472012890490532e+03
4.942607265368934716e-02 1.055778110532984783e+03
5.046662155035473024e-02 1.031217730935797363e+03
5.150717044702011332e-02 1.004350755978521761e+03
5.254771934368549641e-02 9.767660865255294311e+02
5.358826824035087949e-02 9.485008789166865881e+02
5.462881713701626257e-02 9.222493125164711500e+02
5.566936603368164566e-02 8.943134272303509533e+02
5.670991493034702874e-02 8.686576395773299737e+02
5.775046382701241182e-02 8.425425829740300969e+02
5.879101272367779490e-02 8.148116041176351700e+02
5.983156162034317799e-02 7.905651670414313230e+02
6.087211051700856107e-02 7.637787462296657850e+02
6.191265941367394415e-02 7.372334044142069160e+02
6.295320831033933417e-02 7.123853463004718378e+02
6.399375720700471726e-02 6.877409463410590433e+02
6.503430610367010034e-02 6.651333978081876239e+02
6.607485500033548342e-02 6.395555511035792051e+02
6.711540389700086651e-02 6.172346517580202772e+02
6.815595279366624959e-02 5.941927188324585813e+02
6.919650169033163267e-02 5.683507362428168790e+02
7.023705058699701576e-02 5.446878381103992979e+02
7.127759948366239884e-02 5.233429391689928707e+02
7.231814838032778192e-02 5.024668331178293101e+02
7.335869727699316500e-02 4.811250869311624569e+02
7.439924617365854809e-02 4.608582347197576610e+02
7.543979507032393117e-02 4.394574366476828118e+02
7.648034396698931425e-02 4.205146352926153099e+02
7.752089286365469734e-02 4.017899457957777827e+02
7.856144176032008042e-02 3.813050611547698736e+02
7.960199065698546350e-02 3.619826840088962285e+02
8.064253955365084658e-02 3.447682855579208194e+02
8.168308845031622967e-02 3.278283379890353899e+02
8.272363734698161275e-02 3.102376865730673785e+02
8.376418624364699583e-02 2.951201075329002492e+02
8.480473514031239279e-02 2.793408698844830838e+02
8.584528403697777588e-02 2.625197626210051567e+02
8.688583293364315896e-02 2.480741684508196556e+02
8.792638183030854204e-02 2.348068591396792613e+02
8.896693072697392513e-02 2.199629313200847207e+02
9.000747962363930821e-02 2.062060074874881366e+02
9.104802852030469129e-02 1.927055911045582093e+02
9.208857741697007437e-02 1.811350853633269082e+02
9.312912631363545746e-02 1.691387917527682703e+02
9.416967521030084054e-02 1.582752670471933811e+02
9.521022410696622362e-02 1.468749736328223889e+02
9.625077300363160671e-02 1.362918457814598980e+02
9.729132190029698979e-02 1.269842746831374143e+02
9.833187079696237287e-02 1.167327722589350003e+02
9.937241969362775595e-02 1.075109491315631374e+02
1.004129685902931390e-01 9.928897316161433650e+01
1.014535174869585221e-01 9.179724241598991341e+01
1.024940663836239052e-01 8.468071250120949855e+01
1.035346152802892883e-01 7.719332177505313553e+01
1.045751641769546714e-01 6.966342524869386921e+01
1.056157130736200545e-01 6.350444013689939027e+01
1.066562619702854375e-01 5.804432004835263115e+01
1.076968108669508206e-01 5.284484783474378844e+01
1.087373597636162037e-01 4.762055709226363831e+01
1.097779086602815868e-01 4.255031754086080298e+01
1.108184575569469699e-01 3.800221695367392272e+01
1.118590064536123529e-01 3.353449308943392282e+01
1.128995553502777360e-01 2.961979949376660315e+01
1.139401042469431191e-01 2.594304536430403729e+01
1.149806531436085022e-01 2.290427551032152209e+01
1.160212020402738853e-01 2.011785780469781670e+01
1.170617509369392684e-01 1.711631111235471536e+01
1.181022998336046514e-01 1.505676913254790961e+01
1.191428487302700345e-01 1.352406857639545024e+01
1.201833976269354176e-01 1.154631429306850166e+01
1.212239465236008007e-01 9.469747215141946839e+00
1.222644954202661838e-01 7.338670296598639453e+00
1.233050443169315669e-01 6.211650288482818638e+00
1.243455932135969499e-01 4.782412996172489272e+00
1.253861421102623330e-01 4.165577330912960008e+00
1.264266910069277161e-01 3.390958527377620157e+00
1.274672399035930992e-01 2.265388938652446171e+00
1.285077888002584823e-01 1.655132522029937547e+00
1.295483376969238654e-01 1.511740473573940591e+00
1.305888865935892484e-01 1.584871750053970629e+00
1.316294354902546315e-01 1.417124497493126967e+00
1.326699843869200146e-01 1.357898591969817659e+00
1.337105332835853977e-01 1.116882308945733371e+00
1.347510821802507808e-01 1.736744355881274515e+00
1.357916310769161639e-01 2.223797648941772565e+00
1.368321799735815469e-01 2.401085337727554503e+00
1.378727288702469300e-01 2.548042718259306838e+00
1.389132777669123131e-01 2.675221082416772589e+00
1.399538266635776962e-01 2.957210023793962250e+00
1.409943755602430793e-01 3.660313470368901534e+00
1.420349244569084624e-01 4.749770505197361103e+00
1.430754733535738454e-01 5.341986328426969521e+00
1.441160222502392285e-01 5.579128743033162863e+00
1.451565711469046116e-01 6.151514155681613971e+00
1.461971200435699947e-01 6.730618741472760291e+00
1.472376689402353778e-01 7.237666944360540811e+00
1.482782178369007609e-01 7.828745223478218662e+00
1.493187667335661439e-01 8.370886812012322764e+00
1.503593156302315270e-01 8.555463423929239752e+00
1.513998645268969101e-01 8.947809929189737943e+00
1.524404134235622932e-01 9.540560481413038474e+00
1.534809623202276763e-01 1.027102064625906053e+01
1.545215112168930593e-01 1.081695842640133520e+01
1.555620601135584424e-01 1.111371653020955819e+01
1.566026090102238255e-01 1.156160060052075167e+01
1.576431579068892086e-01 1.209705399557644157e+01
1.586837068035545917e-01 1.230519129675375822e+01
1.597242557002199748e-01 1.257232292532604134e+01
1.607648045968853578e-01 1.277291852032479724e+01
1.618053534935507409e-01 1.304740934626829940e+01
1.628459023902161240e-01 1.297964120012429490e+01
1.638864512868815071e-01 1.297228225634477994e+01
1.649270001835468902e-01 1.308441347715589487e+01
1.659675490802122733e-01 1.317378781674565857e+01
1.670080979768776563e-01 1.336371789365156104e+01
1.680486468735430672e-01 1.338696746735486798e+01
1.690891957702084503e-01 1.381532341803091768e+01
1.701297446668738333e-01 1.389779488594152568e+01
1.711702935635392164e-01 1.398617399988097532e+01
1.722108424602045995e-01 1.350440758010581987e+01
1.732513913568699826e-01 1.318249443142501320e+01
1.742919402535353657e-01 1.329737532142282674e+01
1.753324891502007488e-01 1.305276904041367914e+01
1.763730380468661318e-01 1.276297457660628965e+01
1.774135869435315149e-01 1.242982870388625827e+01
1.784541358401968980e-01 1.263118458965060853e+01
1.794946847368622811e-01 1.244389250756959697e+01
1.805352336335276642e-01 1.233640194806454815e+01
1.815757825301930473e-01 1.186673353876422610e+01
1.826163314268584303e-01 1.093267700875409432e+01
1.836568803235238134e-01 1.071926790803287943e+01
1.846974292201891965e-01 1.058073706338412379e+01
1.857379781168545796e-01 1.018798893131830852e+01
1.867785270135199627e-01 9.736041007614105069e+00
1.878190759101853458e-01 9.312870518345459203e+00
1.888596248068507288e-01 8.910049763611858964e+00
1.899001737035161119e-01 8.629254413060113649e+00
1.909407226001814950e-01 8.431310107727988168e+00
1.919812714968468781e-01 7.820483717514218114e+00
1.930218203935122612e-01 7.419605667142654681e+00
1.940623692901776443e-01 7.113917010465399926e+00
1.951029181868430273e-01 6.879496831491120901e+00
1.961434670835084104e-01 6.418105934648700384e+00
1.971840159801737935e-01 6.141668820106534810e+00
1.982245648768391766e-01 5.759430696662150240e+00
1.992651137735045597e-01 5.445857387530072202e+00
2.003056626701699428e-01 5.031433500110722434e+00
2.013462115668353813e-01 4.639269424845128498e+00
2.023867604635007644e-01 3.950284870968584272e+00
2.034273093601661475e-01 3.585755416394778905e+00
2.044678582568315306e-01 3.607703693653679267e+00
2.055084071534969137e-01 3.307859236364397049e+00
2.065489560501622968e-01 2.981114489450121141e+00
2.075895049468276798e-01 2.700741199381727853e+00
2.086300538434930629e-01 2.643947848811972534e+00
2.096706027401584460e-01 2.442100427657734940e+00
2.107111516368238291e-01 1.991736577256947527e+00
2.117517005334892122e-01 1.552967388299752116e+00
2.127922494301545953e-01 1.378169553865664199e+00
2.138327983268199783e-01 1.328697655231014352e+00
2.148733472234853614e-01 1.365329683123047033e+00
2.159138961201507445e-01 1.208904342530221498e+00
2.169544450168161276e-01 1.073427384174550525e+00
2.179949939134815107e-01 1.104738648561593095e+00
2.190355428101468938e-01 8.998686917996465695e-01
2.200760917068122768e-01 4.458251391049046219e-01
2.211166406034776599e-01 4.291776432458505042e-01
2.221571895001430430e-01 5.395628990060004071e-01
2.231977383968084261e-01 6.151770634142010863e-01
2.242382872934738092e-01 2.591737702672567423e-01
2.252788361901391923e-01 4.090859499536101396e-01
2.263193850868045753e-01 7.020444917354495828e-01
2.273599339834699584e-01 8.859981501127549564e-01
2.284004828801353415e-01 6.124836305081799992e-01
2.294410317768007246e-01 3.126710837439681256e-01
2.304815806734661077e-01 1.800957422572828648e-01
2.315221295701314908e-01 4.521229739538803472e-01
2.325626784667968738e-01 3.443599355026698561e-01
2.336032273634622569e-01 3.390186660216230052e-01
2.346437762601276400e-01 5.264391435777575623e-01
2.356843251567930231e-01 6.626960747527590456e-01
2.367248740534584062e-01 7.412062979348696956e-01
2.377654229501237892e-01 7.962412881357785466e-01
2.388059718467891723e-01 8.060782205491356933e-01
2.398465207434545554e-01 9.740203711232879868e-01
2.408870696401199385e-01 1.174709420765545076e+00
2.419276185367853216e-01 1.484258254935735266e+00
2.429681674334507047e-01 1.574551753975356405e+00
2.440087163301160877e-01 1.334183292425507261e+00
2.450492652267814708e-01 1.123570016271084882e+00
2.460898141234468539e-01 1.245890806462060851e+00
2.471303630201122370e-01 1.552704341631812923e+00
2.481709119167776201e-01 1.798199322549397294e+00
2.492114608134430032e-01 1.933122966174888546e+00
2.502520097101083585e-01 1.928870251684646320e+00
2.512925586067737416e-01 1.886640379563282011e+00
2.523331075034391247e-01 1.743263142305249147e+00
2.533736564001045077e-01 1.850663188414909399e+00
2.544142052967698908e-01 2.201563465085257576e+00
2.554547541934352739e-01 1.816095406812834767e+00
2.564953030901006570e-01 1.994907453212775295e+00
2.575358519867660401e-01 2.075103634670774966e+00
2.585764008834314231e-01 1.787222728186154797e+00
2.596169497800968062e-01 2.065900027938379679e+00
2.606574986767621893e-01 2.185028620343111072e+00
2.616980475734275724e-01 2.412338660893922793e+00
2.627385964700929555e-01 2.436000398305012027e+00
2.637791453667583386e-01 2.445848639576325922e+00
2.648196942634237216e-01 2.522453995837242502e+00
2.658602431600891047e-01 2.250391428796412185e+00
2.669007920567544878e-01 2.207430417746696349e+00
2.679413409534198709e-01 2.259639665286314880e+00
2.689818898500852540e-01 2.206054347599152976e+00
2.700224387467506371e-01 2.326196284228128519e+00
2.710629876434160201e-01 2.414470896663317490e+00
2.721035365400814032e-01 2.366646233364789964e+00
2.731440854367467863e-01 2.303817968064670652e+00
2.741846343334121694e-01 2.203376740368174325e+00
2.752251832300775525e-01 2.121691197704638654e+00
2.762657321267429356e-01 1.842276070736325266e+00
2.773062810234083186e-01 1.810818073709420162e+00
2.783468299200737017e-01 2.096560586843299490e+00
2.793873788167390848e-01 2.056322138021737800e+00
2.804279277134044679e-01 1.749807561971152836e+00
2.814684766100698510e-01 1.714839342187104876e+00
2.825090255067352341e-01 1.681898204804056718e+00
2.835495744034006171e-01 1.701409135932816952e+00
2.845901233000660002e-01 1.646341692574747384e+00
2.856306721967313833e-01 1.377577143376747415e+00
2.866712210933967664e-01 1.437131531249185912e+00
2.877117699900621495e-01 1.568685312434439538e+00
2.887523188867275326e-01 1.547633597857210219e+00
2.897928677833929156e-01 1.499055178201363248e+00
2.908334166800582987e-01 1.472858152482512395e+00
2.918739655767236818e-01 1.295996634868163966e+00
2.929145144733890649e-01 1.216624814470055327e+00
2.939550633700544480e-01 1.202815120462965126e+00
2.949956122667198311e-01 1.142350912597979828e+00
2.960361611633852141e-01 8.449301387948473518e-01
2.970767100600505972e-01 8.523256477335365844e-01
2.981172589567159803e-01 6.148587940168148691e-01
2.991578078533813634e-01 7.006205486062810905e-01
3.001983567500468020e-01 8.771298664304509884e-01
3.012389056467121851e-01 6.209626947022464094e-01
3.022794545433775681e-01 6.226253958950458411e-01
3.033200034400429512e-01 6.013929605498198327e-01
3.043605523367083343e-01 5.204235252162199288e-01
3.054011012333737174e-01 7.913224806017105095e-01
3.064416501300391005e-01 6.231290828152111771e-01
3.074821990267044836e-01 5.593546121428971674e-01
3.085227479233698666e-01 4.094772441524234807e-01
3.095632968200352497e-01 4.873557032678768053e-01
3.106038457167006328e-01 3.414948102879193925e-01
3.116443946133660159e-01 2.737560718185250153e-01
3.126849435100313990e-01 2.105661123388955502e-01
3.137254924066967821e-01 3.215263283601572653e-01
3.147660413033621651e-01 4.395294005557737194e-01
3.158065902000275482e-01 1.698359276503964566e-01
3.168471390966929313e-01 1.324604864590668285e-01
3.178876879933583144e-01 3.265127033877348595e-01
3.189282368900236975e-01 2.002449369585761474e-01
3.199687857866890806e-01 3.281677546998658102e-01
3.210093346833544636e-01 5.708087806753852078e-01
3.220498835800198467e-01 5.846372910313206717e-01
3.230904324766852298e-01 5.936760022150444627e-01
3.241309813733506129e-01 6.168404201324548808e-01
3.251715302700159960e-01 3.626439257363820445e-01
3.262120791666813790e-01 3.399778799450672295e-01
3.272526280633467621e-01 3.299035354490413852e-01
3.282931769600121452e-01 5.451180738629055611e-01
3.293337258566775283e-01 6.821272057411249534e-01
3.303742747533429114e-01 4.168895171210031947e-01
3.314148236500082945e-01 3.184652858176484358e-01
3.324553725466736775e-01 3.596201999070807176e-01
3.334959214433390606e-01 5.827486204884309018e-01
3.345364703400044437e-01 5.965317415383601940e-01
3.355770192366698268e-01 5.317849154655007737e-01
3.366175681333352099e-01 4.935991879895169632e-01
3.376581170300005930e-01 6.048520578907208289e-01
3.386986659266659760e-01 5.574898055452379708e-01
3.397392148233313591e-01 4.533471356637974736e-01
3.407797637199967422e-01 3.339479121053869903e-01
3.418203126166621253e-01 2.609067402888562981e-01
3.428608615133275084e-01 4.118030289684853074e-01
3.439014104099928915e-01 5.763781050843590492e-01
3.449419593066582745e-01 6.132187446911423478e-01
3.459825082033236576e-01 4.955704882744491613e-01
3.470230570999890407e-01 5.368788049551582731e-01
3.480636059966544238e-01 7.913996714089037710e-01
3.491041548933198069e-01 8.406105830192771577e-01
3.501447037899851900e-01 8.101464223426617650e-01
3.511852526866505730e-01 9.529216911759661457e-01
3.522258015833159561e-01 7.439210146288566250e-01
3.532663504799813392e-01 5.378067525660163994e-01
3.543068993766467223e-01 4.511204840631215518e-01
3.553474482733121054e-01 4.981416257345223642e-01
3.563879971699774885e-01 6.674732724712022502e-01
3.574285460666428715e-01 6.295836265729874981e-01
3.584690949633082546e-01 6.152757585418235919e-01
3.595096438599736377e-01 6.660585016120421642e-01
3.605501927566390208e-01 5.913334237991811904e-01
3.615907416533044039e-01 5.859788534767922386e-01
3.626312905499697870e-01 6.334517050733019516e-01
3.636718394466351700e-01 7.733969838151182330e-01
3.647123883433005531e-01 7.550693977798275114e-01
3.657529372399659362e-01 8.980986101152410583e-01
3.667934861366313193e-01 9.999117062993292393e-01
3.678340350332967024e-01 7.721734946215867978e-01
3.688745839299620854e-01 6.752163004742079977e-01
3.699151328266274685e-01 6.336835619960190513e-01
3.709556817232928516e-01 6.187537036952122094e-01
3.719962306199582347e-01 7.068542926183774000e-01
3.730367795166236178e-01 7.121275066282173327e-01
3.740773284132890009e-01 4.241040221130205623e-01
3.751178773099543839e-01 5.555639968899726000e-01
3.761584262066197670e-01 6.789863142767096349e-01
3.771989751032851501e-01 6.353339227276073586e-01
3.782395239999505332e-01 6.245842748267875777e-01
3.792800728966159163e-01 5.995677126499856513e-01
3.803206217932812994e-01 5.893382299964535775e-01
3.813611706899466824e-01 5.801966265164786307e-01
3.824017195866120655e-01 4.661377928524714775e-01
3.834422684832774486e-01 3.912797486307582062e-01
3.844828173799428317e-01 3.947200031764808159e-01
3.855233662766082148e-01 6.134908976208564013e-01
3.865639151732735979e-01 5.224332299238270139e-01
3.876044640699389809e-01 4.976596579604830595e-01
3.886450129666043640e-01 7.008642985034825301e-01
3.896855618632697471e-01 5.530102843006794444e-01
3.907261107599351302e-01 3.989912831646371671e-01
3.917666596566005133e-01 4.144024227375560088e-01
3.928072085532658964e-01 3.958055928563872783e-01
3.938477574499312794e-01 3.986850229130425305e-01
3.948883063465966625e-01 2.893406522643537926e-01
3.959288552432620456e-01 3.948006260040592963e-01
3.969694041399274287e-01 3.963212525989838753e-01
3.980099530365928118e-01 2.923842756401988652e-01
3.990505019332581949e-01 3.049032698243827610e-01
4.000910508299235779e-01 3.054358462635313742e-01
4.011315997265889610e-01 4.531190329648779880e-01
4.021721486232543441e-01 5.331141004566468666e-01
4.032126975199197272e-01 3.290119815471790332e-01
4.042532464165851103e-01 3.415700203341529573e-01
4.052937953132504934e-01 4.792330421562951415e-01
4.063343442099158764e-01 3.402849082491528065e-01
4.073748931065812595e-01 3.184880094312312337e-01
4.084154420032466426e-01 3.614375281933099870e-01
4.094559908999120257e-01 3.158079700633855680e-01
4.104965397965774088e-01 2.425403712907545639e-01
4.115370886932427918e-01 3.053245640196102784e-01
4.125776375899081749e-01 3.472383701756491803e-01
4.136181864865735580e-01 5.275666338296431945e-01
4.146587353832389411e-01 4.587426870065272055e-01
4.156992842799043242e-01 2.531389017772660566e-01
4.167398331765697073e-01 0.000000000000000000e+00
4.177803820732350903e-01 2.357552040146160266e-02
4.188209309699004734e-01 3.735492875142654157e-02
4.198614798665658565e-01 2.776100901089328943e-01
4.209020287632312396e-01 2.650839342949140587e-01
4.219425776598966227e-01 2.110720524713869395e-01
4.229831265565620058e-01 2.396542101506327072e-01
4.240236754532273888e-01 1.500613204396934464e-01
4.250642243498927719e-01 4.365565110182458852e-01
4.261047732465581550e-01 5.442692192835458798e-01
4.271453221432235381e-01 3.031739394311792068e-01
4.281858710398889212e-01 1.489896434273525472e-01
4.292264199365543043e-01 9.373974948975316579e-02
4.302669688332196873e-01 2.701254590756292373e-01
4.313075177298850704e-01 3.678646365813733610e-01
4.323480666265504535e-01 2.555791824579323190e-01
4.333886155232158366e-01 1.521432494188452722e-01
4.344291644198812197e-01 1.156505552045636875e-01
