# q (1/Angstrom), Intensity (arb)
2.029070354705860696e-02 2.568988012268888497e+02
2.133125244372399004e-02 2.565792325812362833e+02
2.237180134038937659e-02 2.551767010764012014e+02
2.341235023705475968e-02 2.521353054751083107e+02
2.445289913372014276e-02 2.476873426017415341e+02
2.549344803038552584e-02 2.466362426455471279e+02
2.653399692705091240e-02 2.453816389953302917e+02
2.757454582371629548e-02 2.428570939401897419e+02
2.861509472038167856e-02 2.416582105318127276e+02
2.965564361704706164e-02 2.403636388370752002e+02
3.069619251371244473e-02 2.375306990511567449e+02
3.173674141037782781e-02 2.330000699537903301e+02
3.277729030704321089e-02 2.307824275319433696e+02
3.381783920370859398e-02 2.270763436101339607e+02
3.485838810037397706e-02 2.219846191263078197e+02
3.589893699703936014e-02 2.193759702204477549e+02
3.693948589370474322e-02 2.168807987269720741e+02
3.798003479037012631e-02 2.147406076740621188e+02
3.902058368703550939e-02 2.114782613339449142e+02
4.006113258370089247e-02 2.069164545848816772e+02
4.110168148036627556e-02 2.019817750637515132e+02
4.214223037703165864e-02 1.992360573138693951e+02
4.318277927369704866e-02 1.947564829842928589e+02
4.422332817036243174e-02 1.899873425682659729e+02
4.526387706702781483e-02 1.868164827621935729e+02
4.630442596369319791e-02 1.826355250953966447e+02
4.734497486035858099e-02 1.792643676648369535e+02
4.838552375702396408e-02 1.756848137271511519e+02
4.942607265368934716e-02 1.713840126707884224e+02
5.046662155035473024e-02 1.669448223550218131e+02
5.150717044702011332e-02 1.618223931009623016e+02
5.254771934368549641e-02 1.592528902479936335e+02
5.358826824035087949e-02 1.552463452513820812e+02
5.462881713701626257e-02 1.516825035660560559e+02
5.566936603368164566e-02 1.483140475804302696e+02
5.670991493034702874e-02 1.442043497425229930e+02
5.775046382701241182e-02 1.389647807670888255e+02
5.879101272367779490e-02 1.350528676837277260e+02
5.983156162034317799e-02 1.307962426160960945e+02
6.087211051700856107e-02 1.276692716446984974e+02
6.191265941367394415e-02 1.245209028165409393e+02
6.295320831033933417e-02 1.206613446557166327e+02
6.399375720700471726e-02 1.165527526824911320e+02
6.503430610367010034e-02 1.127817782162472042e+02
6.607485500033548342e-02 1.090292792917706208e+02
6.711540389700086651e-02 1.058108504521393911e+02
6.815595279366624959e-02 1.025930182019481123e+02
6.919650169033163267e-02 9.950990365130610371e+01
7.023705058699701576e-02 9.622785392642144586e+01
7.127759948366239884e-02 9.335216418672682437e+01
7.231814838032778192e-02 9.078970365929984609e+01
7.335869727699316500e-02 8.851325913362487086e+01
7.439924617365854809e-02 8.588374839937537786e+01
7.543979507032393117e-02 8.303488006370588437e+01
7.648034396698931425e-02 8.033710622529770262e+01
7.752089286365469734e-02 7.919516653260549788e+01
7.856144176032008042e-02 7.992313899335186989e+01
7.960199065698546350e-02 8.281591253737673242e+01
8.064253955365084658e-02 9.542742619852722896e+01
8.168308845031622967e-02 1.701247406296704128e+02
8.272363734698161275e-02 4.123750279947047943e+02
8.376418624364699583e-02 5.579494245839084670e+02
8.480473514031239279e-02 3.580134302783096132e+02
8.584528403697777588e-02 2.157112960331013483e+02
8.688583293364315896e-02 2.901731748327032960e+02
8.792638183030854204e-02 5.715612859403437369e+02
8.896693072697392513e-02 6.456382122519806899e+02
9.000747962363930821e-02 3.638552084707090444e+02
9.104802852030469129e-02 2.339070572649224573e+02
9.208857741697007437e-02 3.122801968778674109e+02
9.312912631363545746e-02 6.110680381044609248e+02
9.416967521030084054e-02 9.729409531233995949e+02
9.521022410696622362e-02 8.164969440777219916e+02
9.625077300363160671e-02 3.734924519770586357e+02
9.729132190029698979e-02 1.628955794921030247e+02
9.833187079696237287e-02 9.539978588937732695e+01
9.937241969362775595e-02 6.714769180016426731e+01
1.004129685902931390e-01 5.456782726313623755e+01
1.014535174869585221e-01 5.208936705883293428e+01
1.024940663836239052e-01 4.641058542828790223e+01
1.035346152802892883e-01 3.464005600823226416e+01
1.045751641769546714e-01 2.658207137128779252e+01
1.056157130736200545e-01 2.187143951198562064e+01
1.066562619702854375e-01 1.923325160853378435e+01
1.076968108669508206e-01 1.716533927072292087e+01
1.087373597636162037e-01 1.492749198155802404e+01
1.097779086602815868e-01 1.375170606032441611e+01
1.108184575569469699e-01 1.279335567713421895e+01
1.118590064536123529e-01 1.155859422425329086e+01
1.128995553502777360e-01 1.026811855779588001e+01
1.139401042469431191e-01 9.101944337880990332e+00
1.149806531436085022e-01 8.518972400573222359e+00
1.160212020402738853e-01 7.942540250213539821e+00
1.170617509369392684e-01 7.819629209509368906e+00
1.181022998336046514e-01 7.218670829980613490e+00
1.191428487302700345e-01 7.159357525195204630e+00
1.201833976269354176e-01 7.951325325476577888e+00
1.212239465236008007e-01 8.007296091170001517e+00
1.222644954202661838e-01 6.853305983364911924e+00
1.233050443169315669e-01 5.145546390700324935e+00
1.243455932135969499e-01 3.613997676043840812e+00
1.253861421102623330e-01 2.715426519247479575e+00
1.264266910069277161e-01 2.430930920267272199e+00
1.274672399035930992e-01 2.199630881979118158e+00
1.285077888002584823e-01 1.570990647246848226e+00
1.295483376969238654e-01 1.564749846053793192e+00
1.305888865935892484e-01 1.899025905788814583e+00
1.316294354902546315e-01 1.777803832886121427e+00
1.326699843869200146e-01 1.315774226422306015e+00
1.337105332835853977e-01 1.377638465401648915e+00
1.347510821802507808e-01 1.505384946455553319e+00
1.357916310769161639e-01 1.492554987173654979e+00
1.368321799735815469e-01 1.335480337972562381e+00
1.378727288702469300e-01 1.145725323486679770e+00
1.389132777669123131e-01 1.215968993690626831e+00
1.399538266635776962e-01 1.250865293755470731e+00
1.409943755602430793e-01 1.794403590366346890e+00
1.420349244569084624e-01 2.629414938192958573e+00
1.430754733535738454e-01 6.312195274601826611e+00
1.441160222502392285e-01 1.405319388280234705e+01
1.451565711469046116e-01 1.321898762866801036e+01
1.461971200435699947e-01 5.633441202960586480e+00
1.472376689402353778e-01 3.080404569490301725e+00
1.482782178369007609e-01 2.729448329509693849e+00
1.493187667335661439e-01 3.003968178254844190e+00
1.503593156302315270e-01 3.347351686347671773e+00
1.513998645268969101e-01 3.468063413660672722e+00
1.524404134235622932e-01 4.189600313899202177e+00
1.534809623202276763e-01 5.378699786215129564e+00
1.545215112168930593e-01 8.080273227483424137e+00
1.555620601135584424e-01 1.400050643809328932e+01
1.566026090102238255e-01 2.115712617734130063e+01
1.576431579068892086e-01 2.006745711535279142e+01
1.586837068035545917e-01 1.275089362436266427e+01
1.597242557002199748e-01 7.844226333114939109e+00
1.607648045968853578e-01 5.833467612947050185e+00
1.618053534935507409e-01 5.120123478325886879e+00
1.628459023902161240e-01 4.833509550301261726e+00
1.638864512868815071e-01 4.955317110519157353e+00
1.649270001835468902e-01 5.610854298284717601e+00
1.659675490802122733e-01 8.638273395289587597e+00
1.670080979768776563e-01 1.451524322592733895e+01
1.680486468735430672e-01 2.732567397095544237e+01
1.690891957702084503e-01 5.467632624397757724e+01
1.701297446668738333e-01 5.210959774549734647e+01
1.711702935635392164e-01 3.117244566762143165e+01
1.722108424602045995e-01 3.265876677872631717e+01
1.732513913568699826e-01 3.001245595832925872e+01
1.742919402535353657e-01 1.603119843161047697e+01
1.753324891502007488e-01 9.627969349157993406e+00
1.763730380468661318e-01 1.091060365483030736e+01
1.774135869435315149e-01 1.136931925135611365e+01
1.784541358401968980e-01 7.284140011119792035e+00
1.794946847368622811e-01 4.377351264272242304e+00
1.805352336335276642e-01 3.776593647232054707e+00
1.815757825301930473e-01 3.821773912739729440e+00
1.826163314268584303e-01 3.793923502140373216e+00
1.836568803235238134e-01 3.737138253959400913e+00
1.846974292201891965e-01 3.714481026800530827e+00
1.857379781168545796e-01 3.888295449837261941e+00
1.867785270135199627e-01 4.103914658077254529e+00
1.878190759101853458e-01 4.881742804068089470e+00
1.888596248068507288e-01 5.334554176241709911e+00
1.899001737035161119e-01 4.691861902918464722e+00
1.909407226001814950e-01 3.852565983521497373e+00
1.919812714968468781e-01 3.322828693255257093e+00
1.930218203935122612e-01 3.096677208682152127e+00
1.940623692901776443e-01 2.757877092397478691e+00
1.951029181868430273e-01 2.938606887337506635e+00
1.961434670835084104e-01 3.058879660924514354e+00
1.971840159801737935e-01 2.942493371636004440e+00
1.982245648768391766e-01 2.611306049985728350e+00
1.992651137735045597e-01 2.016440278360867921e+00
2.003056626701699428e-01 1.666919566190099289e+00
2.013462115668353813e-01 1.648594077679298664e+00
2.023867604635007644e-01 1.495619602160317640e+00
2.034273093601661475e-01 1.292486768893436277e+00
2.044678582568315306e-01 8.894446537217710613e-01
2.055084071534969137e-01 9.983915756515955309e-01
2.065489560501622968e-01 1.213467793506939785e+00
2.075895049468276798e-01 1.039552128705874878e+00
2.086300538434930629e-01 9.027180238923477873e-01
2.096706027401584460e-01 1.113540366392136605e+00
2.107111516368238291e-01 1.283804914384823803e+00
2.117517005334892122e-01 1.480968057785609915e+00
2.127922494301545953e-01 1.647969164769904182e+00
2.138327983268199783e-01 1.732971464815062035e+00
2.148733472234853614e-01 1.264835685316182179e+00
2.159138961201507445e-01 7.449222517741738159e-01
2.169544450168161276e-01 6.755964360180719552e-01
2.179949939134815107e-01 6.578608757520001404e-01
2.190355428101468938e-01 7.761846010046085098e-01
2.200760917068122768e-01 1.072914098762915103e+00
2.211166406034776599e-01 6.887897593801710627e-01
2.221571895001430430e-01 4.751726454986204828e-01
2.231977383968084261e-01 4.891049047198237076e-01
2.242382872934738092e-01 6.218276166395462212e-01
2.252788361901391923e-01 5.565139847031943532e-01
2.263193850868045753e-01 4.421403420926957040e-01
2.273599339834699584e-01 4.827403443518178960e-01
2.284004828801353415e-01 4.580993927789336340e-01
2.294410317768007246e-01 6.880670414154046455e-01
2.304815806734661077e-01 4.055894532349988424e-01
2.315221295701314908e-01 4.338090625628545638e-01
2.325626784667968738e-01 4.160887134867650161e-01
2.336032273634622569e-01 5.026977624966555425e-01
2.346437762601276400e-01 4.472811213612040149e-01
2.356843251567930231e-01 4.133630704914281750e-01
2.367248740534584062e-01 8.085094799059397985e-01
2.377654229501237892e-01 9.936265471205949495e-01
2.388059718467891723e-01 8.950365454533368847e-01
2.398465207434545554e-01 6.799842693315447661e-01
2.408870696401199385e-01 6.341423866721953573e-01
2.419276185367853216e-01 8.129481311588833137e-01
2.429681674334507047e-01 7.536149913616299045e-01
2.440087163301160877e-01 7.998365274523919766e-01
2.450492652267814708e-01 5.745026046969883282e-01
2.460898141234468539e-01 6.819006017179560786e-01
2.471303630201122370e-01 5.692258042538398399e-01
2.481709119167776201e-01 8.187586707921674645e-01
2.492114608134430032e-01 1.289843394250198116e+00
2.502520097101083585e-01 1.905794322531274787e+00
2.512925586067737416e-01 1.757722978224208532e+00
2.523331075034391247e-01 1.432724330138384516e+00
2.533736564001045077e-01 1.065306792015697113e+00
2.544142052967698908e-01 9.758013960084639393e-01
2.554547541934352739e-01 1.349795722797683339e+00
2.564953030901006570e-01 2.229073159112228808e+00
2.575358519867660401e-01 3.239816590483545866e+00
2.585764008834314231e-01 2.834929114817246187e+00
2.596169497800968062e-01 1.749364037167527641e+00
2.606574986767621893e-01 1.339010126938660505e+00
2.616980475734275724e-01 1.113194957675151642e+00
2.627385964700929555e-01 1.179601964102761968e+00
2.637791453667583386e-01 1.825784635410617085e+00
2.648196942634237216e-01 3.498105366410047878e+00
2.658602431600891047e-01 4.207760144025161964e+00
2.669007920567544878e-01 2.468548660716805898e+00
2.679413409534198709e-01 1.227580626233955030e+00
2.689818898500852540e-01 1.061548095652064205e+00
2.700224387467506371e-01 8.944867011849666483e-01
2.710629876434160201e-01 1.176303580632545476e+00
2.721035365400814032e-01 1.259351042063855175e+00
2.731440854367467863e-01 1.086322484019895285e+00
2.741846343334121694e-01 1.090851379487776995e+00
2.752251832300775525e-01 1.224155423963477318e+00
2.762657321267429356e-01 1.472569281049267431e+00
2.773062810234083186e-01 1.596839766213072664e+00
2.783468299200737017e-01 1.441519939395416117e+00
2.793873788167390848e-01 1.143427762682740934e+00
2.804279277134044679e-01 1.002882785855401693e+00
2.814684766100698510e-01 9.487525990948384447e-01
2.825090255067352341e-01 1.083636068871125957e+00
2.835495744034006171e-01 1.118479040077339448e+00
2.845901233000660002e-01 1.097239610897343454e+00
2.856306721967313833e-01 8.424310360942826037e-01
2.866712210933967664e-01 9.875557009809341480e-01
2.877117699900621495e-01 1.239811688264573775e+00
2.887523188867275326e-01 1.397761930763756766e+00
2.897928677833929156e-01 1.117163234304424435e+00
2.908334166800582987e-01 6.902730320808885267e-01
2.918739655767236818e-01 4.597443097213194108e-01
2.929145144733890649e-01 3.824478217071813901e-01
2.939550633700544480e-01 2.737217917193248695e-01
2.949956122667198311e-01 3.942270206416473854e-01
2.960361611633852141e-01 5.551620202444098595e-01
2.970767100600505972e-01 5.510994046851145356e-01
2.981172589567159803e-01 5.563272266895822327e-01
2.991578078533813634e-01 7.258321552451505454e-01
3.001983567500468020e-01 8.270106866351802921e-01
3.012389056467121851e-01 9.839974619106328646e-01
3.022794545433775681e-01 1.259884851570301834e+00
3.033200034400429512e-01 1.310488900605488283e+00
3.043605523367083343e-01 1.296514321408675841e+00
3.054011012333737174e-01 7.773097055225086649e-01
3.064416501300391005e-01 4.701451500454538746e-01
3.074821990267044836e-01 6.592413294237395860e-01
3.085227479233698666e-01 5.561959127434299432e-01
3.095632968200352497e-01 4.063132348553963880e-01
3.106038457167006328e-01 4.552574179929855802e-01
3.116443946133660159e-01 3.146515764885577937e-01
3.126849435100313990e-01 4.045451575326097782e-01
3.137254924066967821e-01 5.909722927240217416e-01
3.147660413033621651e-01 5.388574608725704707e-01
3.158065902000275482e-01 3.552119708800240971e-01
3.168471390966929313e-01 1.801216429948127029e-01
3.178876879933583144e-01 8.827852261910962284e-02
3.189282368900236975e-01 1.618752893825003980e-01
3.199687857866890806e-01 2.882417198457609686e-01
3.210093346833544636e-01 3.654379811794115085e-01
3.220498835800198467e-01 6.708586350358558548e-02
3.230904324766852298e-01 0.000000000000000000e+00
3.241309813733506129e-01 3.271026807308032858e-01
3.251715302700159960e-01 3.755570092583546682e-01
3.262120791666813790e-01 2.875855121393371405e-01
3.272526280633467621e-01 4.582326277024293404e-01
3.282931769600121452e-01 2.612509267388851697e-01
3.293337258566775283e-01 2.877805414981082777e-01
3.303742747533429114e-01 1.848607168526541500e-01
3.314148236500082945e-01 1.301708097831131283e-01
3.324553725466736775e-01 3.193056259366215954e-01
3.334959214433390606e-01 2.591870618584586339e-01
3.345364703400044437e-01 1.845091464435171247e-01
3.355770192366698268e-01 4.946166811415473319e-01
3.366175681333352099e-01 6.227818280273922369e-01
3.376581170300005930e-01 4.306131761673945846e-01
3.386986659266659760e-01 4.956872752284162686e-01
3.397392148233313591e-01 5.127068902838161080e-01
3.407797637199967422e-01 4.325871556019968978e-01
3.418203126166621253e-01 3.301869300177422417e-01
3.428608615133275084e-01 2.572130043010929512e-01
3.439014104099928915e-01 2.907843084431114278e-01
3.449419593066582745e-01 4.658785727387311226e-01
3.459825082033236576e-01 5.906431936971472396e-01
3.470230570999890407e-01 5.350731953654701556e-01
3.480636059966544238e-01 3.336175090687731881e-01
3.491041548933198069e-01 4.496483342567501040e-01
3.501447037899851900e-01 5.333935414875874415e-01
3.511852526866505730e-01 5.592745072397988793e-01
3.522258015833159561e-01 5.338992247088221177e-01
3.532663504799813392e-01 5.872498602473861240e-01
3.543068993766467223e-01 4.774554197454996540e-01
3.553474482733121054e-01 3.736369008808537728e-01
3.563879971699774885e-01 3.215372702982861597e-01
3.574285460666428715e-01 5.796905357244952484e-01
3.584690949633082546e-01 6.183528096135120222e-01
3.595096438599736377e-01 5.208959003031097268e-01
3.605501927566390208e-01 4.545852387934949945e-01
3.615907416533044039e-01 5.748720508840854393e-01
3.626312905499697870e-01 5.726614857288971905e-01
3.636718394466351700e-01 7.366324162146860033e-01
3.647123883433005531e-01 1.127883655075503810e+00
3.657529372399659362e-01 1.124894951043760472e+00
3.667934861366313193e-01 1.139822390983859179e+00
3.678340350332967024e-01 9.206834442328073465e-01
3.688745839299620854e-01 7.908638475327478545e-01
3.699151328266274685e-01 5.017848041320220887e-01
3.709556817232928516e-01 6.281701297710107212e-01
3.719962306199582347e-01 6.005642680852680826e-01
3.730367795166236178e-01 7.036254339247349776e-01
3.740773284132890009e-01 9.025387011527712389e-01
3.751178773099543839e-01 7.295505305514637939e-01
3.761584262066197670e-01 6.422426094628050919e-01
3.771989751032851501e-01 7.331167482653491163e-01
3.782395239999505332e-01 6.875995422731442375e-01
3.792800728966159163e-01 7.079133979947904720e-01
3.803206217932812994e-01 7.770179061454065561e-01
3.813611706899466824e-01 8.693992014360105713e-01
3.824017195866120655e-01 7.828980440394843754e-01
3.834422684832774486e-01 6.032709250969823245e-01
3.844828173799428317e-01 6.977021823560178859e-01
3.855233662766082148e-01 5.815908694576101823e-01
3.865639151732735979e-01 4.498467612408845184e-01
3.876044640699389809e-01 4.849497948236844991e-01
3.886450129666043640e-01 6.174424555831450334e-01
3.896855618632697471e-01 5.022242811328787582e-01
3.907261107599351302e-01 5.184891497452284170e-01
3.917666596566005133e-01 6.524530106098715976e-01
3.928072085532658964e-01 7.685087272622510568e-01
3.938477574499312794e-01 4.325827572041553992e-01
3.948883063465966625e-01 3.479735394764666978e-01
3.959288552432620456e-01 3.576527874684494179e-01
3.969694041399274287e-01 4.589536471500821335e-01
3.980099530365928118e-01 2.605610235903235150e-01
3.990505019332581949e-01 1.193322079160417104e-01
4.000910508299235779e-01 1.911197450818988841e-01
4.011315997265889610e-01 2.750746233099299332e-01
4.021721486232543441e-01 2.864767078137120393e-01
4.032126975199197272e-01 3.335464299653096987e-01
4.042532464165851103e-01 3.975075114971922119e-01
4.052937953132504934e-01 3.563565915525579442e-01
4.063343442099158764e-01 3.667795613542992328e-01
4.073748931065812595e-01 5.594604713310182831e-01
4.084154420032466426e-01 4.974825798211277572e-01
4.094559908999120257e-01 4.570542185542230129e-01
4.104965397965774088e-01 3.381507859104537772e-01
4.115370886932427918e-01 3.233173103296458351e-01
4.125776375899081749e-01 3.006409008229304902e-01
4.136181864865735580e-01 3.288930813214818727e-01
4.146587353832389411e-01 2.454239863550178313e-01
4.156992842799043242e-01 2.101904228787141449e-01
4.167398331765697073e-01 1.832170358363995888e-01
4.177803820732350903e-01 2.480681946217586642e-01
4.188209309699004734e-01 2.970642585746077202e-01
4.198614798665658565e-01 3.432252426416688706e-01
4.209020287632312396e-01 5.260331393335881955e-01
4.219425776598966227e-01 5.743400532561508953e-01
4.229831265565620058e-01 6.014076321964267891e-01
4.240236754532273888e-01 5.329824758571604093e-01
4.250642243498927719e-01 3.441475921799046489e-01
4.261047732465581550e-01 4.758322484119084095e-01
4.271453221432235381e-01 4.884014134509087057e-01
4.281858710398889212e-01 3.983451689893975356e-01
4.292264199365543043e-01 3.828576345220291444e-01
4.302669688332196873e-01 4.422346729110451236e-01
4.313075177298850704e-01 4.262122900538365400e-01
4.323480666265504535e-01 3.116379552405739162e-01
4.333886155232158366e-01 3.272009544963623284e-01
4.344291644198812197e-01 4.445664675662754917e-01
