# q (1/Angstrom), Intensity (arb)
2.029070354705860696e-02 1.590308243927813237e+03
2.133125244372399004e-02 1.577228130018629599e+03
2.237180134038937659e-02 1.567380187173116610e+03
2.341235023705475968e-02 1.558113926804684525e+03
2.445289913372014276e-02 1.544039141037992749e+03
2.549344803038552584e-02 1.527044274008127331e+03
2.653399692705091240e-02 1.513094376272495765e+03
2.757454582371629548e-02 1.499935032779020275e+03
2.861509472038167856e-02 1.480516650697831665e+03
2.965564361704706164e-02 1.460088599676023478e+03
3.069619251371244473e-02 1.441948055007261473e+03
3.173674141037782781e-02 1.424298621870081888e+03
3.277729030704321089e-02 1.405586426409735623e+03
3.381783920370859398e-02 1.383544642864103935e+03
3.485838810037397706e-02 1.359260646064384218e+03
3.589893699703936014e-02 1.336210637895444734e+03
3.693948589370474322e-02 1.309726652455903832e+03
3.798003479037012631e-02 1.283438886044582887e+03
3.902058368703550939e-02 1.262928452056906281e+03
4.006113258370089247e-02 1.239592494158560385e+03
4.110168148036627556e-02 1.214494892272685547e+03
4.214223037703165864e-02 1.185854932086940835e+03
4.318277927369704866e-02 1.163915535064042615e+03
4.422332817036243174e-02 1.137883968238565103e+03
4.526387706702781483e-02 1.110088157026979616e+03
4.630442596369319791e-02 1.085700231333622924e+03
4.734497486035858099e-02 1.062654301759600457e+03
4.838552375702396408e-02 1.037180263805207687e+03
4.942607265368934716e-02 1.010015815494627191e+03
5.046662155035473024e-02 9.836879902040684556e+02
5.150717044702011332e-02 9.589671113045191078e+02
5.254771934368549641e-02 9.337107340836173535e+02
5.358826824035087949e-02 9.072146419951196776e+02
5.462881713701626257e-02 8.809654515271362243e+02
5.566936603368164566e-02 8.551872342794925999e+02
5.670991493034702874e-02 8.272315405593604964e+02
5.775046382701241182e-02 8.025706179579832451e+02
5.879101272367779490e-02 7.778694564838018550e+02
5.983156162034317799e-02 7.548997745733578313e+02
6.087211051700856107e-02 7.293886644925825067e+02
6.191265941367394415e-02 7.034272038665370701e+02
6.295320831033933417e-02 6.784554574659907757e+02
6.399375720700471726e-02 6.552727117294166419e+02
6.503430610367010034e-02 6.318764483613572338e+02
6.607485500033548342e-02 6.091523523581993231e+02
6.711540389700086651e-02 5.878713522809423466e+02
6.815595279366624959e-02 5.644830477664454520e+02
6.919650169033163267e-02 5.417130383830242408e+02
7.023705058699701576e-02 5.182723807477981381e+02
7.127759948366239884e-02 4.987397618758652129e+02
7.231814838032778192e-02 4.776715891126719384e+02
7.335869727699316500e-02 4.574904115676313836e+02
7.439924617365854809e-02 4.369611459872165256e+02
7.543979507032393117e-02 4.157100241764170505e+02
7.648034396698931425e-02 3.983008324868360432e+02
7.752089286365469734e-02 3.795574504522929828e+02
7.856144176032008042e-02 3.608768902792193103e+02
7.960199065698546350e-02 3.443267810001951830e+02
8.064253955365084658e-02 3.267595283537703494e+02
8.168308845031622967e-02 3.106281894071304919e+02
8.272363734698161275e-02 2.941745907635074673e+02
8.376418624364699583e-02 2.767012024799624328e+02
8.480473514031239279e-02 2.623830257819195708e+02
8.584528403697777588e-02 2.492542596538183375e+02
8.688583293364315896e-02 2.347106760625407276e+02
8.792638183030854204e-02 2.202543273270566431e+02
8.896693072697392513e-02 2.062068292921106263e+02
9.000747962363930821e-02 1.939320834567358247e+02
9.104802852030469129e-02 1.819157016848839987e+02
9.208857741697007437e-02 1.716479678057771139e+02
9.312912631363545746e-02 1.609013937783086021e+02
9.416967521030084054e-02 1.482569408425951565e+02
9.521022410696622362e-02 1.379158285895843221e+02
9.625077300363160671e-02 1.282812035770547254e+02
9.729132190029698979e-02 1.194310251472890769e+02
9.833187079696237287e-02 1.098440749142771722e+02
9.937241969362775595e-02 1.019107883036190145e+02
1.004129685902931390e-01 9.450571764291413501e+01
1.014535174869585221e-01 8.659190652956860390e+01
1.024940663836239052e-01 7.896316369172512850e+01
1.035346152802892883e-01 7.237343512294393122e+01
1.045751641769546714e-01 6.586412699465047638e+01
1.056157130736200545e-01 5.980008312062411591e+01
1.066562619702854375e-01 5.394880741601701857e+01
1.076968108669508206e-01 4.880922041045991477e+01
1.087373597636162037e-01 4.428118315545692951e+01
1.097779086602815868e-01 4.065500989020141986e+01
1.108184575569469699e-01 3.623851548863234484e+01
1.118590064536123529e-01 3.196363160356957422e+01
1.128995553502777360e-01 2.795307579681049859e+01
1.139401042469431191e-01 2.502795592711023431e+01
1.149806531436085022e-01 2.170035579813675142e+01
1.160212020402738853e-01 1.855008639250379687e+01
1.170617509369392684e-01 1.646131376060436224e+01
1.181022998336046514e-01 1.347476203379639870e+01
1.191428487302700345e-01 1.223234329544066767e+01
1.201833976269354176e-01 1.073721762363301835e+01
1.212239465236008007e-01 8.899297311648805220e+00
1.222644954202661838e-01 7.229995230083503088e+00
1.233050443169315669e-01 5.934763169152233786e+00
1.243455932135969499e-01 4.476785936612984074e+00
1.253861421102623330e-01 3.520913428254100808e+00
1.264266910069277161e-01 3.069649774993962410e+00
1.274672399035930992e-01 2.333071500781819907e+00
1.285077888002584823e-01 1.929692481795143522e+00
1.295483376969238654e-01 2.174093811741951043e+00
1.305888865935892484e-01 1.620473135386550467e+00
1.316294354902546315e-01 1.759550210915787005e+00
1.326699843869200146e-01 1.838354222240166536e+00
1.337105332835853977e-01 1.823176203044198473e+00
1.347510821802507808e-01 1.822167414494725080e+00
1.357916310769161639e-01 1.847113420274716589e+00
1.368321799735815469e-01 2.606206403163870533e+00
1.378727288702469300e-01 2.944664629512331544e+00
1.389132777669123131e-01 2.841978839910883181e+00
1.399538266635776962e-01 2.966661679454233536e+00
1.409943755602430793e-01 2.967711471296013315e+00
1.420349244569084624e-01 3.972426917112926503e+00
1.430754733535738454e-01 4.839283772124225891e+00
1.441160222502392285e-01 5.294169750955518339e+00
1.451565711469046116e-01 5.642354101412699663e+00
1.461971200435699947e-01 6.235607600383563209e+00
1.472376689402353778e-01 6.926325840355247010e+00
1.482782178369007609e-01 7.376631323183460154e+00
1.493187667335661439e-01 8.055810101386342126e+00
1.503593156302315270e-01 8.628575503010296188e+00
1.513998645268969101e-01 9.287372469866067348e+00
1.524404134235622932e-01 9.529093361194117762e+00
1.534809623202276763e-01 1.004481903360187545e+01
1.545215112168930593e-01 1.065711044248054051e+01
1.555620601135584424e-01 1.095771851370454542e+01
1.566026090102238255e-01 1.116411284554075323e+01
1.576431579068892086e-01 1.130539793608139121e+01
1.586837068035545917e-01 1.155992063605648923e+01
1.597242557002199748e-01 1.206781135825025686e+01
1.607648045968853578e-01 1.199442943075580459e+01
1.618053534935507409e-01 1.227507678804114022e+01
1.628459023902161240e-01 1.277954161262206867e+01
1.638864512868815071e-01 1.269107061844504969e+01
1.649270001835468902e-01 1.260334584288224491e+01
1.659675490802122733e-01 1.257985067450761463e+01
1.670080979768776563e-01 1.278114031020718144e+01
1.680486468735430672e-01 1.290673176574587799e+01
1.690891957702084503e-01 1.275822540750184331e+01
1.701297446668738333e-01 1.295524365946753420e+01
1.711702935635392164e-01 1.325399742586196794e+01
1.722108424602045995e-01 1.289462316537662545e+01
1.732513913568699826e-01 1.263437184754398501e+01
1.742919402535353657e-01 1.241984905435299069e+01
1.753324891502007488e-01 1.201695261904685808e+01
1.763730380468661318e-01 1.200496341356461727e+01
1.774135869435315149e-01 1.201719395383355149e+01
1.784541358401968980e-01 1.159949620063996889e+01
1.794946847368622811e-01 1.151285727808562953e+01
1.805352336335276642e-01 1.114922495319083140e+01
1.815757825301930473e-01 1.122539896783624869e+01
1.826163314268584303e-01 1.091443339591111439e+01
1.836568803235238134e-01 1.010066808936444005e+01
1.846974292201891965e-01 9.706888957456108358e+00
1.857379781168545796e-01 9.594103070061592575e+00
1.867785270135199627e-01 9.216842572796405619e+00
1.878190759101853458e-01 8.856164030461069814e+00
1.888596248068507288e-01 8.670986319836089251e+00
1.899001737035161119e-01 8.417563471022159405e+00
1.909407226001814950e-01 7.359513590943087991e+00
1.919812714968468781e-01 7.082741754463487638e+00
1.930218203935122612e-01 7.010429925685343733e+00
1.940623692901776443e-01 6.975765081335609352e+00
1.951029181868430273e-01 6.364596272667384369e+00
1.961434670835084104e-01 6.082495329585416499e+00
1.971840159801737935e-01 5.767670489318721394e+00
1.982245648768391766e-01 4.898533476348703175e+00
1.992651137735045597e-01 4.629074876083706158e+00
2.003056626701699428e-01 4.365492944299369071e+00
2.013462115668353813e-01 3.799842003095989185e+00
2.023867604635007644e-01 3.961977645895348843e+00
2.034273093601661475e-01 3.924009920847876032e+00
2.044678582568315306e-01 3.530775767435450518e+00
2.055084071534969137e-01 3.069843167474505918e+00
2.065489560501622968e-01 3.073510137397761355e+00
2.075895049468276798e-01 2.584507349002059584e+00
2.086300538434930629e-01 2.287961339877877975e+00
2.096706027401584460e-01 2.318223091008192682e+00
2.107111516368238291e-01 2.246907386942652352e+00
2.117517005334892122e-01 1.995959670653093099e+00
2.127922494301545953e-01 1.760124149097649138e+00
2.138327983268199783e-01 1.526606318222761161e+00
2.148733472234853614e-01 1.402714567097294918e+00
2.159138961201507445e-01 1.251995839121530452e+00
2.169544450168161276e-01 1.268609171219889475e+00
2.179949939134815107e-01 1.029950973746476706e+00
2.190355428101468938e-01 8.409467098514440409e-01
2.200760917068122768e-01 7.829963458067012994e-01
2.211166406034776599e-01 8.024899267515230861e-01
2.221571895001430430e-01 4.396991962020706524e-01
2.231977383968084261e-01 3.486503583757993852e-01
2.242382872934738092e-01 4.430491256140562939e-01
2.252788361901391923e-01 8.305847733798081833e-01
2.263193850868045753e-01 8.965581736009227143e-01
2.273599339834699584e-01 8.488812011554571768e-01
2.284004828801353415e-01 5.348757218243740397e-01
2.294410317768007246e-01 2.480383036672186847e-01
2.304815806734661077e-01 3.825653419801255950e-01
2.315221295701314908e-01 6.990819590363841485e-01
2.325626784667968738e-01 8.140252608052023220e-01
2.336032273634622569e-01 6.915368024083079490e-01
2.346437762601276400e-01 8.079627813706125039e-01
2.356843251567930231e-01 7.353696630677752921e-01
2.367248740534584062e-01 6.742532620580199421e-01
2.377654229501237892e-01 9.507724196790690030e-01
2.388059718467891723e-01 1.258229048758678914e+00
2.398465207434545554e-01 1.536469922791283693e+00
2.408870696401199385e-01 1.273511727408287442e+00
2.419276185367853216e-01 1.161776907582844132e+00
2.429681674334507047e-01 1.175363845814320740e+00
2.440087163301160877e-01 1.117449797938377287e+00
2.450492652267814708e-01 1.388013767173170265e+00
2.460898141234468539e-01 1.829018749141418709e+00
2.471303630201122370e-01 1.920982410082022085e+00
2.481709119167776201e-01 1.543035261051230123e+00
2.492114608134430032e-01 1.634308121158284166e+00
2.502520097101083585e-01 1.783005227081030597e+00
2.512925586067737416e-01 1.934380294257181276e+00
2.523331075034391247e-01 2.081108048565798896e+00
2.533736564001045077e-01 1.841120594029995061e+00
2.544142052967698908e-01 1.794312404866378330e+00
2.554547541934352739e-01 1.883305776107960128e+00
2.564953030901006570e-01 2.100271118772052859e+00
2.575358519867660401e-01 2.062149092443359422e+00
2.585764008834314231e-01 2.118566632003254568e+00
2.596169497800968062e-01 2.285065480815628547e+00
2.606574986767621893e-01 2.214570535933717110e+00
2.616980475734275724e-01 2.229794898962765615e+00
2.627385964700929555e-01 2.515471932133202415e+00
2.637791453667583386e-01 2.563868171960468345e+00
2.648196942634237216e-01 2.352323239582492675e+00
2.658602431600891047e-01 2.453969192087978257e+00
2.669007920567544878e-01 2.336200038799429279e+00
2.679413409534198709e-01 2.358679011727488728e+00
2.689818898500852540e-01 2.339202621826991901e+00
2.700224387467506371e-01 2.296418565534128930e+00
2.710629876434160201e-01 2.428811640490557977e+00
2.721035365400814032e-01 2.383568035335919433e+00
2.731440854367467863e-01 2.257841706451586106e+00
2.741846343334121694e-01 1.964024629176034153e+00
2.752251832300775525e-01 1.901710257514377389e+00
2.762657321267429356e-01 2.063233820807443664e+00
2.773062810234083186e-01 2.008833977878023092e+00
2.783468299200737017e-01 2.017330642592931156e+00
2.793873788167390848e-01 2.079926173715993087e+00
2.804279277134044679e-01 1.809084871539390349e+00
2.814684766100698510e-01 1.787588097959353917e+00
2.825090255067352341e-01 1.814196031994342206e+00
2.835495744034006171e-01 1.953422795234502019e+00
2.845901233000660002e-01 1.717065479804343653e+00
2.856306721967313833e-01 1.506033010859681553e+00
2.866712210933967664e-01 1.421056968799959463e+00
2.877117699900621495e-01 1.447275502975401196e+00
2.887523188867275326e-01 1.355644544652527372e+00
2.897928677833929156e-01 1.303678928972562545e+00
2.908334166800582987e-01 1.417211742264228747e+00
2.918739655767236818e-01 1.376318596773124625e+00
2.929145144733890649e-01 1.029260538051186558e+00
2.939550633700544480e-01 9.859526839262500175e-01
2.949956122667198311e-01 1.127781754540301051e+00
2.960361611633852141e-01 1.019994724902517191e+00
2.970767100600505972e-01 7.102336536233337938e-01
2.981172589567159803e-01 1.014864618856570644e+00
2.991578078533813634e-01 1.022104330067428180e+00
3.001983567500468020e-01 1.057153027951482471e+00
3.012389056467121851e-01 8.953112063239565543e-01
3.022794545433775681e-01 7.030825210269782133e-01
3.033200034400429512e-01 6.845249829062929336e-01
3.043605523367083343e-01 6.485107350863508202e-01
3.054011012333737174e-01 6.025400589696339182e-01
3.064416501300391005e-01 4.726057904827634104e-01
3.074821990267044836e-01 5.990881574903497153e-01
3.085227479233698666e-01 6.819849281810199670e-01
3.095632968200352497e-01 8.032395782808379181e-01
3.106038457167006328e-01 7.938359662553793328e-01
3.116443946133660159e-01 7.986200960271148119e-01
3.126849435100313990e-01 5.147001213231945371e-01
3.137254924066967821e-01 2.983459611837631087e-01
3.147660413033621651e-01 5.921631401673295159e-01
3.158065902000275482e-01 4.828495693939842681e-01
3.168471390966929313e-01 5.486656614731337811e-01
3.178876879933583144e-01 5.116683357555658063e-01
3.189282368900236975e-01 3.477369495421207546e-01
3.199687857866890806e-01 4.673553422066305529e-01
3.210093346833544636e-01 3.515051032615126303e-01
3.220498835800198467e-01 5.581113636512746723e-01
3.230904324766852298e-01 3.990521051516928708e-01
3.241309813733506129e-01 1.911717995776704981e-01
3.251715302700159960e-01 2.114298322940868502e-01
3.262120791666813790e-01 4.998335513157989851e-01
3.272526280633467621e-01 2.580716004875789338e-01
3.282931769600121452e-01 2.673643219707422247e-01
3.293337258566775283e-01 2.802159050302286403e-01
3.303742747533429114e-01 2.489983911501312264e-01
3.314148236500082945e-01 3.389710768970353172e-01
3.324553725466736775e-01 3.663883621221550868e-01
3.334959214433390606e-01 5.871622462068728510e-01
3.345364703400044437e-01 7.743564376188878384e-01
3.355770192366698268e-01 7.619740105423247201e-01
3.366175681333352099e-01 7.466419352930664388e-01
3.376581170300005930e-01 6.025854273071047373e-01
3.386986659266659760e-01 6.555818884931916557e-01
3.397392148233313591e-01 9.155016429325684157e-01
3.407797637199967422e-01 7.492517165701784165e-01
3.418203126166621253e-01 7.136192937554639570e-01
3.428608615133275084e-01 7.480113494210947067e-01
3.439014104099928915e-01 9.229340011980156078e-01
3.449419593066582745e-01 8.540408946438411419e-01
3.459825082033236576e-01 6.221796599358135893e-01
3.470230570999890407e-01 8.375000067233848711e-01
3.480636059966544238e-01 8.625306491583089041e-01
3.491041548933198069e-01 9.252388529353403612e-01
3.501447037899851900e-01 8.586581097315182376e-01
3.511852526866505730e-01 8.694655788734166890e-01
3.522258015833159561e-01 9.969034202050899296e-01
3.532663504799813392e-01 9.245693246392292508e-01
3.543068993766467223e-01 1.037335856091932129e+00
3.553474482733121054e-01 1.213737152271956887e+00
3.563879971699774885e-01 1.153783968659126913e+00
3.574285460666428715e-01 8.267324233686821344e-01
3.584690949633082546e-01 9.478338567078310462e-01
3.595096438599736377e-01 7.629796449316792462e-01
3.605501927566390208e-01 6.226788649917764928e-01
3.615907416533044039e-01 7.536002007619728715e-01
3.626312905499697870e-01 1.028964475135527579e+00
3.636718394466351700e-01 7.001880444969508233e-01
3.647123883433005531e-01 6.323812298309121616e-01
3.657529372399659362e-01 7.627998509222386758e-01
3.667934861366313193e-01 7.341189744360434588e-01
3.678340350332967024e-01 8.663894067795787635e-01
3.688745839299620854e-01 8.909026418926302426e-01
3.699151328266274685e-01 7.572226539612998408e-01
3.709556817232928516e-01 6.955579347404317048e-01
3.719962306199582347e-01 5.754223993901135259e-01
3.730367795166236178e-01 6.174024613800597194e-01
3.740773284132890009e-01 4.961000405025188797e-01
3.751178773099543839e-01 6.027666841297687483e-01
3.761584262066197670e-01 7.189308759253911774e-01
3.771989751032851501e-01 8.431370267806777008e-01
3.782395239999505332e-01 7.443379513421497506e-01
3.792800728966159163e-01 7.453371844084166753e-01
3.803206217932812994e-01 6.146397859215966264e-01
3.813611706899466824e-01 5.814663949824030453e-01
3.824017195866120655e-01 5.015624399820524104e-01
3.834422684832774486e-01 4.835424833442729664e-01
3.844828173799428317e-01 4.430622129421912803e-01
3.855233662766082148e-01 3.800954107423990536e-01
3.865639151732735979e-01 5.706457022457200878e-01
3.876044640699389809e-01 7.164681722622958659e-01
3.886450129666043640e-01 5.231363305301464095e-01
3.896855618632697471e-01 3.323460621264224812e-01
3.907261107599351302e-01 6.008238790985807043e-01
3.917666596566005133e-01 6.267676427610062717e-01
3.928072085532658964e-01 3.464450954983533393e-01
3.938477574499312794e-01 3.003537996502672058e-01
3.948883063465966625e-01 3.720795247191617250e-01
3.959288552432620456e-01 5.260413180703196190e-01
3.969694041399274287e-01 6.140730140769399270e-01
3.980099530365928118e-01 3.794563883406034677e-01
3.990505019332581949e-01 2.890675608382906603e-01
4.000910508299235779e-01 1.820062384592340265e-01
4.011315997265889610e-01 3.975413230270739007e-01
4.021721486232543441e-01 6.540841156187227057e-01
4.032126975199197272e-01 6.247021324964023847e-01
4.042532464165851103e-01 5.697237423647685262e-01
4.052937953132504934e-01 4.295699402918984333e-01
4.063343442099158764e-01 2.583575584062849373e-01
4.073748931065812595e-01 3.017271409117157077e-01
4.084154420032466426e-01 2.247759240700126782e-01
4.094559908999120257e-01 2.574352850708301332e-01
4.104965397965774088e-01 2.523846519025063628e-01
4.115370886932427918e-01 2.104245698197999559e-01
4.125776375899081749e-01 1.687469540136454782e-01
4.136181864865735580e-01 3.119577386853400469e-01
4.146587353832389411e-01 3.561704067168633969e-01
4.156992842799043242e-01 5.589792814596421522e-01
4.167398331765697073e-01 6.450903655181434715e-01
4.177803820732350903e-01 4.850615470040828825e-01
4.188209309699004734e-01 2.073061942042571104e-01
4.198614798665658565e-01 2.176252558848119634e-01
4.209020287632312396e-01 1.862865748673243615e-01
4.219425776598966227e-01 1.330568378451815192e-01
4.229831265565620058e-01 4.335688829497961194e-01
4.240236754532273888e-01 4.350621097464184572e-01
4.250642243498927719e-01 5.304889829139511903e-01
4.261047732465581550e-01 3.375226000808808635e-01
4.271453221432235381e-01 5.170031604548803728e-01
4.281858710398889212e-01 3.567380102332826652e-01
4.292264199365543043e-01 3.554193975456136911e-01
4.302669688332196873e-01 5.742699226189387218e-01
4.313075177298850704e-01 5.825378657325188669e-01
4.323480666265504535e-01 5.696181302927207923e-01
4.333886155232158366e-01 4.440813348943066785e-01
4.344291644198812197e-01 3.121543316443613492e-01
