# q (1/Angstrom), Intensity (arb)
2.029070354705860696e-02 1.642873668254533641e+03
2.133125244372399004e-02 1.636467208686555296e+03
2.237180134038937659e-02 1.635743659159546269e+03
2.341235023705475968e-02 1.619451873080050063e+03
2.445289913372014276e-02 1.605164708088748966e+03
2.549344803038552584e-02 1.588065252176611466e+03
2.653399692705091240e-02 1.571839618014438884e+03
2.757454582371629548e-02 1.559649236481732942e+03
2.861509472038167856e-02 1.538028063515781469e+03
2.965564361704706164e-02 1.515520457605801084e+03
3.069619251371244473e-02 1.495527655976833103e+03
3.173674141037782781e-02 1.477860972799600631e+03
3.277729030704321089e-02 1.454184185311976307e+03
3.381783920370859398e-02 1.429217395788236900e+03
3.485838810037397706e-02 1.406422936558441961e+03
3.589893699703936014e-02 1.385032075349950901e+03
3.693948589370474322e-02 1.364806223398864404e+03
3.798003479037012631e-02 1.339244416319040965e+03
3.902058368703550939e-02 1.313308705930068527e+03
4.006113258370089247e-02 1.288775824027615272e+03
4.110168148036627556e-02 1.265568122047000088e+03
4.214223037703165864e-02 1.243502893644892765e+03
4.318277927369704866e-02 1.213142027121725278e+03
4.422332817036243174e-02 1.183391240583634726e+03
4.526387706702781483e-02 1.156388056805500810e+03
4.630442596369319791e-02 1.129981642699300437e+03
4.734497486035858099e-02 1.101331492584037733e+03
4.838552375702396408e-02 1.076502573486330220e+03
4.942607265368934716e-02 1.049366849776658910e+03
5.046662155035473024e-02 1.024077959585311191e+03
5.150717044702011332e-02 9.955793715517363580e+02
5.254771934368549641e-02 9.667935307185524607e+02
5.358826824035087949e-02 9.411240743322708795e+02
5.462881713701626257e-02 9.122973348900899282e+02
5.566936603368164566e-02 8.863894588699309907e+02
5.670991493034702874e-02 8.624155876353047461e+02
5.775046382701241182e-02 8.376314155260596408e+02
5.879101272367779490e-02 8.107627701122361259e+02
5.983156162034317799e-02 7.840784650159476996e+02
6.087211051700856107e-02 7.589557295673452018e+02
6.191265941367394415e-02 7.333969682623207973e+02
6.295320831033933417e-02 7.080730793053340903e+02
6.399375720700471726e-02 6.822932758801646287e+02
6.503430610367010034e-02 6.606741273117347646e+02
6.607485500033548342e-02 6.355416156027041552e+02
6.711540389700086651e-02 6.125907695763121410e+02
6.815595279366624959e-02 5.895170365317748065e+02
6.919650169033163267e-02 5.668505776613131957e+02
7.023705058699701576e-02 5.435168794622702535e+02
7.127759948366239884e-02 5.205125055036817230e+02
7.231814838032778192e-02 4.996126039142885702e+02
7.335869727699316500e-02 4.781006558563486806e+02
7.439924617365854809e-02 4.565973885538320474e+02
7.543979507032393117e-02 4.368050384078371735e+02
7.648034396698931425e-02 4.171396545871030526e+02
7.752089286365469734e-02 3.968513375421732121e+02
7.856144176032008042e-02 3.766216488553091608e+02
7.960199065698546350e-02 3.581024103986924843e+02
8.064253955365084658e-02 3.421993126102881888e+02
8.168308845031622967e-02 3.236826087236955800e+02
8.272363734698161275e-02 3.067492649003373231e+02
8.376418624364699583e-02 2.913766165447642038e+02
8.480473514031239279e-02 2.769140439557499462e+02
8.584528403697777588e-02 2.609069892297119964e+02
8.688583293364315896e-02 2.462635409730543756e+02
8.792638183030854204e-02 2.319430682400700903e+02
8.896693072697392513e-02 2.187594045176836630e+02
9.000747962363930821e-02 2.045798969994799279e+02
9.104802852030469129e-02 1.917873908899191804e+02
9.208857741697007437e-02 1.797901906615279017e+02
9.312912631363545746e-02 1.687027177787441019e+02
9.416967521030084054e-02 1.578183658089752441e+02
9.521022410696622362e-02 1.466864121642353496e+02
9.625077300363160671e-02 1.352633547012359259e+02
9.729132190029698979e-02 1.247947443277846702e+02
9.833187079696237287e-02 1.168143973112655374e+02
9.937241969362775595e-02 1.085864444975347283e+02
1.004129685902931390e-01 9.991348344920196212e+01
1.014535174869585221e-01 9.148696020897936876e+01
1.024940663836239052e-01 8.378482268166811764e+01
1.035346152802892883e-01 7.673312187414117602e+01
1.045751641769546714e-01 6.915960223787122629e+01
1.056157130736200545e-01 6.298144899899388349e+01
1.066562619702854375e-01 5.708727830960532401e+01
1.076968108669508206e-01 5.186540563650623881e+01
1.087373597636162037e-01 4.683859246347671501e+01
1.097779086602815868e-01 4.179328874525924675e+01
1.108184575569469699e-01 3.714644958202492120e+01
1.118590064536123529e-01 3.318067805197215137e+01
1.128995553502777360e-01 2.959036087331436349e+01
1.139401042469431191e-01 2.563515028932257422e+01
1.149806531436085022e-01 2.253325570021219448e+01
1.160212020402738853e-01 1.987993182141094906e+01
1.170617509369392684e-01 1.732371186498165017e+01
1.181022998336046514e-01 1.452856880344933188e+01
1.191428487302700345e-01 1.279071393820465374e+01
1.201833976269354176e-01 1.067429769674616935e+01
1.212239465236008007e-01 9.022266221833792343e+00
1.222644954202661838e-01 7.396925327793471894e+00
1.233050443169315669e-01 6.166103910035062086e+00
1.243455932135969499e-01 5.347501878117459029e+00
1.253861421102623330e-01 4.492807688272868916e+00
1.264266910069277161e-01 3.571230204086948135e+00
1.274672399035930992e-01 3.224097501088984075e+00
1.285077888002584823e-01 2.459302366181294275e+00
1.295483376969238654e-01 1.818753447589497085e+00
1.305888865935892484e-01 1.606655369233504160e+00
1.316294354902546315e-01 1.526744721213926681e+00
1.326699843869200146e-01 1.364914637486528193e+00
1.337105332835853977e-01 1.514388316962477887e+00
1.347510821802507808e-01 1.955705602651480746e+00
1.357916310769161639e-01 2.290852536445264320e+00
1.368321799735815469e-01 2.273867800768865521e+00
1.378727288702469300e-01 2.549100309006004039e+00
1.389132777669123131e-01 3.152421396601550185e+00
1.399538266635776962e-01 3.472181298133826033e+00
1.409943755602430793e-01 3.752990146745009525e+00
1.420349244569084624e-01 4.486505993779331902e+00
1.430754733535738454e-01 4.732804519063442683e+00
1.441160222502392285e-01 5.299233782739076304e+00
1.451565711469046116e-01 5.880351984907015606e+00
1.461971200435699947e-01 6.434919780496393571e+00
1.472376689402353778e-01 7.011179657902523843e+00
1.482782178369007609e-01 7.614103934473803292e+00
1.493187667335661439e-01 8.392664777324817749e+00
1.503593156302315270e-01 8.634814990822516023e+00
1.513998645268969101e-01 9.324455355199937401e+00
1.524404134235622932e-01 9.841348427903401586e+00
1.534809623202276763e-01 1.018960411270038335e+01
1.545215112168930593e-01 1.039951938896491512e+01
1.555620601135584424e-01 1.047138515349521271e+01
1.566026090102238255e-01 1.138320642957323869e+01
1.576431579068892086e-01 1.188291622334807585e+01
1.586837068035545917e-01 1.241572922348063912e+01
1.597242557002199748e-01 1.236796466882648460e+01
1.607648045968853578e-01 1.251720991246245518e+01
1.618053534935507409e-01 1.295314950848712598e+01
1.628459023902161240e-01 1.297573794601718689e+01
1.638864512868815071e-01 1.311601039543082692e+01
1.649270001835468902e-01 1.346456393997071643e+01
1.659675490802122733e-01 1.370565038409166903e+01
1.670080979768776563e-01 1.360335588172873500e+01
1.680486468735430672e-01 1.355697610071587889e+01
1.690891957702084503e-01 1.389848213381765163e+01
1.701297446668738333e-01 1.373004152663185096e+01
1.711702935635392164e-01 1.361685661909459810e+01
1.722108424602045995e-01 1.349941068935766353e+01
1.732513913568699826e-01 1.341652708355339030e+01
1.742919402535353657e-01 1.319956700069430866e+01
1.753324891502007488e-01 1.306957721219323076e+01
1.763730380468661318e-01 1.258034225791759653e+01
1.774135869435315149e-01 1.228250595848438209e+01
1.784541358401968980e-01 1.210714154118141650e+01
1.794946847368622811e-01 1.189080955476032386e+01
1.805352336335276642e-01 1.175149649953526421e+01
1.815757825301930473e-01 1.142671172038360439e+01
1.826163314268584303e-01 1.142626295929921199e+01
1.836568803235238134e-01 1.085759402127564854e+01
1.846974292201891965e-01 1.030267271322232503e+01
1.857379781168545796e-01 1.014686200846180597e+01
1.867785270135199627e-01 9.161069762968136132e+00
1.878190759101853458e-01 9.026225505468868704e+00
1.888596248068507288e-01 8.909112643665061171e+00
1.899001737035161119e-01 8.762891913200544280e+00
1.909407226001814950e-01 8.430249864315211283e+00
1.919812714968468781e-01 7.603417125875008509e+00
1.930218203935122612e-01 7.322753461104937855e+00
1.940623692901776443e-01 7.122442239462451141e+00
1.951029181868430273e-01 6.934407685974857571e+00
1.961434670835084104e-01 6.221624221594147741e+00
1.971840159801737935e-01 5.947049215685254353e+00
1.982245648768391766e-01 5.612225537310198575e+00
1.992651137735045597e-01 5.118615526362368939e+00
2.003056626701699428e-01 4.844828066182113702e+00
2.013462115668353813e-01 4.325198731818520770e+00
2.023867604635007644e-01 3.951258528491010225e+00
2.034273093601661475e-01 3.919055956971519095e+00
2.044678582568315306e-01 3.334475705213396424e+00
2.055084071534969137e-01 2.869925501252851063e+00
2.065489560501622968e-01 2.818497802416622733e+00
2.075895049468276798e-01 2.710979058597740021e+00
2.086300538434930629e-01 2.890777619390966890e+00
2.096706027401584460e-01 2.799726151312693645e+00
2.107111516368238291e-01 2.555238165452745847e+00
2.117517005334892122e-01 2.120811974010287315e+00
2.127922494301545953e-01 1.668966665585905673e+00
2.138327983268199783e-01 1.286343869966323439e+00
2.148733472234853614e-01 1.284098138978258419e+00
2.159138961201507445e-01 1.239782770079852270e+00
2.169544450168161276e-01 1.432913156204804750e+00
2.179949939134815107e-01 1.151952150549568898e+00
2.190355428101468938e-01 9.704167180296501272e-01
2.200760917068122768e-01 9.019826898497989021e-01
2.211166406034776599e-01 6.916111508610391923e-01
2.221571895001430430e-01 6.744124475742978575e-01
2.231977383968084261e-01 7.113722667655686394e-01
2.242382872934738092e-01 8.030149311228136355e-01
2.252788361901391923e-01 3.865067477053472089e-01
2.263193850868045753e-01 3.750875867534162467e-01
2.273599339834699584e-01 4.278842245084071294e-01
2.284004828801353415e-01 4.598958876282637220e-01
2.294410317768007246e-01 4.687161641639647769e-01
2.304815806734661077e-01 7.482939514565885020e-01
2.315221295701314908e-01 7.096402821534368854e-01
2.325626784667968738e-01 1.015331948563702014e+00
2.336032273634622569e-01 8.971528763689597952e-01
2.346437762601276400e-01 9.269530591295165323e-01
2.356843251567930231e-01 8.550447080278509304e-01
2.367248740534584062e-01 9.285883358573592261e-01
2.377654229501237892e-01 9.478514214418147787e-01
2.388059718467891723e-01 9.344614089460527850e-01
2.398465207434545554e-01 1.049683928560110502e+00
2.408870696401199385e-01 1.149341968036942774e+00
2.419276185367853216e-01 1.171376231124209966e+00
2.429681674334507047e-01 1.014280914956451340e+00
2.440087163301160877e-01 1.364161547323291757e+00
2.450492652267814708e-01 1.633384866006480252e+00
2.460898141234468539e-01 1.567559586693260343e+00
2.471303630201122370e-01 1.506272819906143923e+00
2.481709119167776201e-01 1.692405992419743654e+00
2.492114608134430032e-01 1.784692445338620814e+00
2.502520097101083585e-01 1.766424664598350347e+00
2.512925586067737416e-01 1.785427846830994980e+00
2.523331075034391247e-01 1.755828668821024507e+00
2.533736564001045077e-01 1.738088372180776275e+00
2.544142052967698908e-01 1.874879540239074771e+00
2.554547541934352739e-01 2.251619594715922545e+00
2.564953030901006570e-01 2.176057721912748377e+00
2.575358519867660401e-01 2.003467680187977606e+00
2.585764008834314231e-01 2.145205948463569712e+00
2.596169497800968062e-01 2.198660765619706581e+00
2.606574986767621893e-01 2.461449745555622570e+00
2.616980475734275724e-01 2.483423715307491619e+00
2.627385964700929555e-01 2.552641478458912871e+00
2.637791453667583386e-01 2.394256424011654616e+00
2.648196942634237216e-01 2.305896280859826675e+00
2.658602431600891047e-01 2.074940591979515858e+00
2.669007920567544878e-01 2.273201950878533495e+00
2.679413409534198709e-01 2.563894500985227864e+00
2.689818898500852540e-01 2.508456530548649255e+00
2.700224387467506371e-01 2.263997377991461946e+00
2.710629876434160201e-01 2.200146586748534361e+00
2.721035365400814032e-01 2.265724752266788045e+00
2.731440854367467863e-01 2.110848018505365076e+00
2.741846343334121694e-01 2.047934030701139108e+00
2.752251832300775525e-01 2.135314354342405352e+00
2.762657321267429356e-01 2.057508816433291088e+00
2.773062810234083186e-01 2.180096960360081937e+00
2.783468299200737017e-01 2.172440203867179065e+00
2.793873788167390848e-01 1.903932728951239994e+00
2.804279277134044679e-01 1.656535444751199293e+00
2.814684766100698510e-01 1.482418103262890696e+00
2.825090255067352341e-01 1.638318114427040229e+00
2.835495744034006171e-01 1.640782931637346564e+00
2.845901233000660002e-01 1.621237177228447734e+00
2.856306721967313833e-01 1.434149867102611609e+00
2.866712210933967664e-01 1.557128903970166789e+00
2.877117699900621495e-01 1.700789462560223342e+00
2.887523188867275326e-01 1.519774400822459626e+00
2.897928677833929156e-01 1.441015230947723325e+00
2.908334166800582987e-01 1.275474574569077646e+00
2.918739655767236818e-01 1.361458956830563949e+00
2.929145144733890649e-01 1.283413266213759840e+00
2.939550633700544480e-01 1.096696300980578798e+00
2.949956122667198311e-01 1.135084704932360467e+00
2.960361611633852141e-01 1.079638742206125102e+00
2.970767100600505972e-01 1.107503159065817755e+00
2.981172589567159803e-01 9.100266431023058544e-01
2.991578078533813634e-01 9.569737667454489838e-01
3.001983567500468020e-01 8.823618538560111801e-01
3.012389056467121851e-01 9.010787011140273250e-01
3.022794545433775681e-01 5.168720009469041088e-01
3.033200034400429512e-01 6.284245556036012204e-01
3.043605523367083343e-01 6.561003822840234534e-01
3.054011012333737174e-01 6.053606009707266367e-01
3.064416501300391005e-01 5.669742967368307518e-01
3.074821990267044836e-01 6.853406572173383893e-01
3.085227479233698666e-01 5.368358220373394829e-01
3.095632968200352497e-01 4.900710096159706097e-01
3.106038457167006328e-01 3.260738123120283660e-01
3.116443946133660159e-01 3.753639212646078249e-01
3.126849435100313990e-01 3.862944305073305884e-01
3.137254924066967821e-01 2.327862001412022153e-01
3.147660413033621651e-01 2.494278722505356427e-01
3.158065902000275482e-01 3.298826774397234374e-01
3.168471390966929313e-01 6.122807652409889556e-02
3.178876879933583144e-01 1.069454165765293396e-01
3.189282368900236975e-01 1.791023495279020494e-01
3.199687857866890806e-01 3.709232464533478435e-01
3.210093346833544636e-01 4.611389642658920707e-01
3.220498835800198467e-01 3.927867230234589613e-01
3.230904324766852298e-01 3.256905396605986880e-01
3.241309813733506129e-01 1.550638925048026806e-01
3.251715302700159960e-01 2.732838478847376962e-01
3.262120791666813790e-01 4.562267679180962432e-01
3.272526280633467621e-01 5.105109838157702029e-01
3.282931769600121452e-01 4.847552153215595183e-01
3.293337258566775283e-01 6.337505142367874100e-01
3.303742747533429114e-01 6.587088576107476001e-01
3.314148236500082945e-01 4.669661783089793516e-01
3.324553725466736775e-01 4.770591578769654006e-01
3.334959214433390606e-01 5.767644882132429984e-01
3.345364703400044437e-01 4.165000029897960587e-01
3.355770192366698268e-01 2.475633226433302525e-01
3.366175681333352099e-01 6.151844582262064876e-01
3.376581170300005930e-01 9.010171216267117700e-01
3.386986659266659760e-01 8.365585614318860053e-01
3.397392148233313591e-01 7.176945400354810545e-01
3.407797637199967422e-01 7.214365575699765998e-01
3.418203126166621253e-01 7.584822098740744423e-01
3.428608615133275084e-01 7.038601152041863429e-01
3.439014104099928915e-01 5.424678439769934357e-01
3.449419593066582745e-01 5.174877536522117794e-01
3.459825082033236576e-01 5.472550436406073970e-01
3.470230570999890407e-01 6.940454820511625655e-01
3.480636059966544238e-01 7.613531942799021124e-01
3.491041548933198069e-01 6.927057294651461916e-01
3.501447037899851900e-01 7.307161334694534105e-01
3.511852526866505730e-01 7.546667565002174172e-01
3.522258015833159561e-01 7.041574648165962458e-01
3.532663504799813392e-01 7.913033902433141975e-01
3.543068993766467223e-01 7.590312325382022607e-01
3.553474482733121054e-01 6.693223707508835219e-01
3.563879971699774885e-01 7.986221753588012007e-01
3.574285460666428715e-01 9.421805242896432731e-01
3.584690949633082546e-01 7.992520011656161216e-01
3.595096438599736377e-01 7.112492991263756892e-01
3.605501927566390208e-01 7.889610257314103592e-01
3.615907416533044039e-01 8.146639670127235888e-01
3.626312905499697870e-01 6.508851459268143458e-01
3.636718394466351700e-01 6.461841037120059639e-01
3.647123883433005531e-01 5.216722715623944850e-01
3.657529372399659362e-01 7.007325534170938397e-01
3.667934861366313193e-01 8.196984527191801817e-01
3.678340350332967024e-01 8.052710014381894155e-01
3.688745839299620854e-01 8.512278408302442756e-01
3.699151328266274685e-01 1.000891323333984673e+00
3.709556817232928516e-01 7.921793512557862016e-01
3.719962306199582347e-01 6.569892634042773238e-01
3.730367795166236178e-01 5.413387684288615276e-01
3.740773284132890009e-01 5.317031373408518391e-01
3.751178773099543839e-01 6.083892842533558110e-01
3.761584262066197670e-01 6.530979561601633065e-01
3.771989751032851501e-01 5.964081905371436676e-01
3.782395239999505332e-01 6.974685279687591333e-01
3.792800728966159163e-01 6.605484660702956035e-01
3.803206217932812994e-01 7.749416799684105683e-01
3.813611706899466824e-01 7.797653819182244206e-01
3.824017195866120655e-01 5.126260906576476373e-01
3.834422684832774486e-01 5.633485746476836198e-01
3.844828173799428317e-01 4.847105750241631483e-01
3.855233662766082148e-01 5.114480890639399036e-01
3.865639151732735979e-01 3.085670130246782605e-01
3.876044640699389809e-01 4.369644598921382794e-01
3.886450129666043640e-01 5.774671293185669185e-01
3.896855618632697471e-01 3.222172998367476282e-01
3.907261107599351302e-01 3.649677922257659191e-01
3.917666596566005133e-01 4.239717721386462301e-01
3.928072085532658964e-01 4.200840280539281935e-01
3.938477574499312794e-01 5.545514880838204874e-01
3.948883063465966625e-01 5.779778606153733733e-01
3.959288552432620456e-01 6.591238183592622590e-01
3.969694041399274287e-01 6.604858377856324125e-01
3.980099530365928118e-01 3.407782556944205510e-01
3.990505019332581949e-01 2.249810542718044815e-01
4.000910508299235779e-01 4.029376906225188293e-01
4.011315997265889610e-01 6.436531597015040518e-01
4.021721486232543441e-01 5.109306474173607171e-01
4.032126975199197272e-01 3.516300399812308797e-01
4.042532464165851103e-01 4.327771146841037364e-01
4.052937953132504934e-01 4.345723090361026664e-01
4.063343442099158764e-01 3.885343313998212977e-01
4.073748931065812595e-01 4.262263193254689497e-01
4.084154420032466426e-01 4.566822835776456202e-01
4.094559908999120257e-01 2.036654965563187147e-01
4.104965397965774088e-01 3.214598430073216662e-01
4.115370886932427918e-01 3.706518625566168623e-01
4.125776375899081749e-01 4.826578948651665257e-01
4.136181864865735580e-01 2.458197825841672568e-01
4.146587353832389411e-01 1.672808673658359169e-01
4.156992842799043242e-01 2.699544680761896132e-01
4.167398331765697073e-01 4.310370763439692610e-01
4.177803820732350903e-01 3.452933037002381411e-01
4.188209309699004734e-01 2.995784286639455729e-01
4.198614798665658565e-01 2.678315304118186191e-01
4.209020287632312396e-01 3.918351018004706532e-01
4.219425776598966227e-01 3.132942554458040263e-01
4.229831265565620058e-01 2.687709848097199483e-01
4.240236754532273888e-01 2.413464931306421590e-01
4.250642243498927719e-01 3.126750681493000172e-01
4.261047732465581550e-01 2.778842074090270842e-01
4.271453221432235381e-01 3.424631723698006169e-01
4.281858710398889212e-01 3.582437134535290113e-01
4.292264199365543043e-01 2.474369436397836353e-01
4.302669688332196873e-01 3.444636123544775330e-01
4.313075177298850704e-01 3.512320334891576579e-01
4.323480666265504535e-01 3.723769272539385611e-01
4.333886155232158366e-01 4.904628557363786001e-01
4.344291644198812197e-01 4.774194679671701635e-01
