# q (1/Angstrom), Intensity (arb)
2.029070354705860696e-02 4.268083797942230717e+02
2.133125244372399004e-02 4.238488526941647478e+02
2.237180134038937659e-02 4.185646489983680567e+02
2.341235023705475968e-02 4.135105723668366409e+02
2.445289913372014276e-02 4.083216990801997781e+02
2.549344803038552584e-02 4.062959449327553330e+02
2.653399692705091240e-02 4.026231650785921374e+02
2.757454582371629548e-02 4.001556115631667012e+02
2.861509472038167856e-02 3.947111810397431100e+02
2.965564361704706164e-02 3.937130708658875164e+02
3.069619251371244473e-02 3.875005134929397173e+02
3.173674141037782781e-02 3.837177014080278354e+02
3.277729030704321089e-02 3.801902221341546237e+02
3.381783920370859398e-02 3.725258235919753815e+02
3.485838810037397706e-02 3.665219114464923678e+02
3.589893699703936014e-02 3.583538910104506954e+02
3.693948589370474322e-02 3.524755041377298994e+02
3.798003479037012631e-02 3.472618158130329107e+02
3.902058368703550939e-02 3.406936673046628812e+02
4.006113258370089247e-02 3.329498276949977367e+02
4.110168148036627556e-02 3.250839723538815065e+02
4.214223037703165864e-02 3.201040597889176524e+02
4.318277927369704866e-02 3.158664491859649956e+02
4.422332817036243174e-02 3.096557711667904869e+02
4.526387706702781483e-02 3.033456746852971264e+02
4.630442596369319791e-02 2.971819443334093762e+02
4.734497486035858099e-02 2.919851669976710582e+02
4.838552375702396408e-02 2.844057307769462000e+02
4.942607265368934716e-02 2.767576062903775096e+02
5.046662155035473024e-02 2.703298198400356114e+02
5.150717044702011332e-02 2.621023644121373195e+02
5.254771934368549641e-02 2.556672506897587311e+02
5.358826824035087949e-02 2.478252850826067117e+02
5.462881713701626257e-02 2.428625242978338861e+02
5.566936603368164566e-02 2.370597019282554925e+02
5.670991493034702874e-02 2.313546810673471725e+02
5.775046382701241182e-02 2.245974450365754365e+02
5.879101272367779490e-02 2.176491659942467720e+02
5.983156162034317799e-02 2.103671161977043482e+02
6.087211051700856107e-02 2.024585978733771299e+02
6.191265941367394415e-02 1.979948311953028224e+02
6.295320831033933417e-02 1.920291290219512632e+02
6.399375720700471726e-02 1.862381173674678791e+02
6.503430610367010034e-02 1.794853935169201691e+02
6.607485500033548342e-02 1.736937417385451567e+02
6.711540389700086651e-02 1.674079025232891240e+02
6.815595279366624959e-02 1.622232553207534806e+02
6.919650169033163267e-02 1.560709911914019017e+02
7.023705058699701576e-02 1.501918817797817098e+02
7.127759948366239884e-02 1.455911746567237230e+02
7.231814838032778192e-02 1.397080788696146669e+02
7.335869727699316500e-02 1.354941407571668890e+02
7.439924617365854809e-02 1.320391346381403537e+02
7.543979507032393117e-02 1.258642134069329046e+02
7.648034396698931425e-02 1.209216495582550692e+02
7.752089286365469734e-02 1.175116548230967624e+02
7.856144176032008042e-02 1.155537989818524238e+02
7.960199065698546350e-02 1.179772238444068648e+02
8.064253955365084658e-02 1.287242463503988859e+02
8.168308845031622967e-02 2.069067827162535025e+02
8.272363734698161275e-02 4.615707421897428162e+02
8.376418624364699583e-02 6.081664176143123086e+02
8.480473514031239279e-02 3.910983536701536991e+02
8.584528403697777588e-02 2.429571464388123445e+02
8.688583293364315896e-02 3.267578407551521877e+02
8.792638183030854204e-02 6.249190513238658014e+02
8.896693072697392513e-02 6.826948837997495048e+02
9.000747962363930821e-02 3.819053746634256186e+02
9.104802852030469129e-02 2.543742896104577653e+02
9.208857741697007437e-02 3.405806172136857981e+02
9.312912631363545746e-02 6.508454614692001314e+02
9.416967521030084054e-02 1.010977180518086698e+03
9.521022410696622362e-02 8.378674377997075453e+02
9.625077300363160671e-02 3.872674432121342534e+02
9.729132190029698979e-02 1.752013970862674057e+02
9.833187079696237287e-02 1.075203177797556151e+02
9.937241969362775595e-02 7.804077084704775302e+01
1.004129685902931390e-01 6.512952531591915317e+01
1.014535174869585221e-01 6.326576711301198941e+01
1.024940663836239052e-01 5.684868267971092592e+01
1.035346152802892883e-01 4.310963652097525767e+01
1.045751641769546714e-01 3.397396445029841772e+01
1.056157130736200545e-01 2.884794468735709927e+01
1.066562619702854375e-01 2.499235057772597912e+01
1.076968108669508206e-01 2.252467440056628689e+01
1.087373597636162037e-01 2.001227318075903483e+01
1.097779086602815868e-01 1.801272909125837174e+01
1.108184575569469699e-01 1.592648115428109179e+01
1.118590064536123529e-01 1.422086815453121389e+01
1.128995553502777360e-01 1.308713714892366653e+01
1.139401042469431191e-01 1.209793537143026043e+01
1.149806531436085022e-01 1.110937045711125748e+01
1.160212020402738853e-01 1.011739460206783292e+01
1.170617509369392684e-01 9.397482617703577290e+00
1.181022998336046514e-01 8.613786825014027926e+00
1.191428487302700345e-01 8.199078187800239448e+00
1.201833976269354176e-01 8.791148977847864643e+00
1.212239465236008007e-01 8.967121527190599295e+00
1.222644954202661838e-01 7.529076214846728732e+00
1.233050443169315669e-01 5.680258883375351786e+00
1.243455932135969499e-01 4.308102670604434081e+00
1.253861421102623330e-01 2.632886714712221021e+00
1.264266910069277161e-01 2.209106453212935861e+00
1.274672399035930992e-01 2.259039275245243061e+00
1.285077888002584823e-01 2.075614664209247451e+00
1.295483376969238654e-01 1.507752053130296588e+00
1.305888865935892484e-01 1.752936953331829528e+00
1.316294354902546315e-01 2.003437428514477148e+00
1.326699843869200146e-01 1.377880673401964629e+00
1.337105332835853977e-01 1.146803212784863746e+00
1.347510821802507808e-01 1.308346575674200096e+00
1.357916310769161639e-01 1.316172955640972475e+00
1.368321799735815469e-01 1.360608420540064145e+00
1.378727288702469300e-01 1.530786490709989067e+00
1.389132777669123131e-01 1.442035696152832003e+00
1.399538266635776962e-01 1.548660614342519892e+00
1.409943755602430793e-01 2.004949586666359806e+00
1.420349244569084624e-01 2.951237261178462745e+00
1.430754733535738454e-01 6.969508344387406851e+00
1.441160222502392285e-01 1.497220715163830107e+01
1.451565711469046116e-01 1.405921716686831147e+01
1.461971200435699947e-01 6.325654446693267374e+00
1.472376689402353778e-01 3.798706143169038540e+00
1.482782178369007609e-01 3.256541608042560654e+00
1.493187667335661439e-01 3.566592722167353458e+00
1.503593156302315270e-01 4.103039933711336573e+00
1.513998645268969101e-01 4.238351986619822043e+00
1.524404134235622932e-01 5.230357196849187318e+00
1.534809623202276763e-01 6.515785538736647453e+00
1.545215112168930593e-01 9.477098729038878844e+00
1.555620601135584424e-01 1.608987478579470221e+01
1.566026090102238255e-01 2.289921173439813629e+01
1.576431579068892086e-01 2.098209762442220239e+01
1.586837068035545917e-01 1.359806837993873074e+01
1.597242557002199748e-01 8.860484566865633127e+00
1.607648045968853578e-01 7.164420403262372616e+00
1.618053534935507409e-01 6.442517379696177215e+00
1.628459023902161240e-01 6.180366288245238593e+00
1.638864512868815071e-01 6.010416725872577359e+00
1.649270001835468902e-01 6.664136000531939885e+00
1.659675490802122733e-01 1.057153463061553467e+01
1.670080979768776563e-01 1.650267785070401061e+01
1.680486468735430672e-01 3.045029074298840044e+01
1.690891957702084503e-01 5.960024142704708794e+01
1.701297446668738333e-01 5.480601000617748753e+01
1.711702935635392164e-01 3.277462328070976127e+01
1.722108424602045995e-01 3.514880675882986338e+01
1.732513913568699826e-01 3.150953102386843696e+01
1.742919402535353657e-01 1.686057504885090097e+01
1.753324891502007488e-01 1.101829795418500169e+01
1.763730380468661318e-01 1.260178233633645206e+01
1.774135869435315149e-01 1.264886308346595101e+01
1.784541358401968980e-01 8.312429046131640575e+00
1.794946847368622811e-01 5.435496294162984299e+00
1.805352336335276642e-01 4.925878711680201860e+00
1.815757825301930473e-01 4.766538748274886217e+00
1.826163314268584303e-01 4.574672422484447054e+00
1.836568803235238134e-01 4.470042200527558407e+00
1.846974292201891965e-01 4.513203980887059430e+00
1.857379781168545796e-01 4.551982553254674713e+00
1.867785270135199627e-01 5.026626902074429637e+00
1.878190759101853458e-01 5.928640119928441976e+00
1.888596248068507288e-01 6.271535853526298609e+00
1.899001737035161119e-01 5.546601102649322712e+00
1.909407226001814950e-01 4.381664939945562054e+00
1.919812714968468781e-01 3.810759345808126142e+00
1.930218203935122612e-01 3.737676621418724920e+00
1.940623692901776443e-01 3.287783989510614902e+00
1.951029181868430273e-01 3.280592431501631268e+00
1.961434670835084104e-01 3.415940762528546060e+00
1.971840159801737935e-01 3.240077335088972887e+00
1.982245648768391766e-01 3.015796482225251651e+00
1.992651137735045597e-01 2.266154299430631625e+00
2.003056626701699428e-01 1.814923861322103704e+00
2.013462115668353813e-01 1.893220987691915269e+00
2.023867604635007644e-01 1.666186440027946247e+00
2.034273093601661475e-01 1.657842313177429361e+00
2.044678582568315306e-01 1.612246499334425209e+00
2.055084071534969137e-01 1.583082870844137346e+00
2.065489560501622968e-01 1.356416190140482314e+00
2.075895049468276798e-01 1.067275143084593481e+00
2.086300538434930629e-01 1.056936812055923269e+00
2.096706027401584460e-01 1.209242355303882022e+00
2.107111516368238291e-01 1.232832866822747064e+00
2.117517005334892122e-01 1.518755902534699942e+00
2.127922494301545953e-01 1.835699890707946480e+00
2.138327983268199783e-01 1.775790025778263725e+00
2.148733472234853614e-01 1.269114480874264927e+00
2.159138961201507445e-01 8.816837814636286907e-01
2.169544450168161276e-01 8.751595620433008094e-01
2.179949939134815107e-01 7.064374449254131605e-01
2.190355428101468938e-01 5.223148149489773573e-01
2.200760917068122768e-01 5.220466170907016590e-01
2.211166406034776599e-01 4.134330398262306971e-01
2.221571895001430430e-01 5.547841550758469964e-01
2.231977383968084261e-01 5.650037191927594904e-01
2.242382872934738092e-01 6.778017187433107438e-01
2.252788361901391923e-01 3.194876369634407354e-01
2.263193850868045753e-01 1.984889250347805500e-01
2.273599339834699584e-01 2.612639758017003544e-01
2.284004828801353415e-01 2.598431900218152180e-01
2.294410317768007246e-01 5.399230329078292812e-01
2.304815806734661077e-01 4.983830583677182346e-01
2.315221295701314908e-01 5.854474442997847916e-01
2.325626784667968738e-01 5.043535393790925525e-01
2.336032273634622569e-01 3.292509618570989005e-01
2.346437762601276400e-01 3.287368128322896155e-01
2.356843251567930231e-01 7.559602319253997393e-01
2.367248740534584062e-01 9.218404119515355433e-01
2.377654229501237892e-01 8.697957641052411759e-01
2.388059718467891723e-01 8.377413481854354416e-01
2.398465207434545554e-01 6.896129872183358600e-01
2.408870696401199385e-01 5.672085236170154587e-01
2.419276185367853216e-01 8.746071500225873763e-01
2.429681674334507047e-01 8.999844889123203018e-01
2.440087163301160877e-01 8.283734482308098279e-01
2.450492652267814708e-01 7.181867178625331860e-01
2.460898141234468539e-01 8.411788242676756511e-01
2.471303630201122370e-01 7.763776731129112818e-01
2.481709119167776201e-01 8.473891227536860526e-01
2.492114608134430032e-01 1.366569074375107107e+00
2.502520097101083585e-01 2.001263500951974805e+00
2.512925586067737416e-01 1.648333997095960513e+00
2.523331075034391247e-01 1.212793611268232041e+00
2.533736564001045077e-01 9.437117831470587248e-01
2.544142052967698908e-01 1.118185694544173714e+00
2.554547541934352739e-01 1.597238087862695721e+00
2.564953030901006570e-01 2.574440677506878217e+00
2.575358519867660401e-01 3.480516610627301333e+00
2.585764008834314231e-01 2.687920694656511955e+00
2.596169497800968062e-01 1.658951542223103814e+00
2.606574986767621893e-01 1.451754758131244216e+00
2.616980475734275724e-01 1.282146912858095789e+00
2.627385964700929555e-01 1.345576027037839850e+00
2.637791453667583386e-01 2.108001787763470247e+00
2.648196942634237216e-01 3.879918327219360918e+00
2.658602431600891047e-01 4.527235967547238005e+00
2.669007920567544878e-01 2.687748531429310361e+00
2.679413409534198709e-01 1.235039332077054297e+00
2.689818898500852540e-01 9.104572137997166692e-01
2.700224387467506371e-01 9.153783401611583770e-01
2.710629876434160201e-01 9.815406339043875050e-01
2.721035365400814032e-01 1.207052592338570207e+00
2.731440854367467863e-01 1.018416919723826197e+00
2.741846343334121694e-01 1.050810251111215621e+00
2.752251832300775525e-01 1.385367285808367654e+00
2.762657321267429356e-01 1.594640080880854072e+00
2.773062810234083186e-01 1.711946089341104482e+00
2.783468299200737017e-01 1.444259498757592297e+00
2.793873788167390848e-01 1.075000218508584737e+00
2.804279277134044679e-01 1.061189530990894525e+00
2.814684766100698510e-01 1.136918069204373438e+00
2.825090255067352341e-01 1.280189894495283198e+00
2.835495744034006171e-01 1.065079551574644512e+00
2.845901233000660002e-01 9.086509368350128568e-01
2.856306721967313833e-01 8.417536809665513431e-01
2.866712210933967664e-01 1.008512239576663916e+00
2.877117699900621495e-01 1.183669155522391492e+00
2.887523188867275326e-01 1.353097943678648107e+00
2.897928677833929156e-01 1.206859773241962586e+00
2.908334166800582987e-01 7.349662918850796700e-01
2.918739655767236818e-01 4.334558397430576804e-01
2.929145144733890649e-01 4.772003722113709046e-01
2.939550633700544480e-01 4.648118400167078335e-01
2.949956122667198311e-01 5.149148221147186177e-01
2.960361611633852141e-01 5.827561689474229922e-01
2.970767100600505972e-01 5.378927262006421017e-01
2.981172589567159803e-01 4.150174281384337860e-01
2.991578078533813634e-01 5.233082774362571854e-01
3.001983567500468020e-01 6.944535676157350679e-01
3.012389056467121851e-01 9.967458406515312674e-01
3.022794545433775681e-01 1.702511127592025275e+00
3.033200034400429512e-01 1.762250112960717985e+00
3.043605523367083343e-01 1.257276360914676872e+00
3.054011012333737174e-01 7.372883175925117882e-01
3.064416501300391005e-01 6.083978216632175418e-01
3.074821990267044836e-01 7.940607062389233306e-01
3.085227479233698666e-01 5.037947538836249350e-01
3.095632968200352497e-01 4.078611142479395824e-01
3.106038457167006328e-01 4.654241575222748395e-01
3.116443946133660159e-01 4.594617523121335978e-01
3.126849435100313990e-01 5.628415176838466039e-01
3.137254924066967821e-01 6.157645305858885365e-01
3.147660413033621651e-01 4.211780381743466251e-01
3.158065902000275482e-01 3.675359926121863907e-01
3.168471390966929313e-01 1.757988338037357323e-01
3.178876879933583144e-01 9.207419066901678661e-02
3.189282368900236975e-01 1.702337973004404148e-01
3.199687857866890806e-01 2.285571722661892125e-01
3.210093346833544636e-01 1.826529801098537575e-01
3.220498835800198467e-01 1.146612568399163479e-02
3.230904324766852298e-01 4.165143169920781929e-02
3.241309813733506129e-01 1.638160704259234990e-01
3.251715302700159960e-01 1.003119199873445666e-01
3.262120791666813790e-01 2.097827667414584596e-01
3.272526280633467621e-01 2.296700574267234174e-01
3.282931769600121452e-01 2.541323625433662414e-01
3.293337258566775283e-01 3.477746558838035185e-01
3.303742747533429114e-01 3.753756393873750596e-01
3.314148236500082945e-01 1.229875671610614063e-01
3.324553725466736775e-01 2.848396269256809887e-01
3.334959214433390606e-01 2.549672240547025126e-01
3.345364703400044437e-01 1.464791446198567826e-01
3.355770192366698268e-01 4.072133164311964038e-01
3.366175681333352099e-01 4.980393963175764327e-01
3.376581170300005930e-01 4.241472457235353488e-01
3.386986659266659760e-01 3.698572603888337085e-01
3.397392148233313591e-01 2.895575421287936990e-01
3.407797637199967422e-01 2.684036411795922561e-01
3.418203126166621253e-01 3.642685891491304062e-01
3.428608615133275084e-01 3.160559763432715386e-01
3.439014104099928915e-01 3.621036917345676898e-01
3.449419593066582745e-01 2.962486987073553735e-01
3.459825082033236576e-01 2.454089584960925663e-01
3.470230570999890407e-01 4.479358208569834687e-01
3.480636059966544238e-01 5.065951937722807941e-01
3.491041548933198069e-01 5.581452911855251386e-01
3.501447037899851900e-01 3.974490526347764785e-01
3.511852526866505730e-01 4.100305559034715941e-01
3.522258015833159561e-01 3.793437617763473213e-01
3.532663504799813392e-01 6.065503332294177596e-01
3.543068993766467223e-01 6.497206678844520411e-01
3.553474482733121054e-01 6.680106416482018972e-01
3.563879971699774885e-01 5.389447398624547247e-01
3.574285460666428715e-01 6.368060250091254204e-01
3.584690949633082546e-01 7.395101783955517760e-01
3.595096438599736377e-01 6.123733042000552018e-01
3.605501927566390208e-01 5.387436188182164187e-01
3.615907416533044039e-01 6.224749312111690358e-01
3.626312905499697870e-01 4.868524801476610264e-01
3.636718394466351700e-01 6.213262795094038893e-01
3.647123883433005531e-01 1.005860221624352846e+00
3.657529372399659362e-01 1.156579466176264503e+00
3.667934861366313193e-01 1.078345744212207080e+00
3.678340350332967024e-01 8.369270185074846324e-01
3.688745839299620854e-01 7.203969901634437178e-01
3.699151328266274685e-01 4.418552750648849781e-01
3.709556817232928516e-01 4.532363600755893174e-01
3.719962306199582347e-01 6.174668062975818827e-01
3.730367795166236178e-01 7.420612819326102283e-01
3.740773284132890009e-01 8.408478092379674251e-01
3.751178773099543839e-01 5.789108492591488186e-01
3.761584262066197670e-01 4.350042163132812334e-01
3.771989751032851501e-01 5.190025924726420214e-01
3.782395239999505332e-01 4.816784294344493844e-01
3.792800728966159163e-01 5.209188034174054849e-01
3.803206217932812994e-01 5.541598672480709808e-01
3.813611706899466824e-01 5.777957513862759242e-01
3.824017195866120655e-01 6.883692328607473598e-01
3.834422684832774486e-01 5.298164583514406445e-01
3.844828173799428317e-01 4.702586221207667450e-01
3.855233662766082148e-01 4.747506258546501101e-01
3.865639151732735979e-01 5.304635302135807251e-01
3.876044640699389809e-01 4.500363842153909388e-01
3.886450129666043640e-01 4.435596017662746249e-01
3.896855618632697471e-01 3.758271443403025103e-01
3.907261107599351302e-01 2.647341858224123712e-01
3.917666596566005133e-01 4.054484147045371856e-01
3.928072085532658964e-01 5.422500500428562020e-01
3.938477574499312794e-01 3.399195529448668651e-01
3.948883063465966625e-01 3.297284033133820458e-01
3.959288552432620456e-01 2.459824486870338944e-01
3.969694041399274287e-01 3.870891167040895198e-01
3.980099530365928118e-01 2.527456812350621362e-01
3.990505019332581949e-01 2.362377569444866765e-01
4.000910508299235779e-01 1.835752950578033449e-01
4.011315997265889610e-01 0.000000000000000000e+00
4.021721486232543441e-01 1.270033092888311899e-01
4.032126975199197272e-01 2.453225430888608116e-01
4.042532464165851103e-01 3.836166402127609842e-01
4.052937953132504934e-01 2.662338522707656807e-01
4.063343442099158764e-01 1.667183725517631387e-01
4.073748931065812595e-01 2.690323566754635465e-01
4.084154420032466426e-01 2.411662870554422966e-01
4.094559908999120257e-01 3.468399935344343987e-01
4.104965397965774088e-01 2.083305617580215596e-01
4.115370886932427918e-01 5.345252337805916909e-02
4.125776375899081749e-01 5.740501849220080999e-02
4.136181864865735580e-01 2.245189592876783991e-01
4.146587353832389411e-01 1.992618372882830613e-01
4.156992842799043242e-01 2.244280488433432197e-01
4.167398331765697073e-01 2.940211932286622698e-01
4.177803820732350903e-01 1.920234744083089140e-01
4.188209309699004734e-01 9.006489257320637876e-02
4.198614798665658565e-01 2.416602173158715061e-01
4.209020287632312396e-01 4.338545705673517716e-01
4.219425776598966227e-01 4.645988575220947325e-01
4.229831265565620058e-01 4.038035627330067712e-01
4.240236754532273888e-01 2.604234038999102552e-01
4.250642243498927719e-01 1.590632832648815054e-01
4.261047732465581550e-01 3.818146521594911746e-01
4.271453221432235381e-01 4.199285196584305879e-01
4.281858710398889212e-01 1.991719768566326820e-01
4.292264199365543043e-01 1.743986162185784394e-01
4.302669688332196873e-01 3.455485615603635097e-01
4.313075177298850704e-01 4.298316509200326152e-01
4.323480666265504535e-01 4.511249248615882834e-01
4.333886155232158366e-01 3.282071494424521063e-01
4.344291644198812197e-01 2.833975216724482493e-01
