# q (1/Angstrom), Intensity (arb)
2.029070354705860696e-02 1.654052063429129703e+03
2.133125244372399004e-02 1.643394720603956102e+03
2.237180134038937659e-02 1.637938483657377674e+03
2.341235023705475968e-02 1.620563762314658106e+03
2.445289913372014276e-02 1.604471771592936193e+03
2.549344803038552584e-02 1.591907633443307077e+03
2.653399692705091240e-02 1.577280209828133138e+03
2.757454582371629548e-02 1.563465980301177069e+03
2.861509472038167856e-02 1.545308670624645856e+03
2.965564361704706164e-02 1.522163763989329254e+03
3.069619251371244473e-02 1.499622998161256646e+03
3.173674141037782781e-02 1.477927995143299995e+03
3.277729030704321089e-02 1.460595353093988479e+03
3.381783920370859398e-02 1.443645086962450250e+03
3.485838810037397706e-02 1.414782066048639763e+03
3.589893699703936014e-02 1.387106588949435491e+03
3.693948589370474322e-02 1.364942989816983300e+03
3.798003479037012631e-02 1.341821854722528997e+03
3.902058368703550939e-02 1.319738629886186345e+03
4.006113258370089247e-02 1.290695883919632934e+03
4.110168148036627556e-02 1.263788286087547931e+03
4.214223037703165864e-02 1.237799512833565586e+03
4.318277927369704866e-02 1.211664604157167332e+03
4.422332817036243174e-02 1.187475055870187362e+03
4.526387706702781483e-02 1.161570433252838029e+03
4.630442596369319791e-02 1.135071621403293193e+03
4.734497486035858099e-02 1.105619886380982734e+03
4.838552375702396408e-02 1.079409542116769899e+03
4.942607265368934716e-02 1.055490034717071012e+03
5.046662155035473024e-02 1.024329952757368574e+03
5.150717044702011332e-02 9.974655545773787253e+02
5.254771934368549641e-02 9.719124087360016802e+02
5.358826824035087949e-02 9.442782332716585643e+02
5.462881713701626257e-02 9.169186214572071094e+02
5.566936603368164566e-02 8.872479111265398615e+02
5.670991493034702874e-02 8.629317314484707140e+02
5.775046382701241182e-02 8.376720218401734428e+02
5.879101272367779490e-02 8.112792186720719201e+02
5.983156162034317799e-02 7.870877948871979015e+02
6.087211051700856107e-02 7.613353256988527846e+02
6.191265941367394415e-02 7.364475553657075579e+02
6.295320831033933417e-02 7.106743759083586838e+02
6.399375720700471726e-02 6.866649407513165215e+02
6.503430610367010034e-02 6.624382701548690875e+02
6.607485500033548342e-02 6.373041073671638514e+02
6.711540389700086651e-02 6.135374566670157037e+02
6.815595279366624959e-02 5.904625062734339735e+02
6.919650169033163267e-02 5.691674355672588490e+02
7.023705058699701576e-02 5.459614906822466764e+02
7.127759948366239884e-02 5.231461692293348733e+02
7.231814838032778192e-02 5.011508299413317218e+02
7.335869727699316500e-02 4.780086112120824851e+02
7.439924617365854809e-02 4.580228217727776041e+02
7.543979507032393117e-02 4.374938232769392243e+02
7.648034396698931425e-02 4.176750149826739857e+02
7.752089286365469734e-02 3.985243460939260558e+02
7.856144176032008042e-02 3.801207797443042864e+02
7.960199065698546350e-02 3.621360851860598018e+02
8.064253955365084658e-02 3.437763310530394278e+02
8.168308845031622967e-02 3.241870109136836504e+02
8.272363734698161275e-02 3.075517897663582971e+02
8.376418624364699583e-02 2.922907236922902712e+02
8.480473514031239279e-02 2.767575001453561754e+02
8.584528403697777588e-02 2.617132248810875694e+02
8.688583293364315896e-02 2.461351051228614040e+02
8.792638183030854204e-02 2.317902580523159202e+02
8.896693072697392513e-02 2.180792002860285947e+02
9.000747962363930821e-02 2.046561269131496772e+02
9.104802852030469129e-02 1.918434103749986264e+02
9.208857741697007437e-02 1.801896073794484607e+02
9.312912631363545746e-02 1.688661965529176427e+02
9.416967521030084054e-02 1.575158133397536915e+02
9.521022410696622362e-02 1.465194406940154863e+02
9.625077300363160671e-02 1.365573162339471480e+02
9.729132190029698979e-02 1.266378356189424039e+02
9.833187079696237287e-02 1.175215057232173592e+02
9.937241969362775595e-02 1.080734220605130957e+02
1.004129685902931390e-01 9.956132019283788281e+01
1.014535174869585221e-01 9.132734315420580629e+01
1.024940663836239052e-01 8.371359010354689190e+01
1.035346152802892883e-01 7.707643487903061441e+01
1.045751641769546714e-01 7.073224624550719852e+01
1.056157130736200545e-01 6.361660844453292185e+01
1.066562619702854375e-01 5.733352344821066993e+01
1.076968108669508206e-01 5.195752713412024093e+01
1.087373597636162037e-01 4.728633999906787722e+01
1.097779086602815868e-01 4.237437765572212811e+01
1.108184575569469699e-01 3.820979081260216503e+01
1.118590064536123529e-01 3.380005735848438064e+01
1.128995553502777360e-01 2.984816231482934157e+01
1.139401042469431191e-01 2.639579814235019484e+01
1.149806531436085022e-01 2.262880372023616715e+01
1.160212020402738853e-01 1.979027315303950019e+01
1.170617509369392684e-01 1.753793708189983391e+01
1.181022998336046514e-01 1.526568773267531043e+01
1.191428487302700345e-01 1.348885973788872761e+01
1.201833976269354176e-01 1.151474145944112593e+01
1.212239465236008007e-01 9.254048620630481281e+00
1.222644954202661838e-01 7.418050485116459924e+00
1.233050443169315669e-01 6.229437766238408614e+00
1.243455932135969499e-01 5.594830318530714663e+00
1.253861421102623330e-01 4.676443538570779879e+00
1.264266910069277161e-01 3.740707503160379588e+00
1.274672399035930992e-01 3.427552490775688909e+00
1.285077888002584823e-01 2.368995216145030724e+00
1.295483376969238654e-01 1.941317680151051661e+00
1.305888865935892484e-01 1.910940469972739919e+00
1.316294354902546315e-01 1.515019156068607487e+00
1.326699843869200146e-01 1.728958413780993908e+00
1.337105332835853977e-01 1.967286659968170426e+00
1.347510821802507808e-01 2.082736731950223685e+00
1.357916310769161639e-01 1.833571269472198395e+00
1.368321799735815469e-01 2.412606738070341095e+00
1.378727288702469300e-01 3.005015391075801290e+00
1.389132777669123131e-01 3.398380715047402134e+00
1.399538266635776962e-01 3.434633400920176882e+00
1.409943755602430793e-01 3.984888186500718632e+00
1.420349244569084624e-01 4.521979174416955516e+00
1.430754733535738454e-01 4.554005896953654542e+00
1.441160222502392285e-01 5.489476581630722052e+00
1.451565711469046116e-01 6.167178228578563903e+00
1.461971200435699947e-01 6.531101090530444964e+00
1.472376689402353778e-01 7.226929770867243974e+00
1.482782178369007609e-01 7.715777290957067436e+00
1.493187667335661439e-01 8.127911052161888250e+00
1.503593156302315270e-01 8.546395568449511870e+00
1.513998645268969101e-01 9.114914450828077719e+00
1.524404134235622932e-01 9.750574383086576091e+00
1.534809623202276763e-01 1.031476222332269899e+01
1.545215112168930593e-01 1.097550145555303303e+01
1.555620601135584424e-01 1.127748356494117843e+01
1.566026090102238255e-01 1.123318583887468236e+01
1.576431579068892086e-01 1.185281315510046340e+01
1.586837068035545917e-01 1.256745051138512181e+01
1.597242557002199748e-01 1.260610249155197948e+01
1.607648045968853578e-01 1.252238600703549665e+01
1.618053534935507409e-01 1.265537334059990826e+01
1.628459023902161240e-01 1.295979430134219612e+01
1.638864512868815071e-01 1.333224420658577358e+01
1.649270001835468902e-01 1.356286932886302310e+01
1.659675490802122733e-01 1.364991599619499141e+01
1.670080979768776563e-01 1.343560564050238071e+01
1.680486468735430672e-01 1.363621654874481948e+01
1.690891957702084503e-01 1.386990902126530401e+01
1.701297446668738333e-01 1.400110938826137641e+01
1.711702935635392164e-01 1.392429429366740834e+01
1.722108424602045995e-01 1.361103062930774854e+01
1.732513913568699826e-01 1.350947818899893704e+01
1.742919402535353657e-01 1.341307068894820986e+01
1.753324891502007488e-01 1.300233338989442089e+01
1.763730380468661318e-01 1.259682634172724391e+01
1.774135869435315149e-01 1.251726733075433629e+01
1.784541358401968980e-01 1.260881006603552379e+01
1.794946847368622811e-01 1.213471462643007470e+01
1.805352336335276642e-01 1.190877849937681532e+01
1.815757825301930473e-01 1.156776368835518554e+01
1.826163314268584303e-01 1.120554763934133646e+01
1.836568803235238134e-01 1.057805800149613162e+01
1.846974292201891965e-01 1.008064242903482821e+01
1.857379781168545796e-01 1.003588019289811939e+01
1.867785270135199627e-01 1.010537500480143080e+01
1.878190759101853458e-01 9.522171932676467776e+00
1.888596248068507288e-01 8.812604794563444699e+00
1.899001737035161119e-01 8.669855618100086758e+00
1.909407226001814950e-01 8.401614472263489120e+00
1.919812714968468781e-01 7.927909334244194639e+00
1.930218203935122612e-01 7.531902114401020754e+00
1.940623692901776443e-01 7.095509818306698691e+00
1.951029181868430273e-01 6.725470690890134051e+00
1.961434670835084104e-01 6.638739020937499902e+00
1.971840159801737935e-01 6.131226003850208883e+00
1.982245648768391766e-01 5.332142511173081800e+00
1.992651137735045597e-01 5.228246320766292143e+00
2.003056626701699428e-01 4.957721816036425366e+00
2.013462115668353813e-01 4.418487270225124774e+00
2.023867604635007644e-01 4.141755712191347527e+00
2.034273093601661475e-01 3.882769338509149293e+00
2.044678582568315306e-01 3.586240012034352276e+00
2.055084071534969137e-01 3.267162093466343009e+00
2.065489560501622968e-01 3.060512016620673847e+00
2.075895049468276798e-01 2.793247836330760236e+00
2.086300538434930629e-01 2.427108613317578545e+00
2.096706027401584460e-01 2.213968884949718330e+00
2.107111516368238291e-01 2.186327385770148624e+00
2.117517005334892122e-01 2.127323946713197245e+00
2.127922494301545953e-01 1.998877053051121067e+00
2.138327983268199783e-01 1.788927352099495494e+00
2.148733472234853614e-01 1.576599288029353119e+00
2.159138961201507445e-01 1.792574771785577781e+00
2.169544450168161276e-01 1.401750900564650237e+00
2.179949939134815107e-01 1.061196945202784292e+00
2.190355428101468938e-01 8.376608664007783034e-01
2.200760917068122768e-01 1.017272972199194214e+00
2.211166406034776599e-01 9.447240716299312169e-01
2.221571895001430430e-01 6.710298777300742756e-01
2.231977383968084261e-01 7.869962158478109870e-01
2.242382872934738092e-01 7.996327520865840199e-01
2.252788361901391923e-01 6.225129645895002284e-01
2.263193850868045753e-01 4.964950444087072867e-01
2.273599339834699584e-01 3.702496334318716720e-01
2.284004828801353415e-01 3.227166100286851247e-01
2.294410317768007246e-01 6.194838438184646634e-01
2.304815806734661077e-01 4.205655374141308300e-01
2.315221295701314908e-01 4.975182883104842801e-01
2.325626784667968738e-01 8.089126328277274069e-01
2.336032273634622569e-01 8.889745496522500900e-01
2.346437762601276400e-01 7.798007910888458127e-01
2.356843251567930231e-01 9.156936674986972946e-01
2.367248740534584062e-01 8.872548277832024155e-01
2.377654229501237892e-01 8.905791849041975183e-01
2.388059718467891723e-01 7.743730784806004408e-01
2.398465207434545554e-01 1.065032784876400740e+00
2.408870696401199385e-01 1.144085638325481824e+00
2.419276185367853216e-01 1.191670379457494988e+00
2.429681674334507047e-01 1.186243719900964777e+00
2.440087163301160877e-01 1.205698562882524527e+00
2.450492652267814708e-01 1.350359826050439693e+00
2.460898141234468539e-01 1.683995217570025460e+00
2.471303630201122370e-01 1.800601414796787481e+00
2.481709119167776201e-01 1.803646132964264126e+00
2.492114608134430032e-01 1.775418818268338583e+00
2.502520097101083585e-01 1.865197145926924094e+00
2.512925586067737416e-01 2.135160238922512832e+00
2.523331075034391247e-01 2.112856237587958930e+00
2.533736564001045077e-01 2.036720420608787663e+00
2.544142052967698908e-01 2.055063068446852270e+00
2.554547541934352739e-01 2.072276051077391656e+00
2.564953030901006570e-01 2.359606898611563253e+00
2.575358519867660401e-01 2.670020778172240483e+00
2.585764008834314231e-01 2.592635446561473600e+00
2.596169497800968062e-01 2.563656301490222944e+00
2.606574986767621893e-01 2.573513452856399653e+00
2.616980475734275724e-01 2.639176297224821610e+00
2.627385964700929555e-01 2.599268463739178969e+00
2.637791453667583386e-01 2.495517883272647452e+00
2.648196942634237216e-01 2.479174489823304128e+00
2.658602431600891047e-01 2.439523272481345373e+00
2.669007920567544878e-01 2.347782461185015990e+00
2.679413409534198709e-01 2.091411305116448460e+00
2.689818898500852540e-01 2.244880381932759406e+00
2.700224387467506371e-01 2.413455550971992380e+00
2.710629876434160201e-01 2.278410334813063542e+00
2.721035365400814032e-01 2.162180520439374476e+00
2.731440854367467863e-01 2.270050674525887047e+00
2.741846343334121694e-01 2.063375814142649034e+00
2.752251832300775525e-01 2.208285076810128089e+00
2.762657321267429356e-01 2.130284252987010518e+00
2.773062810234083186e-01 2.116805345860097276e+00
2.783468299200737017e-01 2.183292817874416869e+00
2.793873788167390848e-01 2.137326177578984243e+00
2.804279277134044679e-01 1.940877659817612511e+00
2.814684766100698510e-01 2.013269295155801331e+00
2.825090255067352341e-01 1.983453678649617302e+00
2.835495744034006171e-01 1.782746294576707413e+00
2.845901233000660002e-01 1.523656017312369215e+00
2.856306721967313833e-01 1.691039400349406918e+00
2.866712210933967664e-01 1.758788806825027251e+00
2.877117699900621495e-01 1.512121376426879493e+00
2.887523188867275326e-01 1.326140615330334782e+00
2.897928677833929156e-01 1.332954355426913651e+00
2.908334166800582987e-01 1.256237686537378551e+00
2.918739655767236818e-01 1.467504762674654017e+00
2.929145144733890649e-01 1.369535936040719548e+00
2.939550633700544480e-01 1.267466084374191837e+00
2.949956122667198311e-01 1.210336962100587499e+00
2.960361611633852141e-01 1.255650471785489941e+00
2.970767100600505972e-01 1.182131131855591377e+00
2.981172589567159803e-01 1.224611450391311251e+00
2.991578078533813634e-01 1.157756336815047860e+00
3.001983567500468020e-01 1.031513487119912753e+00
3.012389056467121851e-01 9.311114122901607004e-01
3.022794545433775681e-01 9.841735405626721445e-01
3.033200034400429512e-01 7.732418404125525058e-01
3.043605523367083343e-01 3.966359599956845727e-01
3.054011012333737174e-01 5.463312777699051992e-01
3.064416501300391005e-01 7.496722747908570739e-01
3.074821990267044836e-01 6.694722729494877456e-01
3.085227479233698666e-01 6.125190733453784731e-01
3.095632968200352497e-01 6.894104628051103134e-01
3.106038457167006328e-01 5.429642103293836897e-01
3.116443946133660159e-01 5.863171264946736017e-01
3.126849435100313990e-01 7.125717759210630220e-01
3.137254924066967821e-01 7.156302678264907513e-01
3.147660413033621651e-01 4.512965443188434733e-01
3.158065902000275482e-01 4.607136002916725204e-01
3.168471390966929313e-01 7.057802733432403386e-01
3.178876879933583144e-01 4.544140488572203651e-01
3.189282368900236975e-01 3.789020887436507223e-01
3.199687857866890806e-01 4.117969467443387543e-01
3.210093346833544636e-01 5.091695741903308203e-01
3.220498835800198467e-01 5.260196412331978877e-01
3.230904324766852298e-01 6.211807233596857714e-01
3.241309813733506129e-01 4.316146445321642489e-01
3.251715302700159960e-01 5.724267621906626857e-01
3.262120791666813790e-01 6.483066071306176070e-01
3.272526280633467621e-01 4.466820024619160279e-01
3.282931769600121452e-01 5.191717611823705170e-01
3.293337258566775283e-01 7.029909428280447514e-01
3.303742747533429114e-01 6.801474378727867531e-01
3.314148236500082945e-01 5.388617721874027211e-01
3.324553725466736775e-01 5.803960887735506446e-01
3.334959214433390606e-01 6.592607850945384484e-01
3.345364703400044437e-01 5.216779854355948487e-01
3.355770192366698268e-01 5.113988675193539279e-01
3.366175681333352099e-01 7.150749935668123669e-01
3.376581170300005930e-01 6.479961155299704956e-01
3.386986659266659760e-01 7.421283972720651434e-01
3.397392148233313591e-01 5.505402118227884500e-01
3.407797637199967422e-01 7.990618621504808061e-01
3.418203126166621253e-01 9.752563664911519936e-01
3.428608615133275084e-01 8.198759596625997403e-01
3.439014104099928915e-01 6.713845079724123366e-01
3.449419593066582745e-01 8.990186612902739682e-01
3.459825082033236576e-01 8.912662356368450389e-01
3.470230570999890407e-01 7.720949641919183648e-01
3.480636059966544238e-01 7.630402102663751407e-01
3.491041548933198069e-01 7.222526902914161440e-01
3.501447037899851900e-01 6.454502163451856234e-01
3.511852526866505730e-01 9.564362800614745197e-01
3.522258015833159561e-01 1.006504219820516965e+00
3.532663504799813392e-01 1.002637313831151289e+00
3.543068993766467223e-01 7.710708035382438652e-01
3.553474482733121054e-01 7.565894538428601379e-01
3.563879971699774885e-01 9.237420328938164005e-01
3.574285460666428715e-01 7.548326101856268622e-01
3.584690949633082546e-01 7.216778889378900885e-01
3.595096438599736377e-01 6.286923127751187224e-01
3.605501927566390208e-01 7.881583372036793378e-01
3.615907416533044039e-01 8.297688408733243648e-01
3.626312905499697870e-01 1.007065270901819076e+00
3.636718394466351700e-01 7.745362229411831834e-01
3.647123883433005531e-01 8.819009124333945238e-01
3.657529372399659362e-01 8.048865001810412423e-01
3.667934861366313193e-01 9.268444332278207298e-01
3.678340350332967024e-01 9.614702648203987678e-01
3.688745839299620854e-01 8.820774453822473049e-01
3.699151328266274685e-01 7.953083057529362065e-01
3.709556817232928516e-01 8.685706827050267975e-01
3.719962306199582347e-01 7.423445759463227489e-01
3.730367795166236178e-01 7.858499151203659494e-01
3.740773284132890009e-01 8.295513503210756312e-01
3.751178773099543839e-01 8.852312898054819357e-01
3.761584262066197670e-01 7.280684333977056610e-01
3.771989751032851501e-01 6.676621399508100296e-01
3.782395239999505332e-01 7.549702247852181358e-01
3.792800728966159163e-01 5.454108396976735662e-01
3.803206217932812994e-01 4.800187092629961683e-01
3.813611706899466824e-01 6.575945030274610303e-01
3.824017195866120655e-01 8.368405176079818375e-01
3.834422684832774486e-01 8.347957847249212193e-01
3.844828173799428317e-01 6.842802112198747011e-01
3.855233662766082148e-01 5.085136830842387212e-01
3.865639151732735979e-01 5.287495274818070357e-01
3.876044640699389809e-01 6.032784601354066467e-01
3.886450129666043640e-01 6.016664942344114309e-01
3.896855618632697471e-01 5.480821482869195904e-01
3.907261107599351302e-01 3.965097240898316500e-01
3.917666596566005133e-01 5.628660947038497397e-01
3.928072085532658964e-01 6.645973180033983851e-01
3.938477574499312794e-01 5.874828972163648189e-01
3.948883063465966625e-01 5.858636753932984220e-01
3.959288552432620456e-01 3.929909488619145463e-01
3.969694041399274287e-01 2.650610892382623263e-01
3.980099530365928118e-01 2.796757313564661729e-01
3.990505019332581949e-01 4.033149229745873754e-01
4.000910508299235779e-01 4.768072348454310827e-01
4.011315997265889610e-01 3.826771091818059745e-01
4.021721486232543441e-01 3.766156369898538969e-01
4.032126975199197272e-01 5.175169785614102125e-01
4.042532464165851103e-01 4.224702233354094005e-01
4.052937953132504934e-01 2.598604974202665119e-01
4.063343442099158764e-01 1.703798151014233042e-01
4.073748931065812595e-01 2.523143282141084853e-01
4.084154420032466426e-01 3.580050755444048605e-01
4.094559908999120257e-01 3.672479144028812925e-01
4.104965397965774088e-01 3.741890279074873149e-01
4.115370886932427918e-01 3.686456177213806029e-01
4.125776375899081749e-01 3.696127412645537902e-01
4.136181864865735580e-01 4.049470113827631224e-01
4.146587353832389411e-01 2.897834568230841512e-01
4.156992842799043242e-01 4.412080317965845211e-01
4.167398331765697073e-01 4.197833643027735206e-01
4.177803820732350903e-01 1.265694875159617538e-01
4.188209309699004734e-01 2.396624951891794808e-01
4.198614798665658565e-01 3.755235662494484927e-01
4.209020287632312396e-01 4.956953527645246993e-01
4.219425776598966227e-01 6.155357858821943751e-01
4.229831265565620058e-01 5.004821978507081326e-01
4.240236754532273888e-01 4.886393868245910710e-01
4.250642243498927719e-01 3.888890691833424285e-01
4.261047732465581550e-01 3.217771872670951439e-01
4.271453221432235381e-01 4.877400037429033830e-01
4.281858710398889212e-01 5.233371741697041557e-01
4.292264199365543043e-01 4.523406640035609882e-01
4.302669688332196873e-01 4.896296529617174542e-01
4.313075177298850704e-01 4.483200773533866368e-01
4.323480666265504535e-01 3.145227811134674312e-01
4.333886155232158366e-01 3.722864224411495115e-01
4.344291644198812197e-01 3.451174825804450563e-01
