# q (1/Angstrom), Intensity (arb)
2.029070354705860696e-02 1.621697867271176392e+03
2.133125244372399004e-02 1.614617626733433099e+03
2.237180134038937659e-02 1.611711161610784529e+03
2.341235023705475968e-02 1.600775960802175405e+03
2.445289913372014276e-02 1.588220142175915953e+03
2.549344803038552584e-02 1.569978090413742621e+03
2.653399692705091240e-02 1.551602445348464698e+03
2.757454582371629548e-02 1.533010252644030970e+03
2.861509472038167856e-02 1.512598332247420785e+03
2.965564361704706164e-02 1.496323752652410121e+03
3.069619251371244473e-02 1.478091997762632673e+03
3.173674141037782781e-02 1.455534672412756663e+03
3.277729030704321089e-02 1.431660602729524044e+03
3.381783920370859398e-02 1.410622068836284143e+03
3.485838810037397706e-02 1.388428510958511424e+03
3.589893699703936014e-02 1.368810130378240046e+03
3.693948589370474322e-02 1.344441392893451166e+03
3.798003479037012631e-02 1.317330346269185611e+03
3.902058368703550939e-02 1.295710954132277948e+03
4.006113258370089247e-02 1.272154125298477766e+03
4.110168148036627556e-02 1.246909335125809093e+03
4.214223037703165864e-02 1.219935165660536086e+03
4.318277927369704866e-02 1.192556101887131945e+03
4.422332817036243174e-02 1.166837749440258676e+03
4.526387706702781483e-02 1.141603139632746206e+03
4.630442596369319791e-02 1.116055230393476677e+03
4.734497486035858099e-02 1.087618358917273781e+03
4.838552375702396408e-02 1.060848932180115753e+03
4.942607265368934716e-02 1.034876000045029514e+03
5.046662155035473024e-02 1.009163639823533003e+03
5.150717044702011332e-02 9.852209676096978228e+02
5.254771934368549641e-02 9.577018804107544838e+02
5.358826824035087949e-02 9.298918131355859487e+02
5.462881713701626257e-02 9.052887377025092519e+02
5.566936603368164566e-02 8.777882627976867980e+02
5.670991493034702874e-02 8.502412648914908004e+02
5.775046382701241182e-02 8.248045143726433253e+02
5.879101272367779490e-02 8.000966888457551249e+02
5.983156162034317799e-02 7.740771511846188560e+02
6.087211051700856107e-02 7.475386019991153717e+02
6.191265941367394415e-02 7.198748580692141559e+02
6.295320831033933417e-02 6.983787674618420169e+02
6.399375720700471726e-02 6.736899568655494477e+02
6.503430610367010034e-02 6.499952272041998640e+02
6.607485500033548342e-02 6.263487645085875783e+02
6.711540389700086651e-02 6.030881519289664539e+02
6.815595279366624959e-02 5.804786777787428491e+02
6.919650169033163267e-02 5.577031328885144603e+02
7.023705058699701576e-02 5.354082762208797703e+02
7.127759948366239884e-02 5.146992344079851591e+02
7.231814838032778192e-02 4.920365659525116371e+02
7.335869727699316500e-02 4.691140424080767843e+02
7.439924617365854809e-02 4.492235393993075263e+02
7.543979507032393117e-02 4.285955205728881197e+02
7.648034396698931425e-02 4.092500628851880151e+02
7.752089286365469734e-02 3.909534913569193577e+02
7.856144176032008042e-02 3.724760331641721223e+02
7.960199065698546350e-02 3.556173345667627359e+02
8.064253955365084658e-02 3.376565169279925840e+02
8.168308845031622967e-02 3.193144481128540519e+02
8.272363734698161275e-02 3.022091463967007030e+02
8.376418624364699583e-02 2.857188647481669364e+02
8.480473514031239279e-02 2.703637469194855498e+02
8.584528403697777588e-02 2.565887209098394237e+02
8.688583293364315896e-02 2.431913623083855214e+02
8.792638183030854204e-02 2.288821443797068582e+02
8.896693072697392513e-02 2.155833352393104860e+02
9.000747962363930821e-02 2.024407716315114953e+02
9.104802852030469129e-02 1.897254611358291072e+02
9.208857741697007437e-02 1.773091797502139002e+02
9.312912631363545746e-02 1.666643070529372892e+02
9.416967521030084054e-02 1.550529450024357629e+02
9.521022410696622362e-02 1.439258440635248348e+02
9.625077300363160671e-02 1.333484839615188093e+02
9.729132190029698979e-02 1.234125738589989396e+02
9.833187079696237287e-02 1.143940212049959939e+02
9.937241969362775595e-02 1.055373029371771025e+02
1.004129685902931390e-01 9.749009529272908026e+01
1.014535174869585221e-01 8.983864543280812143e+01
1.024940663836239052e-01 8.254397543254603420e+01
1.035346152802892883e-01 7.541389861414569395e+01
1.045751641769546714e-01 6.897871401497560839e+01
1.056157130736200545e-01 6.267324902467161962e+01
1.066562619702854375e-01 5.663635899223446302e+01
1.076968108669508206e-01 5.145315175239403516e+01
1.087373597636162037e-01 4.632167181119068289e+01
1.097779086602815868e-01 4.116095333744898710e+01
1.108184575569469699e-01 3.696710944278173372e+01
1.118590064536123529e-01 3.315337779122150152e+01
1.128995553502777360e-01 2.943711665464732263e+01
1.139401042469431191e-01 2.572258562853287245e+01
1.149806531436085022e-01 2.256631946171633274e+01
1.160212020402738853e-01 2.003721183611268941e+01
1.170617509369392684e-01 1.730670559232369143e+01
1.181022998336046514e-01 1.503961997935312311e+01
1.191428487302700345e-01 1.273309605081802687e+01
1.201833976269354176e-01 1.067550545158289310e+01
1.212239465236008007e-01 8.876309990812210060e+00
1.222644954202661838e-01 7.240887414166593317e+00
1.233050443169315669e-01 6.120974447624622172e+00
1.243455932135969499e-01 5.092958068258951698e+00
1.253861421102623330e-01 4.572553773711046432e+00
1.264266910069277161e-01 3.659895716277326017e+00
1.274672399035930992e-01 2.421965578443611378e+00
1.285077888002584823e-01 2.268259716754815969e+00
1.295483376969238654e-01 2.229259826591281524e+00
1.305888865935892484e-01 1.342592476610878549e+00
1.316294354902546315e-01 1.140882020746641246e+00
1.326699843869200146e-01 1.651574220780268831e+00
1.337105332835853977e-01 2.333755684984048173e+00
1.347510821802507808e-01 2.081656458988259573e+00
1.357916310769161639e-01 2.278675657340656358e+00
1.368321799735815469e-01 2.582257053378143041e+00
1.378727288702469300e-01 2.834821922818836271e+00
1.389132777669123131e-01 2.908771358188875666e+00
1.399538266635776962e-01 3.320108597163272890e+00
1.409943755602430793e-01 4.018167341539388815e+00
1.420349244569084624e-01 4.942730332442366148e+00
1.430754733535738454e-01 5.154544587260584620e+00
1.441160222502392285e-01 5.416216577240650309e+00
1.451565711469046116e-01 6.097521414925623162e+00
1.461971200435699947e-01 6.661944459811373065e+00
1.472376689402353778e-01 7.013733056401896704e+00
1.482782178369007609e-01 7.652739496079576043e+00
1.493187667335661439e-01 7.888707001248857154e+00
1.503593156302315270e-01 8.353911632148932398e+00
1.513998645268969101e-01 9.132989374008460004e+00
1.524404134235622932e-01 9.805462235015514949e+00
1.534809623202276763e-01 1.046161912015262274e+01
1.545215112168930593e-01 1.093277071099011621e+01
1.555620601135584424e-01 1.112261998700879673e+01
1.566026090102238255e-01 1.150238521949130543e+01
1.576431579068892086e-01 1.184043165983879575e+01
1.586837068035545917e-01 1.229006936674720762e+01
1.597242557002199748e-01 1.243878943852218910e+01
1.607648045968853578e-01 1.265386701027018646e+01
1.618053534935507409e-01 1.290914196602631137e+01
1.628459023902161240e-01 1.311403784912015524e+01
1.638864512868815071e-01 1.315938113138142995e+01
1.649270001835468902e-01 1.307735208009865246e+01
1.659675490802122733e-01 1.360862288953623889e+01
1.670080979768776563e-01 1.390892255407810651e+01
1.680486468735430672e-01 1.361742359239755373e+01
1.690891957702084503e-01 1.333690442530648923e+01
1.701297446668738333e-01 1.329863050189904428e+01
1.711702935635392164e-01 1.339508323522710853e+01
1.722108424602045995e-01 1.370412084531203334e+01
1.732513913568699826e-01 1.339112162918607041e+01
1.742919402535353657e-01 1.287014370554188147e+01
1.753324891502007488e-01 1.285983063980373942e+01
1.763730380468661318e-01 1.301730421124814541e+01
1.774135869435315149e-01 1.287129730303250241e+01
1.784541358401968980e-01 1.287283827080318943e+01
1.794946847368622811e-01 1.259395301229946895e+01
1.805352336335276642e-01 1.218879766548595356e+01
1.815757825301930473e-01 1.163441623284740700e+01
1.826163314268584303e-01 1.105906851741863761e+01
1.836568803235238134e-01 1.097475281094508404e+01
1.846974292201891965e-01 1.037320391851127255e+01
1.857379781168545796e-01 1.006308099612908435e+01
1.867785270135199627e-01 9.857271523979694194e+00
1.878190759101853458e-01 9.233264761350323369e+00
1.888596248068507288e-01 8.838656651503200123e+00
1.899001737035161119e-01 8.466011043389350732e+00
1.909407226001814950e-01 8.282880896620280708e+00
1.919812714968468781e-01 8.019961465549638291e+00
1.930218203935122612e-01 7.628098192578775638e+00
1.940623692901776443e-01 7.035563961136507061e+00
1.951029181868430273e-01 6.604340257754948595e+00
1.961434670835084104e-01 6.301743731987965447e+00
1.971840159801737935e-01 6.450389417200231179e+00
1.982245648768391766e-01 6.079358627443490093e+00
1.992651137735045597e-01 5.479811355526127414e+00
2.003056626701699428e-01 5.156271293441520243e+00
2.013462115668353813e-01 4.817577313483212720e+00
2.023867604635007644e-01 4.322745994877468689e+00
2.034273093601661475e-01 4.171110912175773677e+00
2.044678582568315306e-01 3.687335245477306955e+00
2.055084071534969137e-01 3.232228116628071746e+00
2.065489560501622968e-01 3.072877815410464564e+00
2.075895049468276798e-01 2.686826655179487489e+00
2.086300538434930629e-01 2.706891012565090904e+00
2.096706027401584460e-01 2.463327017984649814e+00
2.107111516368238291e-01 2.069505017847642847e+00
2.117517005334892122e-01 1.732479066704367909e+00
2.127922494301545953e-01 1.860641687815530076e+00
2.138327983268199783e-01 1.752251763530534134e+00
2.148733472234853614e-01 1.546466106846459354e+00
2.159138961201507445e-01 1.203006835036841693e+00
2.169544450168161276e-01 1.095085500001001577e+00
2.179949939134815107e-01 8.749033095485891920e-01
2.190355428101468938e-01 6.868181465931257890e-01
2.200760917068122768e-01 8.937976050093716651e-01
2.211166406034776599e-01 9.876145613977875826e-01
2.221571895001430430e-01 1.165737329531715716e+00
2.231977383968084261e-01 9.828127049902306567e-01
2.242382872934738092e-01 6.090510910847548587e-01
2.252788361901391923e-01 6.611051549745212697e-01
2.263193850868045753e-01 5.252256918363933380e-01
2.273599339834699584e-01 6.279702312810613307e-01
2.284004828801353415e-01 8.468943425430275340e-01
2.294410317768007246e-01 7.429422204515923056e-01
2.304815806734661077e-01 7.467683056535960873e-01
2.315221295701314908e-01 1.042660966214636886e+00
2.325626784667968738e-01 9.676403485592999232e-01
2.336032273634622569e-01 8.562998963879842051e-01
2.346437762601276400e-01 9.457125798209631284e-01
2.356843251567930231e-01 9.487893304727954558e-01
2.367248740534584062e-01 1.102573671394221577e+00
2.377654229501237892e-01 1.261165255829485687e+00
2.388059718467891723e-01 1.054328513200296413e+00
2.398465207434545554e-01 1.292225125414418585e+00
2.408870696401199385e-01 1.339596818646267451e+00
2.419276185367853216e-01 1.363470155831901565e+00
2.429681674334507047e-01 1.437144274407653910e+00
2.440087163301160877e-01 1.569091499100494502e+00
2.450492652267814708e-01 1.744017794400544830e+00
2.460898141234468539e-01 1.585964156231021605e+00
2.471303630201122370e-01 1.835446068955675969e+00
2.481709119167776201e-01 1.929758402646815085e+00
2.492114608134430032e-01 1.842897520621729512e+00
2.502520097101083585e-01 1.739279697313961037e+00
2.512925586067737416e-01 1.959177966684222838e+00
2.523331075034391247e-01 2.087240707687342933e+00
2.533736564001045077e-01 2.000071282128395467e+00
2.544142052967698908e-01 2.272693624949674529e+00
2.554547541934352739e-01 2.266467191706048823e+00
2.564953030901006570e-01 2.171389365459891252e+00
2.575358519867660401e-01 2.031431243972768641e+00
2.585764008834314231e-01 2.299218839203337694e+00
2.596169497800968062e-01 2.354934052018737844e+00
2.606574986767621893e-01 2.178622485983883195e+00
2.616980475734275724e-01 2.385716188532391868e+00
2.627385964700929555e-01 2.447614182047974651e+00
2.637791453667583386e-01 2.274819472611902427e+00
2.648196942634237216e-01 2.016728777305225151e+00
2.658602431600891047e-01 2.068069420299032402e+00
2.669007920567544878e-01 2.344179010479454206e+00
2.679413409534198709e-01 2.501618670463837901e+00
2.689818898500852540e-01 2.521845106621416477e+00
2.700224387467506371e-01 2.270502933481772345e+00
2.710629876434160201e-01 2.133554553889720040e+00
2.721035365400814032e-01 2.244244774984025526e+00
2.731440854367467863e-01 2.245347302766020903e+00
2.741846343334121694e-01 2.463845761385204725e+00
2.752251832300775525e-01 2.344009390067860465e+00
2.762657321267429356e-01 2.495919499553014731e+00
2.773062810234083186e-01 2.391929995605750037e+00
2.783468299200737017e-01 2.365896099799368102e+00
2.793873788167390848e-01 2.182590092946476545e+00
2.804279277134044679e-01 2.159932685756889015e+00
2.814684766100698510e-01 2.228751365520547978e+00
2.825090255067352341e-01 2.174031259361505874e+00
2.835495744034006171e-01 2.117221687204587255e+00
2.845901233000660002e-01 1.874628922308492207e+00
2.856306721967313833e-01 2.136685923819182875e+00
2.866712210933967664e-01 2.246433994454083205e+00
2.877117699900621495e-01 1.924023890185598162e+00
2.887523188867275326e-01 1.703064512114600859e+00
2.897928677833929156e-01 1.585986306011186286e+00
2.908334166800582987e-01 1.605458331962342555e+00
2.918739655767236818e-01 1.638223212334946055e+00
2.929145144733890649e-01 1.616564411592470663e+00
2.939550633700544480e-01 1.397851334645839216e+00
2.949956122667198311e-01 1.414592577672269869e+00
2.960361611633852141e-01 1.315004347928951489e+00
2.970767100600505972e-01 1.254944478546025977e+00
2.981172589567159803e-01 1.348443458907940595e+00
2.991578078533813634e-01 1.436808465061421458e+00
3.001983567500468020e-01 1.227740603563432842e+00
3.012389056467121851e-01 1.056994812591067756e+00
3.022794545433775681e-01 8.601136468549661629e-01
3.033200034400429512e-01 8.564704047899986961e-01
3.043605523367083343e-01 8.484528746422981271e-01
3.054011012333737174e-01 9.962138079932465473e-01
3.064416501300391005e-01 8.834595784051124667e-01
3.074821990267044836e-01 8.952531377342261010e-01
3.085227479233698666e-01 8.792379272634036624e-01
3.095632968200352497e-01 7.214887647593783981e-01
3.106038457167006328e-01 6.527999985146273332e-01
3.116443946133660159e-01 6.231750141662502074e-01
3.126849435100313990e-01 4.801594903055743657e-01
3.137254924066967821e-01 5.455949994877258291e-01
3.147660413033621651e-01 6.324000040688027013e-01
3.158065902000275482e-01 7.175462760579520705e-01
3.168471390966929313e-01 8.054378081536697209e-01
3.178876879933583144e-01 9.225261221187572858e-01
3.189282368900236975e-01 8.921994064729936724e-01
3.199687857866890806e-01 7.294111287225071294e-01
3.210093346833544636e-01 6.786330383046710324e-01
3.220498835800198467e-01 4.591863898835413238e-01
3.230904324766852298e-01 5.044394806851926205e-01
3.241309813733506129e-01 5.700966997194960584e-01
3.251715302700159960e-01 7.416913695205522572e-01
3.262120791666813790e-01 5.661853030614025784e-01
3.272526280633467621e-01 6.294577699102212875e-01
3.282931769600121452e-01 8.232443012078398681e-01
3.293337258566775283e-01 7.558759449718799317e-01
3.303742747533429114e-01 6.834756885280874883e-01
3.314148236500082945e-01 8.731305816843537571e-01
3.324553725466736775e-01 9.974109521707283932e-01
3.334959214433390606e-01 7.094382214947394516e-01
3.345364703400044437e-01 6.397474942135481513e-01
3.355770192366698268e-01 7.008472135339935960e-01
3.366175681333352099e-01 6.829058274596491174e-01
3.376581170300005930e-01 5.270715594450656738e-01
3.386986659266659760e-01 6.566776447014781581e-01
3.397392148233313591e-01 7.012768395628761198e-01
3.407797637199967422e-01 4.981849932018924676e-01
3.418203126166621253e-01 4.531144800927968674e-01
3.428608615133275084e-01 7.133341327858602199e-01
3.439014104099928915e-01 8.936657732078927552e-01
3.449419593066582745e-01 8.749799170387042579e-01
3.459825082033236576e-01 7.398000710470675756e-01
3.470230570999890407e-01 7.869768739360907261e-01
3.480636059966544238e-01 7.330573922444756363e-01
3.491041548933198069e-01 7.062443737251058451e-01
3.501447037899851900e-01 8.986438011728381525e-01
3.511852526866505730e-01 1.054508571632908343e+00
3.522258015833159561e-01 7.687103617062263083e-01
3.532663504799813392e-01 7.803399892249522907e-01
3.543068993766467223e-01 9.778709683589994484e-01
3.553474482733121054e-01 9.546716550624658737e-01
3.563879971699774885e-01 8.492757470769305428e-01
3.574285460666428715e-01 1.060174543100398381e+00
3.584690949633082546e-01 9.942804725264160481e-01
3.595096438599736377e-01 9.959618677759891625e-01
3.605501927566390208e-01 9.489229337754281346e-01
3.615907416533044039e-01 8.417453047931005017e-01
3.626312905499697870e-01 9.324052767619015469e-01
3.636718394466351700e-01 1.031241408713363228e+00
3.647123883433005531e-01 8.803454967695145683e-01
3.657529372399659362e-01 8.433884884087028411e-01
3.667934861366313193e-01 1.065159625129563636e+00
3.678340350332967024e-01 1.120501167289255307e+00
3.688745839299620854e-01 1.078006169375893109e+00
3.699151328266274685e-01 1.195834693232690427e+00
3.709556817232928516e-01 1.119712640144349791e+00
3.719962306199582347e-01 1.178898157245136247e+00
3.730367795166236178e-01 1.023185296936109268e+00
3.740773284132890009e-01 8.942534840302300836e-01
3.751178773099543839e-01 6.966238989535327164e-01
3.761584262066197670e-01 7.278710873253189106e-01
3.771989751032851501e-01 8.458475581687956435e-01
3.782395239999505332e-01 7.399406132138146575e-01
3.792800728966159163e-01 6.287718327757652048e-01
3.803206217932812994e-01 7.542088324798292831e-01
3.813611706899466824e-01 8.124105293883445711e-01
3.824017195866120655e-01 8.233754844595182476e-01
3.834422684832774486e-01 8.204516169349957977e-01
3.844828173799428317e-01 8.005804823514353075e-01
3.855233662766082148e-01 8.349929853849182848e-01
3.865639151732735979e-01 8.222218827858434054e-01
3.876044640699389809e-01 7.162634272685437509e-01
3.886450129666043640e-01 6.511079331448996754e-01
3.896855618632697471e-01 6.522172266059342860e-01
3.907261107599351302e-01 7.293508225607787665e-01
3.917666596566005133e-01 6.037116281521974770e-01
3.928072085532658964e-01 7.896563535463485550e-01
3.938477574499312794e-01 6.685133181075855191e-01
3.948883063465966625e-01 7.145823712905929881e-01
3.959288552432620456e-01 6.482765968195494111e-01
3.969694041399274287e-01 6.677894250010112387e-01
3.980099530365928118e-01 5.712414255554882914e-01
3.990505019332581949e-01 4.200433784410186888e-01
4.000910508299235779e-01 3.912518663969635213e-01
4.011315997265889610e-01 4.923665127438816569e-01
4.021721486232543441e-01 6.809389107104628636e-01
4.032126975199197272e-01 5.580646532910265023e-01
4.042532464165851103e-01 4.388555717238311615e-01
4.052937953132504934e-01 3.048681343993138171e-01
4.063343442099158764e-01 4.103906103077719081e-01
4.073748931065812595e-01 5.407116013011048494e-01
4.084154420032466426e-01 4.826956807821858320e-01
4.094559908999120257e-01 5.449875824309806660e-01
4.104965397965774088e-01 5.731586630070246713e-01
4.115370886932427918e-01 2.482931965998957935e-01
4.125776375899081749e-01 1.131537868208525310e-01
4.136181864865735580e-01 4.952479102438047676e-01
4.146587353832389411e-01 6.129688148210696852e-01
4.156992842799043242e-01 4.479323848536225228e-01
4.167398331765697073e-01 6.839080176941152445e-01
4.177803820732350903e-01 6.196055937906201905e-01
4.188209309699004734e-01 4.549569167067453179e-01
4.198614798665658565e-01 5.867231369863645796e-01
4.209020287632312396e-01 4.953607612822672479e-01
4.219425776598966227e-01 3.261550494498308694e-01
4.229831265565620058e-01 4.138343898082794681e-01
4.240236754532273888e-01 4.851664654860599057e-01
4.250642243498927719e-01 4.225930548203038484e-01
4.261047732465581550e-01 4.551257775814967488e-01
4.271453221432235381e-01 3.454513957366280863e-01
4.281858710398889212e-01 4.711473664756766766e-01
4.292264199365543043e-01 5.275386352998800987e-01
4.302669688332196873e-01 5.498434283841824310e-01
4.313075177298850704e-01 6.228448709052507581e-01
4.323480666265504535e-01 6.675093007915045007e-01
4.333886155232158366e-01 6.373363575676798121e-01
4.344291644198812197e-01 5.476773430736123771e-01
