# q (1/Angstrom), Intensity (arb)
2.029070354705860696e-02 1.596731721710983493e+03
2.133125244372399004e-02 1.591725850418021082e+03
2.237180134038937659e-02 1.585030010853133263e+03
2.341235023705475968e-02 1.574705656206663662e+03
2.445289913372014276e-02 1.556274344120667820e+03
2.549344803038552584e-02 1.541869946504154768e+03
2.653399692705091240e-02 1.523402422363696360e+03
2.757454582371629548e-02 1.505951909810119560e+03
2.861509472038167856e-02 1.486504147638841005e+03
2.965564361704706164e-02 1.469839216468986479e+03
3.069619251371244473e-02 1.450043012144436943e+03
3.173674141037782781e-02 1.430473948218258556e+03
3.277729030704321089e-02 1.410307883232367885e+03
3.381783920370859398e-02 1.388729145411836043e+03
3.485838810037397706e-02 1.368580655702758804e+03
3.589893699703936014e-02 1.341819394308697383e+03
3.693948589370474322e-02 1.318955993488997592e+03
3.798003479037012631e-02 1.293621724017726592e+03
3.902058368703550939e-02 1.270969342723225964e+03
4.006113258370089247e-02 1.250064183263338464e+03
4.110168148036627556e-02 1.225151176576443049e+03
4.214223037703165864e-02 1.199939363431818265e+03
4.318277927369704866e-02 1.174692756948172018e+03
4.422332817036243174e-02 1.146004048022110965e+03
4.526387706702781483e-02 1.122779940185111172e+03
4.630442596369319791e-02 1.099319428669114359e+03
4.734497486035858099e-02 1.066949686951532613e+03
4.838552375702396408e-02 1.038762595948949183e+03
4.942607265368934716e-02 1.016888104541252801e+03
5.046662155035473024e-02 9.915396711260608527e+02
5.150717044702011332e-02 9.640108156084332904e+02
5.254771934368549641e-02 9.377539675703726516e+02
5.358826824035087949e-02 9.145903330234774558e+02
5.462881713701626257e-02 8.874362363464827013e+02
5.566936603368164566e-02 8.602498099792286439e+02
5.670991493034702874e-02 8.320397517937511793e+02
5.775046382701241182e-02 8.077468746295330675e+02
5.879101272367779490e-02 7.854459037669614645e+02
5.983156162034317799e-02 7.597458957976017473e+02
6.087211051700856107e-02 7.326497232074012800e+02
6.191265941367394415e-02 7.091897261214330683e+02
6.295320831033933417e-02 6.853724786556783783e+02
6.399375720700471726e-02 6.632626738954458006e+02
6.503430610367010034e-02 6.391110677392009620e+02
6.607485500033548342e-02 6.159829027852308627e+02
6.711540389700086651e-02 5.909856585062771046e+02
6.815595279366624959e-02 5.665180698229137306e+02
6.919650169033163267e-02 5.461657096649827281e+02
7.023705058699701576e-02 5.235308253370455986e+02
7.127759948366239884e-02 5.012864725715284635e+02
7.231814838032778192e-02 4.822419136709888221e+02
7.335869727699316500e-02 4.622833338256735942e+02
7.439924617365854809e-02 4.405565982886129177e+02
7.543979507032393117e-02 4.195998917567166018e+02
7.648034396698931425e-02 4.002160791324598108e+02
7.752089286365469734e-02 3.795455078527780302e+02
7.856144176032008042e-02 3.632800033512594950e+02
7.960199065698546350e-02 3.461692802155061486e+02
8.064253955365084658e-02 3.291705473747584847e+02
8.168308845031622967e-02 3.118344998233641263e+02
8.272363734698161275e-02 2.948278929293433066e+02
8.376418624364699583e-02 2.793124204938172852e+02
8.480473514031239279e-02 2.652496672229372052e+02
8.584528403697777588e-02 2.501092289628239200e+02
8.688583293364315896e-02 2.364059607122530622e+02
8.792638183030854204e-02 2.223113832532756931e+02
8.896693072697392513e-02 2.098231538737076960e+02
9.000747962363930821e-02 1.958571445525502952e+02
9.104802852030469129e-02 1.839297472766123178e+02
9.208857741697007437e-02 1.721535952839902279e+02
9.312912631363545746e-02 1.602609963199785170e+02
9.416967521030084054e-02 1.493176328240892303e+02
9.521022410696622362e-02 1.392148252301681168e+02
9.625077300363160671e-02 1.298700059352468941e+02
9.729132190029698979e-02 1.203713958980826249e+02
9.833187079696237287e-02 1.108898444043434068e+02
9.937241969362775595e-02 1.030884400015564069e+02
1.004129685902931390e-01 9.570849967969503780e+01
1.014535174869585221e-01 8.747197503117293138e+01
1.024940663836239052e-01 8.020569043135435550e+01
1.035346152802892883e-01 7.354870992568048393e+01
1.045751641769546714e-01 6.730859367767001800e+01
1.056157130736200545e-01 6.102490416951058450e+01
1.066562619702854375e-01 5.528845927036378782e+01
1.076968108669508206e-01 4.929401952785193686e+01
1.087373597636162037e-01 4.424947571405152047e+01
1.097779086602815868e-01 4.006394501257695850e+01
1.108184575569469699e-01 3.568184093557491110e+01
1.118590064536123529e-01 3.254527650093278623e+01
1.128995553502777360e-01 2.918695872822039306e+01
1.139401042469431191e-01 2.555913310065616528e+01
1.149806531436085022e-01 2.211736636708315373e+01
1.160212020402738853e-01 1.911170003744929247e+01
1.170617509369392684e-01 1.620992046134482933e+01
1.181022998336046514e-01 1.447185921073642589e+01
1.191428487302700345e-01 1.278683608370222302e+01
1.201833976269354176e-01 1.103091271270611884e+01
1.212239465236008007e-01 9.028986747509815558e+00
1.222644954202661838e-01 7.191001011723976433e+00
1.233050443169315669e-01 6.261184310296354028e+00
1.243455932135969499e-01 4.951725213565033812e+00
1.253861421102623330e-01 3.841963443873385842e+00
1.264266910069277161e-01 3.760020639692299937e+00
1.274672399035930992e-01 3.105423664922462024e+00
1.285077888002584823e-01 2.498055368262249942e+00
1.295483376969238654e-01 2.111651680322719216e+00
1.305888865935892484e-01 2.139369228356784447e+00
1.316294354902546315e-01 1.742214512593179165e+00
1.326699843869200146e-01 1.980620539051752615e+00
1.337105332835853977e-01 2.311101260528623413e+00
1.347510821802507808e-01 1.920903597870776025e+00
1.357916310769161639e-01 1.905670093016794908e+00
1.368321799735815469e-01 2.767287917497363026e+00
1.378727288702469300e-01 3.041099779059905472e+00
1.389132777669123131e-01 3.390573009813333982e+00
1.399538266635776962e-01 3.869879758470755604e+00
1.409943755602430793e-01 4.152753335849968863e+00
1.420349244569084624e-01 4.516446217957138742e+00
1.430754733535738454e-01 4.906758188562218237e+00
1.441160222502392285e-01 5.732480975790576139e+00
1.451565711469046116e-01 6.157378161701487329e+00
1.461971200435699947e-01 6.997049443260028312e+00
1.472376689402353778e-01 7.593069340675810963e+00
1.482782178369007609e-01 7.988168952221290198e+00
1.493187667335661439e-01 8.109189814605638702e+00
1.503593156302315270e-01 8.449760074041549274e+00
1.513998645268969101e-01 9.008511237730022714e+00
1.524404134235622932e-01 9.451173101130343923e+00
1.534809623202276763e-01 1.024571361927159074e+01
1.545215112168930593e-01 1.051511219818782550e+01
1.555620601135584424e-01 1.088199914400808410e+01
1.566026090102238255e-01 1.134874829287164744e+01
1.576431579068892086e-01 1.175014503152980794e+01
1.586837068035545917e-01 1.182800909086945751e+01
1.597242557002199748e-01 1.215661556691881273e+01
1.607648045968853578e-01 1.265728571968932314e+01
1.618053534935507409e-01 1.291836809571691447e+01
1.628459023902161240e-01 1.336688065901285327e+01
1.638864512868815071e-01 1.353117718490729970e+01
1.649270001835468902e-01 1.324312604364337531e+01
1.659675490802122733e-01 1.330995475985619692e+01
1.670080979768776563e-01 1.347916594571058369e+01
1.680486468735430672e-01 1.331234996575359730e+01
1.690891957702084503e-01 1.326379080319306425e+01
1.701297446668738333e-01 1.332730003291682408e+01
1.711702935635392164e-01 1.326049553249686852e+01
1.722108424602045995e-01 1.328545604208203557e+01
1.732513913568699826e-01 1.290325644382897963e+01
1.742919402535353657e-01 1.276140474468012087e+01
1.753324891502007488e-01 1.281648928831278056e+01
1.763730380468661318e-01 1.282486911673761654e+01
1.774135869435315149e-01 1.236605270937937817e+01
1.784541358401968980e-01 1.194232074366327723e+01
1.794946847368622811e-01 1.164601102009804379e+01
1.805352336335276642e-01 1.145968218594955346e+01
1.815757825301930473e-01 1.137836243591381091e+01
1.826163314268584303e-01 1.105954773735168573e+01
1.836568803235238134e-01 1.040307952578081796e+01
1.846974292201891965e-01 1.030652831932707869e+01
1.857379781168545796e-01 1.004051293380338095e+01
1.867785270135199627e-01 9.604984536584769472e+00
1.878190759101853458e-01 9.304894894395086880e+00
1.888596248068507288e-01 8.988525244900440470e+00
1.899001737035161119e-01 8.290356831340503163e+00
1.909407226001814950e-01 8.223522451295185220e+00
1.919812714968468781e-01 7.831878925483405141e+00
1.930218203935122612e-01 7.533647713013639446e+00
1.940623692901776443e-01 7.035144543791727045e+00
1.951029181868430273e-01 6.438131604734110169e+00
1.961434670835084104e-01 6.191294659086771901e+00
1.971840159801737935e-01 6.093403101384957665e+00
1.982245648768391766e-01 5.463632648174407080e+00
1.992651137735045597e-01 5.169989435725650395e+00
2.003056626701699428e-01 4.876058404124105294e+00
2.013462115668353813e-01 4.452316218067714715e+00
2.023867604635007644e-01 4.157805942528000287e+00
2.034273093601661475e-01 3.797879152426443028e+00
2.044678582568315306e-01 3.614968234240528488e+00
2.055084071534969137e-01 3.470432619805393415e+00
2.065489560501622968e-01 3.084746245064458492e+00
2.075895049468276798e-01 2.639597753227427290e+00
2.086300538434930629e-01 2.474880159476981589e+00
2.096706027401584460e-01 2.702317440612901578e+00
2.107111516368238291e-01 2.518979273417471632e+00
2.117517005334892122e-01 2.187130394268898215e+00
2.127922494301545953e-01 2.042914785793449539e+00
2.138327983268199783e-01 1.699534163011076515e+00
2.148733472234853614e-01 1.674642215553092228e+00
2.159138961201507445e-01 1.666933223458283209e+00
2.169544450168161276e-01 1.382861191660790467e+00
2.179949939134815107e-01 1.253414800380486582e+00
2.190355428101468938e-01 9.732425566862197286e-01
2.200760917068122768e-01 8.815701422695170208e-01
2.211166406034776599e-01 9.765016369541186236e-01
2.221571895001430430e-01 7.894567771859755112e-01
2.231977383968084261e-01 8.559146384494304982e-01
2.242382872934738092e-01 6.919349050011938118e-01
2.252788361901391923e-01 9.092220420679915094e-01
2.263193850868045753e-01 6.920032648916887297e-01
2.273599339834699584e-01 6.065033325103073025e-01
2.284004828801353415e-01 7.541370008615047027e-01
2.294410317768007246e-01 7.174404656521211621e-01
2.304815806734661077e-01 6.845987734557539284e-01
2.315221295701314908e-01 8.347489795325557793e-01
2.325626784667968738e-01 8.164943526480463731e-01
2.336032273634622569e-01 1.050421733805787738e+00
2.346437762601276400e-01 1.094471060562305809e+00
2.356843251567930231e-01 1.230912789081436642e+00
2.367248740534584062e-01 1.538236084382539559e+00
2.377654229501237892e-01 1.610203761813789214e+00
2.388059718467891723e-01 1.139804381951648793e+00
2.398465207434545554e-01 1.254483984763680837e+00
2.408870696401199385e-01 1.333684629922366582e+00
2.419276185367853216e-01 1.392789498873785448e+00
2.429681674334507047e-01 1.464436790384798570e+00
2.440087163301160877e-01 1.666043775261154991e+00
2.450492652267814708e-01 1.597813588686385344e+00
2.460898141234468539e-01 1.697041360248285002e+00
2.471303630201122370e-01 1.748182430589839242e+00
2.481709119167776201e-01 2.197241456733749487e+00
2.492114608134430032e-01 2.340171145865596714e+00
2.502520097101083585e-01 2.195528068946970279e+00
2.512925586067737416e-01 2.232353228917922650e+00
2.523331075034391247e-01 2.184203358137914108e+00
2.533736564001045077e-01 2.275895424180966131e+00
2.544142052967698908e-01 2.270070056996218000e+00
2.554547541934352739e-01 2.226770771866448229e+00
2.564953030901006570e-01 2.065930068094552041e+00
2.575358519867660401e-01 2.348324626325577924e+00
2.585764008834314231e-01 2.344392586061179173e+00
2.596169497800968062e-01 2.433866260875277021e+00
2.606574986767621893e-01 2.194053959643554208e+00
2.616980475734275724e-01 2.213835898780878608e+00
2.627385964700929555e-01 2.389285282572785718e+00
2.637791453667583386e-01 2.568062089353908561e+00
2.648196942634237216e-01 2.474579903997895514e+00
2.658602431600891047e-01 2.343561973946176380e+00
2.669007920567544878e-01 2.423065054859034007e+00
2.679413409534198709e-01 2.618709317484640309e+00
2.689818898500852540e-01 2.747354046471684796e+00
2.700224387467506371e-01 2.532761118664787148e+00
2.710629876434160201e-01 2.494531801550124328e+00
2.721035365400814032e-01 2.552278846110439758e+00
2.731440854367467863e-01 2.407751651953446981e+00
2.741846343334121694e-01 2.258301044208117503e+00
2.752251832300775525e-01 2.317733946276884893e+00
2.762657321267429356e-01 2.370631889543915349e+00
2.773062810234083186e-01 2.490627159747301533e+00
2.783468299200737017e-01 2.546618852828579804e+00
2.793873788167390848e-01 2.415956703921825266e+00
2.804279277134044679e-01 2.212764513090814233e+00
2.814684766100698510e-01 1.703304502138681897e+00
2.825090255067352341e-01 1.783022093143454612e+00
2.835495744034006171e-01 1.811096648354158845e+00
2.845901233000660002e-01 1.713222038159862848e+00
2.856306721967313833e-01 1.696207743904160736e+00
2.866712210933967664e-01 1.723282386154959767e+00
2.877117699900621495e-01 1.681930036832461894e+00
2.887523188867275326e-01 1.578577564433476965e+00
2.897928677833929156e-01 1.384225384239663015e+00
2.908334166800582987e-01 1.349749100109043809e+00
2.918739655767236818e-01 1.237104699988119449e+00
2.929145144733890649e-01 1.289918782846591228e+00
2.939550633700544480e-01 1.349763325802534553e+00
2.949956122667198311e-01 1.390304758060533885e+00
2.960361611633852141e-01 1.041218715533112515e+00
2.970767100600505972e-01 9.096677281275589166e-01
2.981172589567159803e-01 9.488574946351384654e-01
2.991578078533813634e-01 8.856778033367902481e-01
3.001983567500468020e-01 7.012319414463021872e-01
3.012389056467121851e-01 8.766845309855710866e-01
3.022794545433775681e-01 1.033755191126928707e+00
3.033200034400429512e-01 9.949892500122956562e-01
3.043605523367083343e-01 8.699765670968382381e-01
3.054011012333737174e-01 6.767407685208830515e-01
3.064416501300391005e-01 6.199351169365705516e-01
3.074821990267044836e-01 6.734813433296089613e-01
3.085227479233698666e-01 7.490494189910528178e-01
3.095632968200352497e-01 6.658876429417830423e-01
3.106038457167006328e-01 6.189067457268109251e-01
3.116443946133660159e-01 7.709364333840440509e-01
3.126849435100313990e-01 5.283850781707677413e-01
3.137254924066967821e-01 4.738537761218708511e-01
3.147660413033621651e-01 6.461044932979120858e-01
3.158065902000275482e-01 5.388146158635436223e-01
3.168471390966929313e-01 5.290231916616043861e-01
3.178876879933583144e-01 4.230196447893384004e-01
3.189282368900236975e-01 4.164094037861012509e-01
3.199687857866890806e-01 6.090600899093558951e-01
3.210093346833544636e-01 3.587246067757305923e-01
3.220498835800198467e-01 1.903477009248355500e-01
3.230904324766852298e-01 3.496831978005516817e-01
3.241309813733506129e-01 5.624023711336754161e-01
3.251715302700159960e-01 7.060510943263267336e-01
3.262120791666813790e-01 6.074855324575416660e-01
3.272526280633467621e-01 6.128807963762099575e-01
3.282931769600121452e-01 7.880066409276267336e-01
3.293337258566775283e-01 6.928952798793410750e-01
3.303742747533429114e-01 7.301183467085401446e-01
3.314148236500082945e-01 5.465631571847815451e-01
3.324553725466736775e-01 7.259983329297234889e-01
3.334959214433390606e-01 7.585213400305477194e-01
3.345364703400044437e-01 5.151032228673990687e-01
3.355770192366698268e-01 5.746951864918408148e-01
3.366175681333352099e-01 6.533187896346532852e-01
3.376581170300005930e-01 9.842151462693671249e-01
3.386986659266659760e-01 9.071109279971842909e-01
3.397392148233313591e-01 7.359499988369790913e-01
3.407797637199967422e-01 7.865748523635289757e-01
3.418203126166621253e-01 4.936446353435854917e-01
3.428608615133275084e-01 5.914131920909078133e-01
3.439014104099928915e-01 7.507903403649471841e-01
3.449419593066582745e-01 9.642811245613991389e-01
3.459825082033236576e-01 1.058967499396519685e+00
3.470230570999890407e-01 9.935539009388563159e-01
3.480636059966544238e-01 7.042505004551671277e-01
3.491041548933198069e-01 6.390662608739212658e-01
3.501447037899851900e-01 8.156008968949493010e-01
3.511852526866505730e-01 7.902397492894976949e-01
3.522258015833159561e-01 8.397670647990160830e-01
3.532663504799813392e-01 9.271672249923987863e-01
3.543068993766467223e-01 1.014158705443719555e+00
3.553474482733121054e-01 1.285627396112428045e+00
3.563879971699774885e-01 1.218632593544459297e+00
3.574285460666428715e-01 1.059578801328363795e+00
3.584690949633082546e-01 1.172903275831643555e+00
3.595096438599736377e-01 1.026828711730399135e+00
3.605501927566390208e-01 9.057908784497143984e-01
3.615907416533044039e-01 9.027562265816868603e-01
3.626312905499697870e-01 8.732775799342284984e-01
3.636718394466351700e-01 9.517534412872485916e-01
3.647123883433005531e-01 8.875678132838196177e-01
3.657529372399659362e-01 9.895965616968602774e-01
3.667934861366313193e-01 1.005870659888969953e+00
3.678340350332967024e-01 9.883846867722567708e-01
3.688745839299620854e-01 9.916628239176787929e-01
3.699151328266274685e-01 8.740550270778442155e-01
3.709556817232928516e-01 9.619200412418464907e-01
3.719962306199582347e-01 9.931685375505701074e-01
3.730367795166236178e-01 1.101520715203029965e+00
3.740773284132890009e-01 1.201505622444560828e+00
3.751178773099543839e-01 7.902344753488179663e-01
3.761584262066197670e-01 7.509479753867758234e-01
3.771989751032851501e-01 7.471923893499443636e-01
3.782395239999505332e-01 8.271626221220067521e-01
3.792800728966159163e-01 6.501831934134862934e-01
3.803206217932812994e-01 8.378026753781959712e-01
3.813611706899466824e-01 8.527551018497092628e-01
3.824017195866120655e-01 8.688879095743047287e-01
3.834422684832774486e-01 8.410576597553145461e-01
3.844828173799428317e-01 7.768799418144496371e-01
3.855233662766082148e-01 6.847143356563840655e-01
3.865639151732735979e-01 5.928906959529847143e-01
3.876044640699389809e-01 6.274273916707784338e-01
3.886450129666043640e-01 8.259855263340796228e-01
3.896855618632697471e-01 6.060095326296135454e-01
3.907261107599351302e-01 6.998978454832958107e-01
3.917666596566005133e-01 8.235910294700410361e-01
3.928072085532658964e-01 6.997186455372101932e-01
3.938477574499312794e-01 6.594875597991354255e-01
3.948883063465966625e-01 5.221261008614703769e-01
3.959288552432620456e-01 6.389941072797924448e-01
3.969694041399274287e-01 7.641379495610642891e-01
3.980099530365928118e-01 6.897501732899193883e-01
3.990505019332581949e-01 5.700291776600074911e-01
4.000910508299235779e-01 5.804891368545135322e-01
4.011315997265889610e-01 5.669787401660038029e-01
4.021721486232543441e-01 6.603665566317431512e-01
4.032126975199197272e-01 7.675877292571442467e-01
4.042532464165851103e-01 6.732238915746933117e-01
4.052937953132504934e-01 5.211720367633603246e-01
4.063343442099158764e-01 3.749916275161240264e-01
4.073748931065812595e-01 4.560771134274475003e-01
4.084154420032466426e-01 5.484658924978660366e-01
4.094559908999120257e-01 7.260310203763324921e-01
4.104965397965774088e-01 4.622030933356668925e-01
4.115370886932427918e-01 4.882566426685528427e-01
4.125776375899081749e-01 6.787235399868443153e-01
4.136181864865735580e-01 5.691796891168685590e-01
4.146587353832389411e-01 3.667017860414745201e-01
4.156992842799043242e-01 6.111827397804319162e-01
4.167398331765697073e-01 7.002364447326705488e-01
4.177803820732350903e-01 6.272317993837432937e-01
4.188209309699004734e-01 5.902519092098295062e-01
4.198614798665658565e-01 1.126431257892910764e+00
4.209020287632312396e-01 6.966851105021554247e-01
4.219425776598966227e-01 3.123412159889085160e-01
4.229831265565620058e-01 3.430147844121620437e-01
4.240236754532273888e-01 6.469559792116008623e-01
4.250642243498927719e-01 6.392770240703704587e-01
4.261047732465581550e-01 3.853319900634559758e-01
4.271453221432235381e-01 7.034902890329952641e-01
4.281858710398889212e-01 7.191913760062895733e-01
4.292264199365543043e-01 5.267385724500712740e-01
4.302669688332196873e-01 3.744012110362184842e-01
4.313075177298850704e-01 5.371991343524840090e-01
4.323480666265504535e-01 5.455146603466083377e-01
4.333886155232158366e-01 5.975502994546779689e-01
4.344291644198812197e-01 5.307311813044321980e-01
