# q (1/Angstrom), Intensity (arb)
2.029070354705860696e-02 4.587114892965139461e+02
2.133125244372399004e-02 4.580578784397338268e+02
2.237180134038937659e-02 4.560278970453940701e+02
2.341235023705475968e-02 4.495340916918933090e+02
2.445289913372014276e-02 4.405514453042281957e+02
2.549344803038552584e-02 4.364027078670458764e+02
2.653399692705091240e-02 4.346312865452506458e+02
2.757454582371629548e-02 4.291550445954135284e+02
2.861509472038167856e-02 4.246872621978716893e+02
2.965564361704706164e-02 4.200471312932485830e+02
3.069619251371244473e-02 4.157361532785168379e+02
3.173674141037782781e-02 4.125384350759087511e+02
3.277729030704321089e-02 4.056617376756583440e+02
3.381783920370859398e-02 3.965943354191624621e+02
3.485838810037397706e-02 3.928749378021180974e+02
3.589893699703936014e-02 3.876621039873304539e+02
3.693948589370474322e-02 3.823751790383386151e+02
3.798003479037012631e-02 3.766216240283084744e+02
3.902058368703550939e-02 3.689336928378320977e+02
4.006113258370089247e-02 3.636803345539017869e+02
4.110168148036627556e-02 3.542996831005671652e+02
4.214223037703165864e-02 3.480623036190472135e+02
4.318277927369704866e-02 3.399606632029833122e+02
4.422332817036243174e-02 3.337657570743236874e+02
4.526387706702781483e-02 3.254523940664468000e+02
4.630442596369319791e-02 3.177185944107693558e+02
4.734497486035858099e-02 3.117674914980721042e+02
4.838552375702396408e-02 3.041806567014140228e+02
4.942607265368934716e-02 2.965774387030310777e+02
5.046662155035473024e-02 2.911904078162264113e+02
5.150717044702011332e-02 2.835560253826366193e+02
5.254771934368549641e-02 2.742199332995829764e+02
5.358826824035087949e-02 2.685190714341111970e+02
5.462881713701626257e-02 2.632932210131256738e+02
5.566936603368164566e-02 2.548529341471762564e+02
5.670991493034702874e-02 2.472445838759273897e+02
5.775046382701241182e-02 2.382344428099289075e+02
5.879101272367779490e-02 2.321122736072298096e+02
5.983156162034317799e-02 2.254832432831046845e+02
6.087211051700856107e-02 2.188416244641311721e+02
6.191265941367394415e-02 2.129287440918630807e+02
6.295320831033933417e-02 2.054342736258475668e+02
6.399375720700471726e-02 1.992587637625338743e+02
6.503430610367010034e-02 1.933841956040787409e+02
6.607485500033548342e-02 1.857526430349161615e+02
6.711540389700086651e-02 1.802209133207706770e+02
6.815595279366624959e-02 1.740736713934506099e+02
6.919650169033163267e-02 1.668938069196183847e+02
7.023705058699701576e-02 1.613213725202394926e+02
7.127759948366239884e-02 1.565014199278395495e+02
7.231814838032778192e-02 1.503208430996307641e+02
7.335869727699316500e-02 1.449607631694403835e+02
7.439924617365854809e-02 1.410167312710275951e+02
7.543979507032393117e-02 1.349133530383361403e+02
7.648034396698931425e-02 1.297508699453077270e+02
7.752089286365469734e-02 1.252856921268249977e+02
7.856144176032008042e-02 1.235234395193520811e+02
7.960199065698546350e-02 1.243969853446304796e+02
8.064253955365084658e-02 1.347448034287601786e+02
8.168308845031622967e-02 2.124841847362267799e+02
8.272363734698161275e-02 4.672924746832468372e+02
8.376418624364699583e-02 6.097237692995386169e+02
8.480473514031239279e-02 3.928774918659020727e+02
8.584528403697777588e-02 2.477226113638460845e+02
8.688583293364315896e-02 3.327105308565292034e+02
8.792638183030854204e-02 6.314856060035308474e+02
8.896693072697392513e-02 6.842849993346236488e+02
9.000747962363930821e-02 3.836620132428005832e+02
9.104802852030469129e-02 2.593491810853165020e+02
9.208857741697007437e-02 3.458717777947306331e+02
9.312912631363545746e-02 6.571578200649862538e+02
9.416967521030084054e-02 1.015149395157872277e+03
9.521022410696622362e-02 8.357859497086951706e+02
9.625077300363160671e-02 3.875001943126946458e+02
9.729132190029698979e-02 1.777344650106754500e+02
9.833187079696237287e-02 1.100622556457237238e+02
9.937241969362775595e-02 8.013617794108580483e+01
1.004129685902931390e-01 6.783574474822808043e+01
1.014535174869585221e-01 6.459292370102178893e+01
1.024940663836239052e-01 5.768895448033151752e+01
1.035346152802892883e-01 4.464072601671063012e+01
1.045751641769546714e-01 3.532278865768709863e+01
1.056157130736200545e-01 2.982534937493958793e+01
1.066562619702854375e-01 2.631280033897577297e+01
1.076968108669508206e-01 2.353525274183581928e+01
1.087373597636162037e-01 2.086196439793352653e+01
1.097779086602815868e-01 1.883779283354381917e+01
1.108184575569469699e-01 1.690941763388671504e+01
1.118590064536123529e-01 1.501018768537571191e+01
1.128995553502777360e-01 1.378598286915877935e+01
1.139401042469431191e-01 1.234942474390492251e+01
1.149806531436085022e-01 1.102680770121292397e+01
1.160212020402738853e-01 9.854893594248061106e+00
1.170617509369392684e-01 9.690025290715212236e+00
1.181022998336046514e-01 9.017515488196256257e+00
1.191428487302700345e-01 8.661525771311051614e+00
1.201833976269354176e-01 8.924686461850640740e+00
1.212239465236008007e-01 8.662858136672845433e+00
1.222644954202661838e-01 7.371749132037663799e+00
1.233050443169315669e-01 5.544402403659550060e+00
1.243455932135969499e-01 4.155268985930877790e+00
1.253861421102623330e-01 3.044982934472155733e+00
1.264266910069277161e-01 2.627952272810009759e+00
1.274672399035930992e-01 2.563920933060980900e+00
1.285077888002584823e-01 1.930514026335874433e+00
1.295483376969238654e-01 1.621890878997930940e+00
1.305888865935892484e-01 1.811997259959078121e+00
1.316294354902546315e-01 1.598379386414801928e+00
1.326699843869200146e-01 1.190643939743559088e+00
1.337105332835853977e-01 1.187766044524650511e+00
1.347510821802507808e-01 1.643713029301483886e+00
1.357916310769161639e-01 1.721561066956802222e+00
1.368321799735815469e-01 1.701768969278095511e+00
1.378727288702469300e-01 1.488121464071134881e+00
1.389132777669123131e-01 1.593453064743073355e+00
1.399538266635776962e-01 1.719286745015811135e+00
1.409943755602430793e-01 2.088998083398447392e+00
1.420349244569084624e-01 2.994219272354573746e+00
1.430754733535738454e-01 7.280997050953153860e+00
1.441160222502392285e-01 1.530545546224139386e+01
1.451565711469046116e-01 1.431656975889150374e+01
1.461971200435699947e-01 6.709088445429241432e+00
1.472376689402353778e-01 4.021218760139792181e+00
1.482782178369007609e-01 3.696910188749260584e+00
1.493187667335661439e-01 3.809722201554262000e+00
1.503593156302315270e-01 4.121073309259497108e+00
1.513998645268969101e-01 4.546378148811303532e+00
1.524404134235622932e-01 5.281514235921228817e+00
1.534809623202276763e-01 6.662990979899145572e+00
1.545215112168930593e-01 9.730624066225637137e+00
1.555620601135584424e-01 1.642578971149356093e+01
1.566026090102238255e-01 2.334427251736470410e+01
1.576431579068892086e-01 2.170036124886031104e+01
1.586837068035545917e-01 1.381402102057934300e+01
1.597242557002199748e-01 9.117832632599647269e+00
1.607648045968853578e-01 7.307257795346504992e+00
1.618053534935507409e-01 6.679478511558919251e+00
1.628459023902161240e-01 6.468684208031152849e+00
1.638864512868815071e-01 6.227401499864111400e+00
1.649270001835468902e-01 7.195852857983894069e+00
1.659675490802122733e-01 1.084910738315573653e+01
1.670080979768776563e-01 1.686383873569419833e+01
1.680486468735430672e-01 3.132387204997152352e+01
1.690891957702084503e-01 6.019093678086856869e+01
1.701297446668738333e-01 5.479589087840189165e+01
1.711702935635392164e-01 3.303361491013234286e+01
1.722108424602045995e-01 3.533166951154041868e+01
1.732513913568699826e-01 3.172104572515400633e+01
1.742919402535353657e-01 1.714049181308229564e+01
1.753324891502007488e-01 1.131719536396904502e+01
1.763730380468661318e-01 1.295737647682577887e+01
1.774135869435315149e-01 1.283787450298873267e+01
1.784541358401968980e-01 8.190411324805968007e+00
1.794946847368622811e-01 5.361989600178826976e+00
1.805352336335276642e-01 5.076263261616205114e+00
1.815757825301930473e-01 5.002621155179269863e+00
1.826163314268584303e-01 4.773564093135220787e+00
1.836568803235238134e-01 4.624802391431714454e+00
1.846974292201891965e-01 4.777145688792192146e+00
1.857379781168545796e-01 4.669855746164998322e+00
1.867785270135199627e-01 5.264990629742243300e+00
1.878190759101853458e-01 6.120879266827937926e+00
1.888596248068507288e-01 6.610240414213365057e+00
1.899001737035161119e-01 5.856811114331279100e+00
1.909407226001814950e-01 4.628336525424792569e+00
1.919812714968468781e-01 4.076609843447357662e+00
1.930218203935122612e-01 3.906760336519532473e+00
1.940623692901776443e-01 3.694612036679419731e+00
1.951029181868430273e-01 3.873142168620407944e+00
1.961434670835084104e-01 3.849579927438693261e+00
1.971840159801737935e-01 3.573773567000102958e+00
1.982245648768391766e-01 3.096332724391221092e+00
1.992651137735045597e-01 2.672976994868886180e+00
2.003056626701699428e-01 2.140916044080277914e+00
2.013462115668353813e-01 2.146966177393522912e+00
2.023867604635007644e-01 1.992831107772495614e+00
2.034273093601661475e-01 1.728298892099722650e+00
2.044678582568315306e-01 1.484858943806198539e+00
2.055084071534969137e-01 1.455554381943148456e+00
2.065489560501622968e-01 1.266464535646395717e+00
2.075895049468276798e-01 1.059887442869420937e+00
2.086300538434930629e-01 1.052788726463301572e+00
2.096706027401584460e-01 1.143341638797988224e+00
2.107111516368238291e-01 1.221477420915078937e+00
2.117517005334892122e-01 1.752629331208030550e+00
2.127922494301545953e-01 2.014415472071888757e+00
2.138327983268199783e-01 1.797726644112845662e+00
2.148733472234853614e-01 1.151084485325892359e+00
2.159138961201507445e-01 7.826753733706404148e-01
2.169544450168161276e-01 9.516869673160535115e-01
2.179949939134815107e-01 8.634075802168403868e-01
2.190355428101468938e-01 4.811834910406851407e-01
2.200760917068122768e-01 6.798503357931231506e-01
2.211166406034776599e-01 6.227167359656213819e-01
2.221571895001430430e-01 5.077012801428786304e-01
2.231977383968084261e-01 2.848536634332923256e-01
2.242382872934738092e-01 4.447036590185859950e-01
2.252788361901391923e-01 3.543237691258305233e-01
2.263193850868045753e-01 4.043875502647438225e-01
2.273599339834699584e-01 3.400192544517111060e-01
2.284004828801353415e-01 2.466471236387377530e-01
2.294410317768007246e-01 6.873542470199538457e-01
2.304815806734661077e-01 7.869047192473885843e-01
2.315221295701314908e-01 4.976165651836588211e-01
2.325626784667968738e-01 2.547032833517022254e-01
2.336032273634622569e-01 3.055259182528011763e-01
2.346437762601276400e-01 4.916174463313858212e-01
2.356843251567930231e-01 6.357470768191326727e-01
2.367248740534584062e-01 7.935896172820555705e-01
2.377654229501237892e-01 9.407860505703986576e-01
2.388059718467891723e-01 8.357023416645112945e-01
2.398465207434545554e-01 6.532793591568371028e-01
2.408870696401199385e-01 5.685351985041293688e-01
2.419276185367853216e-01 8.723499846626907583e-01
2.429681674334507047e-01 7.982874523053169469e-01
2.440087163301160877e-01 7.726549216890923333e-01
2.450492652267814708e-01 8.088083003666426407e-01
2.460898141234468539e-01 8.605388208885536017e-01
2.471303630201122370e-01 8.487723271018694504e-01
2.481709119167776201e-01 1.080775276468379786e+00
2.492114608134430032e-01 1.472503934441604656e+00
2.502520097101083585e-01 2.035522077787526030e+00
2.512925586067737416e-01 1.645158111230006881e+00
2.523331075034391247e-01 1.238376045665113168e+00
2.533736564001045077e-01 1.186572521318105089e+00
2.544142052967698908e-01 1.226710448742924342e+00
2.554547541934352739e-01 1.536260785119019090e+00
2.564953030901006570e-01 2.414640468825652420e+00
2.575358519867660401e-01 3.461758159913305377e+00
2.585764008834314231e-01 2.908822059644037950e+00
2.596169497800968062e-01 1.872451732475212793e+00
2.606574986767621893e-01 1.546805221524511609e+00
2.616980475734275724e-01 1.269043474636497137e+00
2.627385964700929555e-01 1.303119039429081027e+00
2.637791453667583386e-01 2.143135064455098160e+00
2.648196942634237216e-01 3.993877232137442945e+00
2.658602431600891047e-01 4.625244042832729718e+00
2.669007920567544878e-01 2.804309836242897092e+00
2.679413409534198709e-01 1.608422703058359104e+00
2.689818898500852540e-01 1.148909921700806080e+00
2.700224387467506371e-01 9.582351123627503853e-01
2.710629876434160201e-01 1.054736406249702441e+00
2.721035365400814032e-01 1.243813331569644021e+00
2.731440854367467863e-01 1.199813272855241308e+00
2.741846343334121694e-01 1.315911572466848867e+00
2.752251832300775525e-01 1.566107761227581108e+00
2.762657321267429356e-01 2.030426166412897970e+00
2.773062810234083186e-01 2.102522754104011682e+00
2.783468299200737017e-01 1.766727016683187657e+00
2.793873788167390848e-01 1.203597231000593126e+00
2.804279277134044679e-01 1.142660290856536420e+00
2.814684766100698510e-01 1.123911226436867139e+00
2.825090255067352341e-01 1.202958040105013282e+00
2.835495744034006171e-01 1.299581447539303269e+00
2.845901233000660002e-01 1.108404608077766085e+00
2.856306721967313833e-01 8.669240055016906865e-01
2.866712210933967664e-01 8.506573427196393311e-01
2.877117699900621495e-01 1.084253491500167144e+00
2.887523188867275326e-01 1.277693128354158603e+00
2.897928677833929156e-01 1.274136691401032806e+00
2.908334166800582987e-01 8.687964963016376885e-01
2.918739655767236818e-01 6.749221980917177177e-01
2.929145144733890649e-01 6.899539723418008919e-01
2.939550633700544480e-01 5.603895353107013477e-01
2.949956122667198311e-01 3.772869631064565965e-01
2.960361611633852141e-01 3.635528173681912278e-01
2.970767100600505972e-01 4.933414343333559771e-01
2.981172589567159803e-01 5.561235664170744997e-01
2.991578078533813634e-01 6.351422803369999315e-01
3.001983567500468020e-01 7.833961054673785895e-01
3.012389056467121851e-01 1.036711460631053683e+00
3.022794545433775681e-01 1.307064363931456086e+00
3.033200034400429512e-01 1.179568726399001122e+00
3.043605523367083343e-01 1.036632871291175206e+00
3.054011012333737174e-01 5.660766179628993200e-01
3.064416501300391005e-01 6.120543619688518788e-01
3.074821990267044836e-01 6.706498703618990476e-01
3.085227479233698666e-01 5.445200250798905017e-01
3.095632968200352497e-01 4.939592974676507708e-01
3.106038457167006328e-01 3.657942903872886120e-01
3.116443946133660159e-01 1.947846152137095999e-01
3.126849435100313990e-01 3.410725840376684914e-01
3.137254924066967821e-01 4.000894965481549548e-01
3.147660413033621651e-01 3.656190269716859120e-01
3.158065902000275482e-01 3.111252169270883883e-01
3.168471390966929313e-01 3.312859463596495857e-02
3.178876879933583144e-01 9.599198165339828392e-02
3.189282368900236975e-01 1.993227141876907638e-01
3.199687857866890806e-01 3.013042145469881916e-01
3.210093346833544636e-01 2.096429389417266975e-01
3.220498835800198467e-01 8.978407195407811514e-02
3.230904324766852298e-01 6.233908653565478630e-02
3.241309813733506129e-01 2.646134281990732973e-01
3.251715302700159960e-01 9.181253011269063791e-02
3.262120791666813790e-01 7.785779345353205372e-02
3.272526280633467621e-01 8.251841050895691865e-02
3.282931769600121452e-01 1.266659422081879427e-01
3.293337258566775283e-01 3.877473625722664963e-01
3.303742747533429114e-01 2.585227470812156980e-01
3.314148236500082945e-01 1.448800737372266667e-01
3.324553725466736775e-01 3.116992297498448750e-01
3.334959214433390606e-01 2.735745883831057768e-01
3.345364703400044437e-01 4.502433156572038797e-02
3.355770192366698268e-01 2.778507599265900296e-01
3.366175681333352099e-01 5.503163106536916871e-01
3.376581170300005930e-01 5.058620773780120317e-01
3.386986659266659760e-01 4.621333651613461768e-01
3.397392148233313591e-01 4.626087430232175279e-01
3.407797637199967422e-01 4.050457278215731094e-01
3.418203126166621253e-01 4.969485388856291763e-01
3.428608615133275084e-01 3.163210662353961311e-01
3.439014104099928915e-01 2.673158614800179578e-01
3.449419593066582745e-01 5.171642071903477245e-01
3.459825082033236576e-01 6.180340347534034606e-01
3.470230570999890407e-01 5.424272981164328655e-01
3.480636059966544238e-01 5.500066485135306493e-01
3.491041548933198069e-01 6.993371676635113943e-01
3.501447037899851900e-01 6.473635375708752804e-01
3.511852526866505730e-01 3.914865130567015683e-01
3.522258015833159561e-01 4.012251234433428237e-01
3.532663504799813392e-01 4.983778068346431667e-01
3.543068993766467223e-01 6.325204085089879413e-01
3.553474482733121054e-01 6.357635061286828204e-01
3.563879971699774885e-01 4.213087884675523753e-01
3.574285460666428715e-01 5.919205705561729758e-01
3.584690949633082546e-01 5.915395813848789430e-01
3.595096438599736377e-01 3.961559191800319013e-01
3.605501927566390208e-01 5.068143904510584719e-01
3.615907416533044039e-01 4.838706997562383094e-01
3.626312905499697870e-01 5.981617830896084342e-01
3.636718394466351700e-01 9.012651699918805548e-01
3.647123883433005531e-01 1.066058941157997708e+00
3.657529372399659362e-01 1.055273054516053577e+00
3.667934861366313193e-01 1.009623606675550178e+00
3.678340350332967024e-01 8.720671711837191253e-01
3.688745839299620854e-01 5.440076456939699767e-01
3.699151328266274685e-01 4.184863863918408811e-01
3.709556817232928516e-01 5.844456131630906270e-01
3.719962306199582347e-01 6.615905830629813522e-01
3.730367795166236178e-01 7.316011606026684433e-01
3.740773284132890009e-01 6.569167885376501204e-01
3.751178773099543839e-01 5.227769595391009716e-01
3.761584262066197670e-01 5.897242672499167782e-01
3.771989751032851501e-01 6.268751639654901453e-01
3.782395239999505332e-01 7.516349682458454140e-01
3.792800728966159163e-01 7.381403394329595358e-01
3.803206217932812994e-01 7.321845317981363621e-01
3.813611706899466824e-01 6.949042489563623803e-01
3.824017195866120655e-01 6.311536599046974061e-01
3.834422684832774486e-01 4.409072413145018743e-01
3.844828173799428317e-01 5.343612478847141745e-01
3.855233662766082148e-01 6.548682357113086994e-01
3.865639151732735979e-01 6.209282865004510654e-01
3.876044640699389809e-01 4.993823226713232089e-01
3.886450129666043640e-01 4.798488322643663651e-01
3.896855618632697471e-01 4.324354403902646027e-01
3.907261107599351302e-01 3.891749831991297981e-01
3.917666596566005133e-01 5.809428776955734008e-01
3.928072085532658964e-01 6.450388596747238523e-01
3.938477574499312794e-01 3.228113780886197048e-01
3.948883063465966625e-01 2.528262218157486529e-01
3.959288552432620456e-01 1.924451454257152250e-01
3.969694041399274287e-01 2.393987128895140870e-01
3.980099530365928118e-01 1.543956200767269138e-01
3.990505019332581949e-01 4.536721314060798704e-02
4.000910508299235779e-01 1.897718739181968317e-01
4.011315997265889610e-01 8.506529385155303657e-02
4.021721486232543441e-01 2.072301850782025667e-01
4.032126975199197272e-01 2.489137585636740368e-01
4.042532464165851103e-01 3.315235132004623608e-01
4.052937953132504934e-01 1.774001898231247765e-01
4.063343442099158764e-01 2.337099740645598445e-01
4.073748931065812595e-01 2.706300847241465135e-01
4.084154420032466426e-01 2.793598182602572422e-01
4.094559908999120257e-01 5.432562121619639584e-01
4.104965397965774088e-01 4.319115070978902793e-01
4.115370886932427918e-01 8.973022086384574436e-02
4.125776375899081749e-01 9.103026448178042074e-02
4.136181864865735580e-01 1.781181715565161028e-01
4.146587353832389411e-01 3.340552517030452861e-01
4.156992842799043242e-01 3.508355901159916357e-01
4.167398331765697073e-01 3.687315514503239910e-01
4.177803820732350903e-01 2.147349687078730085e-01
4.188209309699004734e-01 9.690804478426784385e-02
4.198614798665658565e-01 3.546714381906106439e-01
4.209020287632312396e-01 5.136742554323348031e-01
4.219425776598966227e-01 4.838352092825708439e-01
4.229831265565620058e-01 5.339570938621669427e-01
4.240236754532273888e-01 3.875601344994095143e-01
4.250642243498927719e-01 2.966725251275441622e-01
4.261047732465581550e-01 5.262721835891923661e-01
4.271453221432235381e-01 4.497953056347547829e-01
4.281858710398889212e-01 2.409891477243277791e-01
4.292264199365543043e-01 1.637636509986108990e-01
4.302669688332196873e-01 3.066860701825717683e-01
4.313075177298850704e-01 4.229775007807567988e-01
4.323480666265504535e-01 4.267381745986327246e-01
4.333886155232158366e-01 3.722218164159336595e-01
4.344291644198812197e-01 4.537611912972820960e-01
