# q (1/Angstrom), Intensity (arb)
2.029070354705860696e-02 1.636645226960806667e+03
2.133125244372399004e-02 1.628072691929578696e+03
2.237180134038937659e-02 1.618398534287451866e+03
2.341235023705475968e-02 1.601137287892215681e+03
2.445289913372014276e-02 1.592332266075421558e+03
2.549344803038552584e-02 1.583126385987682852e+03
2.653399692705091240e-02 1.559314689904196484e+03
2.757454582371629548e-02 1.542146700708705339e+03
2.861509472038167856e-02 1.529579755592614447e+03
2.965564361704706164e-02 1.507754614030066932e+03
3.069619251371244473e-02 1.481368449358946464e+03
3.173674141037782781e-02 1.461596550821574965e+03
3.277729030704321089e-02 1.439034494503340511e+03
3.381783920370859398e-02 1.419330686278355870e+03
3.485838810037397706e-02 1.394279745989851790e+03
3.589893699703936014e-02 1.373786287051645104e+03
3.693948589370474322e-02 1.350766799839979740e+03
3.798003479037012631e-02 1.329895654000080867e+03
3.902058368703550939e-02 1.302682994998655431e+03
4.006113258370089247e-02 1.273906077287968628e+03
4.110168148036627556e-02 1.246426292820614663e+03
4.214223037703165864e-02 1.221534403892783757e+03
4.318277927369704866e-02 1.199557199161044082e+03
4.422332817036243174e-02 1.170819914358076858e+03
4.526387706702781483e-02 1.143133711965913790e+03
4.630442596369319791e-02 1.113188045191631318e+03
4.734497486035858099e-02 1.087968754952389645e+03
4.838552375702396408e-02 1.065580506133179369e+03
4.942607265368934716e-02 1.038838826243661060e+03
5.046662155035473024e-02 1.011847897043933585e+03
5.150717044702011332e-02 9.847808174130092311e+02
5.254771934368549641e-02 9.584535509833800688e+02
5.358826824035087949e-02 9.326306554212807214e+02
5.462881713701626257e-02 9.049057900199322830e+02
5.566936603368164566e-02 8.782743791787777354e+02
5.670991493034702874e-02 8.540146926211533582e+02
5.775046382701241182e-02 8.307273232775628458e+02
5.879101272367779490e-02 8.034388233506288088e+02
5.983156162034317799e-02 7.779910020683437324e+02
6.087211051700856107e-02 7.515737621965422477e+02
6.191265941367394415e-02 7.268753713085249046e+02
6.295320831033933417e-02 7.024993547991595051e+02
6.399375720700471726e-02 6.771753054073412841e+02
6.503430610367010034e-02 6.542259548062601198e+02
6.607485500033548342e-02 6.307867496303880444e+02
6.711540389700086651e-02 6.064255754274820447e+02
6.815595279366624959e-02 5.821364265706753258e+02
6.919650169033163267e-02 5.589083572197174590e+02
7.023705058699701576e-02 5.376437031667461497e+02
7.127759948366239884e-02 5.153587128603196561e+02
7.231814838032778192e-02 4.939827757689882333e+02
7.335869727699316500e-02 4.737018506262165829e+02
7.439924617365854809e-02 4.542589872516094829e+02
7.543979507032393117e-02 4.322695456620040204e+02
7.648034396698931425e-02 4.120155935389495880e+02
7.752089286365469734e-02 3.920980688071662144e+02
7.856144176032008042e-02 3.754864702658421720e+02
7.960199065698546350e-02 3.584482661251584545e+02
8.064253955365084658e-02 3.416442466409644112e+02
8.168308845031622967e-02 3.264456561142570195e+02
8.272363734698161275e-02 3.152745708248009464e+02
8.376418624364699583e-02 3.019780366183617843e+02
8.480473514031239279e-02 2.823269835766302549e+02
8.584528403697777588e-02 2.641168755314128020e+02
8.688583293364315896e-02 2.526179836083524037e+02
8.792638183030854204e-02 2.471083825683557791e+02
8.896693072697392513e-02 2.326735723108490390e+02
9.000747962363930821e-02 2.119678061750390157e+02
9.104802852030469129e-02 1.972479130907652518e+02
9.208857741697007437e-02 1.869533303566180962e+02
9.312912631363545746e-02 1.810464613939702758e+02
9.416967521030084054e-02 1.738564280617935935e+02
9.521022410696622362e-02 1.583431782067304425e+02
9.625077300363160671e-02 1.420206620125630934e+02
9.729132190029698979e-02 1.295391288835564865e+02
9.833187079696237287e-02 1.184742550588073584e+02
9.937241969362775595e-02 1.085613366740776939e+02
1.004129685902931390e-01 1.001108087094057595e+02
1.014535174869585221e-01 9.230949472790773314e+01
1.024940663836239052e-01 8.467623774505558742e+01
1.035346152802892883e-01 7.725596934612924827e+01
1.045751641769546714e-01 7.064468186408862493e+01
1.056157130736200545e-01 6.417604719296453197e+01
1.066562619702854375e-01 5.836038781825173771e+01
1.076968108669508206e-01 5.220594660280364963e+01
1.087373597636162037e-01 4.713998522984790185e+01
1.097779086602815868e-01 4.272500736750472328e+01
1.108184575569469699e-01 3.818726746291382312e+01
1.118590064536123529e-01 3.375744156275126784e+01
1.128995553502777360e-01 2.990377424330288036e+01
1.139401042469431191e-01 2.610507819993854994e+01
1.149806531436085022e-01 2.306441151090757202e+01
1.160212020402738853e-01 2.036177011890741539e+01
1.170617509369392684e-01 1.759858213809978977e+01
1.181022998336046514e-01 1.514948338785543314e+01
1.191428487302700345e-01 1.335756199955164192e+01
1.201833976269354176e-01 1.156982149469518006e+01
1.212239465236008007e-01 1.005579337942061002e+01
1.222644954202661838e-01 8.403108123436769716e+00
1.233050443169315669e-01 6.787683240371965354e+00
1.243455932135969499e-01 5.785616936909079300e+00
1.253861421102623330e-01 4.771317028006478722e+00
1.264266910069277161e-01 3.771460998216628724e+00
1.274672399035930992e-01 2.852346298147573123e+00
1.285077888002584823e-01 2.331028627223801664e+00
1.295483376969238654e-01 2.143581392895825388e+00
1.305888865935892484e-01 2.000062026089135969e+00
1.316294354902546315e-01 1.699181654091852067e+00
1.326699843869200146e-01 1.745933215184962251e+00
1.337105332835853977e-01 1.656775154840094189e+00
1.347510821802507808e-01 1.800127246606606946e+00
1.357916310769161639e-01 2.172274553760754401e+00
1.368321799735815469e-01 2.467330476869239675e+00
1.378727288702469300e-01 2.852003215521403234e+00
1.389132777669123131e-01 2.937550321145621979e+00
1.399538266635776962e-01 3.194009038446026238e+00
1.409943755602430793e-01 3.668404159584259361e+00
1.420349244569084624e-01 3.954330891345421151e+00
1.430754733535738454e-01 4.944122763741436444e+00
1.441160222502392285e-01 5.814123905077728693e+00
1.451565711469046116e-01 6.368727575757329618e+00
1.461971200435699947e-01 6.854763340862863430e+00
1.472376689402353778e-01 7.061398256236024906e+00
1.482782178369007609e-01 7.195939191457320305e+00
1.493187667335661439e-01 7.806454954043402950e+00
1.503593156302315270e-01 8.630380859292607454e+00
1.513998645268969101e-01 9.436445603361455881e+00
1.524404134235622932e-01 9.840873003838495947e+00
1.534809623202276763e-01 1.018983784722246355e+01
1.545215112168930593e-01 1.058057437877090123e+01
1.555620601135584424e-01 1.105027399251508058e+01
1.566026090102238255e-01 1.169496716062339914e+01
1.576431579068892086e-01 1.203408793467271565e+01
1.586837068035545917e-01 1.179408975560404471e+01
1.597242557002199748e-01 1.188659418535315027e+01
1.607648045968853578e-01 1.238884282561816974e+01
1.618053534935507409e-01 1.287031732477919377e+01
1.628459023902161240e-01 1.344891384602132334e+01
1.638864512868815071e-01 1.354516288965149329e+01
1.649270001835468902e-01 1.343821870023984388e+01
1.659675490802122733e-01 1.362975228371687209e+01
1.670080979768776563e-01 1.400715740731811465e+01
1.680486468735430672e-01 1.480241762333656652e+01
1.690891957702084503e-01 1.528853081078126763e+01
1.701297446668738333e-01 1.465139642075654081e+01
1.711702935635392164e-01 1.405215245300018978e+01
1.722108424602045995e-01 1.389219385272854623e+01
1.732513913568699826e-01 1.360732396011612266e+01
1.742919402535353657e-01 1.343081060224623613e+01
1.753324891502007488e-01 1.332822960235154852e+01
1.763730380468661318e-01 1.316041194545799442e+01
1.774135869435315149e-01 1.304421560523310220e+01
1.784541358401968980e-01 1.239244650428217653e+01
1.794946847368622811e-01 1.191960222404346581e+01
1.805352336335276642e-01 1.187955986245870577e+01
1.815757825301930473e-01 1.151585401072593129e+01
1.826163314268584303e-01 1.120233094710415855e+01
1.836568803235238134e-01 1.098953422959569082e+01
1.846974292201891965e-01 1.053397324472061669e+01
1.857379781168545796e-01 9.930686959481683118e+00
1.867785270135199627e-01 9.403532779928269747e+00
1.878190759101853458e-01 9.476341088757255449e+00
1.888596248068507288e-01 9.373613718243113624e+00
1.899001737035161119e-01 8.710772745237473913e+00
1.909407226001814950e-01 8.527580076299557277e+00
1.919812714968468781e-01 8.421244204019810553e+00
1.930218203935122612e-01 7.913765989000015821e+00
1.940623692901776443e-01 7.423340171294025680e+00
1.951029181868430273e-01 6.971137495598188849e+00
1.961434670835084104e-01 6.511855782895626277e+00
1.971840159801737935e-01 5.950312870090925799e+00
1.982245648768391766e-01 5.608612093821122357e+00
1.992651137735045597e-01 5.272931052136517138e+00
2.003056626701699428e-01 4.919251607112673952e+00
2.013462115668353813e-01 4.608708589445697612e+00
2.023867604635007644e-01 4.420353982507819524e+00
2.034273093601661475e-01 4.169009975556427605e+00
2.044678582568315306e-01 3.669145278413974864e+00
2.055084071534969137e-01 3.270224934323206156e+00
2.065489560501622968e-01 2.907942941260042602e+00
2.075895049468276798e-01 2.846932679817573586e+00
2.086300538434930629e-01 2.623317359144955674e+00
2.096706027401584460e-01 2.405330521680927092e+00
2.107111516368238291e-01 2.366452493798139045e+00
2.117517005334892122e-01 2.169219502225882223e+00
2.127922494301545953e-01 2.058655076145683438e+00
2.138327983268199783e-01 1.906765057470561686e+00
2.148733472234853614e-01 1.445669053311601004e+00
2.159138961201507445e-01 1.206776425922729601e+00
2.169544450168161276e-01 1.153715257468611810e+00
2.179949939134815107e-01 9.247710015894412550e-01
2.190355428101468938e-01 7.403525089141531623e-01
2.200760917068122768e-01 7.943047334849033803e-01
2.211166406034776599e-01 9.406239300918031176e-01
2.221571895001430430e-01 7.731634805472680227e-01
2.231977383968084261e-01 6.914434273850211810e-01
2.242382872934738092e-01 6.707817103272866177e-01
2.252788361901391923e-01 5.589229488218876440e-01
2.263193850868045753e-01 5.588442998909748383e-01
2.273599339834699584e-01 5.479937058291746155e-01
2.284004828801353415e-01 4.899165613170595179e-01
2.294410317768007246e-01 5.469084815831344315e-01
2.304815806734661077e-01 5.815695120289277043e-01
2.315221295701314908e-01 7.748071157959799393e-01
2.325626784667968738e-01 7.793029987096531386e-01
2.336032273634622569e-01 7.468897368762128508e-01
2.346437762601276400e-01 8.110944008573426345e-01
2.356843251567930231e-01 9.528304841225470057e-01
2.367248740534584062e-01 1.213577666646870057e+00
2.377654229501237892e-01 1.027402623671203941e+00
2.388059718467891723e-01 8.149944409317697591e-01
2.398465207434545554e-01 8.661954017479338575e-01
2.408870696401199385e-01 1.088532018575929072e+00
2.419276185367853216e-01 1.326741095368937806e+00
2.429681674334507047e-01 1.497771361141268187e+00
2.440087163301160877e-01 1.503405430255590147e+00
2.450492652267814708e-01 2.080558078179262083e+00
2.460898141234468539e-01 1.681305039784003696e+00
2.471303630201122370e-01 1.657727341069133331e+00
2.481709119167776201e-01 1.662516012563820311e+00
2.492114608134430032e-01 1.527066616432776414e+00
2.502520097101083585e-01 1.502991893542048985e+00
2.512925586067737416e-01 1.813979463422327854e+00
2.523331075034391247e-01 1.801771005672918591e+00
2.533736564001045077e-01 1.720637457082499822e+00
2.544142052967698908e-01 1.721406881878053241e+00
2.554547541934352739e-01 1.999433070397152790e+00
2.564953030901006570e-01 2.116403123223591365e+00
2.575358519867660401e-01 2.277659483043731115e+00
2.585764008834314231e-01 2.408879075234111156e+00
2.596169497800968062e-01 2.401552838713271854e+00
2.606574986767621893e-01 2.262827015086781302e+00
2.616980475734275724e-01 2.095107998470716382e+00
2.627385964700929555e-01 2.278344889953125119e+00
2.637791453667583386e-01 2.505438856391290159e+00
2.648196942634237216e-01 2.335990600831522102e+00
2.658602431600891047e-01 2.372534860451079197e+00
2.669007920567544878e-01 2.470396641323247877e+00
2.679413409534198709e-01 2.547652570536307337e+00
2.689818898500852540e-01 2.512072638226644727e+00
2.700224387467506371e-01 2.294151995473995953e+00
2.710629876434160201e-01 2.189410403623121226e+00
2.721035365400814032e-01 2.299534267992090264e+00
2.731440854367467863e-01 2.321113985026837412e+00
2.741846343334121694e-01 2.283760518610119306e+00
2.752251832300775525e-01 2.294195742854498121e+00
2.762657321267429356e-01 2.269472627436979195e+00
2.773062810234083186e-01 2.012053851269602234e+00
2.783468299200737017e-01 2.003409546860744683e+00
2.793873788167390848e-01 1.761878184087876775e+00
2.804279277134044679e-01 1.610160583318705818e+00
2.814684766100698510e-01 1.623613439729084007e+00
2.825090255067352341e-01 2.019051215964100976e+00
2.835495744034006171e-01 1.903181094645727711e+00
2.845901233000660002e-01 1.692788698131831637e+00
2.856306721967313833e-01 1.607735603790207080e+00
2.866712210933967664e-01 1.656251373994063414e+00
2.877117699900621495e-01 1.597813509183023228e+00
2.887523188867275326e-01 1.281421545029235887e+00
2.897928677833929156e-01 1.258452149636447359e+00
2.908334166800582987e-01 1.229980474109282795e+00
2.918739655767236818e-01 1.207146799657277114e+00
2.929145144733890649e-01 1.163088114724072142e+00
2.939550633700544480e-01 9.455942643076866716e-01
2.949956122667198311e-01 1.136617794481299626e+00
2.960361611633852141e-01 1.067392132315312381e+00
2.970767100600505972e-01 1.007707870309481279e+00
2.981172589567159803e-01 1.166254799531071029e+00
2.991578078533813634e-01 1.045752360968190686e+00
3.001983567500468020e-01 8.489185994623440479e-01
3.012389056467121851e-01 1.026343589236301312e+00
3.022794545433775681e-01 1.131679596361429674e+00
3.033200034400429512e-01 9.830453253841078265e-01
3.043605523367083343e-01 7.221751592387768426e-01
3.054011012333737174e-01 7.009351501909719673e-01
3.064416501300391005e-01 6.812615805311565964e-01
3.074821990267044836e-01 6.764666406849215718e-01
3.085227479233698666e-01 4.888605638034135836e-01
3.095632968200352497e-01 5.068650786861290669e-01
3.106038457167006328e-01 5.620899663155860537e-01
3.116443946133660159e-01 5.314753220540744394e-01
3.126849435100313990e-01 5.244588609383527000e-01
3.137254924066967821e-01 4.454707700779110269e-01
3.147660413033621651e-01 4.399961635169766794e-01
3.158065902000275482e-01 4.370771435696845231e-01
3.168471390966929313e-01 5.111332868044833333e-01
3.178876879933583144e-01 3.363683003972255392e-01
3.189282368900236975e-01 4.887711306569286762e-01
3.199687857866890806e-01 4.159252516482752071e-01
3.210093346833544636e-01 3.813087976855662475e-01
3.220498835800198467e-01 4.057281669588128636e-01
3.230904324766852298e-01 3.276152518050743367e-01
3.241309813733506129e-01 3.485606375932839285e-01
3.251715302700159960e-01 3.617638370280467086e-01
3.262120791666813790e-01 3.872511529110482797e-01
3.272526280633467621e-01 3.265877388688060989e-01
3.282931769600121452e-01 2.111999701945919128e-01
3.293337258566775283e-01 3.859068666036051809e-01
3.303742747533429114e-01 4.312994954780329238e-01
3.314148236500082945e-01 4.579054947417944277e-01
3.324553725466736775e-01 4.593744431710575782e-01
3.334959214433390606e-01 3.708407490201608425e-01
3.345364703400044437e-01 5.078462882663217215e-01
3.355770192366698268e-01 6.030367288730467124e-01
3.366175681333352099e-01 4.680813419063021286e-01
3.376581170300005930e-01 4.587862599782788209e-01
3.386986659266659760e-01 4.375086125053968544e-01
3.397392148233313591e-01 5.381005418577906596e-01
3.407797637199967422e-01 8.406168404262857052e-01
3.418203126166621253e-01 9.498409463854819990e-01
3.428608615133275084e-01 8.794130491854623699e-01
3.439014104099928915e-01 7.345578836632142838e-01
3.449419593066582745e-01 7.751772562333520966e-01
3.459825082033236576e-01 7.469698872219758812e-01
3.470230570999890407e-01 7.432934977942977639e-01
3.480636059966544238e-01 9.472402298669848619e-01
3.491041548933198069e-01 7.844158031015666666e-01
3.501447037899851900e-01 7.790531695031290838e-01
3.511852526866505730e-01 8.046019258587406853e-01
3.522258015833159561e-01 6.489666848208202055e-01
3.532663504799813392e-01 6.625287906187011799e-01
3.543068993766467223e-01 7.401962109322930417e-01
3.553474482733121054e-01 6.734897417417258225e-01
3.563879971699774885e-01 7.574548848618256613e-01
3.574285460666428715e-01 7.553036960918149134e-01
3.584690949633082546e-01 9.073857634404340899e-01
3.595096438599736377e-01 8.618117567314840244e-01
3.605501927566390208e-01 8.742024660400744551e-01
3.615907416533044039e-01 8.907922311911740110e-01
3.626312905499697870e-01 8.902418711820132557e-01
3.636718394466351700e-01 9.181364947257755205e-01
3.647123883433005531e-01 8.655185683667063756e-01
3.657529372399659362e-01 7.921180039679995843e-01
3.667934861366313193e-01 7.260039384132035423e-01
3.678340350332967024e-01 7.321013337063959625e-01
3.688745839299620854e-01 6.610629889833923301e-01
3.699151328266274685e-01 8.604590223411463512e-01
3.709556817232928516e-01 7.363734973222193503e-01
3.719962306199582347e-01 7.808651270475266415e-01
3.730367795166236178e-01 8.783397637867338403e-01
3.740773284132890009e-01 8.022215479403449478e-01
3.751178773099543839e-01 8.619361270218490745e-01
3.761584262066197670e-01 8.477854726256701667e-01
3.771989751032851501e-01 7.737542887616193354e-01
3.782395239999505332e-01 6.687169584831345048e-01
3.792800728966159163e-01 6.438729544825037010e-01
3.803206217932812994e-01 6.580225313997836167e-01
3.813611706899466824e-01 7.778733583608428148e-01
3.824017195866120655e-01 6.143739974667923320e-01
3.834422684832774486e-01 6.966090045995443347e-01
3.844828173799428317e-01 4.703940454260369108e-01
3.855233662766082148e-01 3.585680226289476025e-01
3.865639151732735979e-01 5.420609869885026910e-01
3.876044640699389809e-01 5.347905834734199004e-01
3.886450129666043640e-01 5.250274367515217477e-01
3.896855618632697471e-01 5.698127830575501207e-01
3.907261107599351302e-01 7.186452391622601965e-01
3.917666596566005133e-01 5.958333182552166818e-01
3.928072085532658964e-01 3.541957242321345234e-01
3.938477574499312794e-01 4.405142074016055176e-01
3.948883063465966625e-01 4.801189085831047976e-01
3.959288552432620456e-01 4.387906946428863364e-01
3.969694041399274287e-01 4.385530440036369271e-01
3.980099530365928118e-01 5.621511973142503393e-01
3.990505019332581949e-01 5.192424975564868816e-01
4.000910508299235779e-01 5.080553375786251991e-01
4.011315997265889610e-01 4.199773749931061673e-01
4.021721486232543441e-01 4.888391101748759127e-01
4.032126975199197272e-01 3.652640002241120953e-01
4.042532464165851103e-01 2.865837747119570622e-01
4.052937953132504934e-01 3.607468392798551804e-01
4.063343442099158764e-01 4.426316837936994375e-01
4.073748931065812595e-01 3.899658134106829266e-01
4.084154420032466426e-01 4.500214240791891029e-01
4.094559908999120257e-01 5.029434046847711670e-01
4.104965397965774088e-01 2.953164879014060773e-01
4.115370886932427918e-01 2.550659130339560932e-01
4.125776375899081749e-01 3.837022423064162524e-01
4.136181864865735580e-01 4.756361680081724330e-01
4.146587353832389411e-01 5.581347938930427688e-01
4.156992842799043242e-01 5.058611862857596009e-01
4.167398331765697073e-01 4.774300289650028617e-01
4.177803820732350903e-01 4.031357294002688718e-01
4.188209309699004734e-01 5.030452361724790933e-01
4.198614798665658565e-01 5.902522520423332253e-01
4.209020287632312396e-01 5.348487902891427836e-01
4.219425776598966227e-01 2.940847004797646491e-01
4.229831265565620058e-01 1.928893616763005525e-01
4.240236754532273888e-01 1.847807325486598984e-01
4.250642243498927719e-01 3.220066144768978234e-01
4.261047732465581550e-01 4.439455690824587464e-01
4.271453221432235381e-01 5.744964335313973436e-01
4.281858710398889212e-01 5.832191477184629491e-01
4.292264199365543043e-01 4.681771089119592943e-01
4.302669688332196873e-01 3.490135100274862623e-01
4.313075177298850704e-01 4.652254133650153278e-01
4.323480666265504535e-01 5.928404703770411288e-01
4.333886155232158366e-01 4.954376397671005350e-01
4.344291644198812197e-01 4.782680394922138589e-01
