# q (1/Angstrom), Intensity (arb)
2.029070354705860696e-02 1.255264397431386215e+03
2.133125244372399004e-02 1.249205627605767631e+03
2.237180134038937659e-02 1.236145446655613114e+03
2.341235023705475968e-02 1.227314195053355434e+03
2.445289913372014276e-02 1.217707288801334244e+03
2.549344803038552584e-02 1.205302260140625094e+03
2.653399692705091240e-02 1.192597915533003288e+03
2.757454582371629548e-02 1.177925621977031142e+03
2.861509472038167856e-02 1.162802667603497184e+03
2.965564361704706164e-02 1.155391539280375810e+03
3.069619251371244473e-02 1.139223143535731879e+03
3.173674141037782781e-02 1.122279108847110138e+03
3.277729030704321089e-02 1.102020417424947027e+03
3.381783920370859398e-02 1.089823537799121368e+03
3.485838810037397706e-02 1.071425516188861138e+03
3.589893699703936014e-02 1.047832793888171864e+03
3.693948589370474322e-02 1.031589350693745246e+03
3.798003479037012631e-02 1.014862582798509038e+03
3.902058368703550939e-02 9.971122019825020288e+02
4.006113258370089247e-02 9.809216124233216760e+02
4.110168148036627556e-02 9.574346152889490895e+02
4.214223037703165864e-02 9.369541372750137498e+02
4.318277927369704866e-02 9.165670272270494934e+02
4.422332817036243174e-02 8.956400885348010661e+02
4.526387706702781483e-02 8.787923023444361661e+02
4.630442596369319791e-02 8.601405636561468100e+02
4.734497486035858099e-02 8.401677397551745798e+02
4.838552375702396408e-02 8.179728352733395695e+02
4.942607265368934716e-02 7.978919656288768465e+02
5.046662155035473024e-02 7.743497271078464337e+02
5.150717044702011332e-02 7.555477907367360331e+02
5.254771934368549641e-02 7.365626892988422014e+02
5.358826824035087949e-02 7.162214889849321935e+02
5.462881713701626257e-02 6.978627446504692671e+02
5.566936603368164566e-02 6.754040501175084046e+02
5.670991493034702874e-02 6.573884181975221281e+02
5.775046382701241182e-02 6.382552424529161499e+02
5.879101272367779490e-02 6.193820823435474949e+02
5.983156162034317799e-02 6.001636964466799782e+02
6.087211051700856107e-02 5.794395257952043039e+02
6.191265941367394415e-02 5.606193368434433069e+02
6.295320831033933417e-02 5.403112163220813500e+02
6.399375720700471726e-02 5.194420328010228332e+02
6.503430610367010034e-02 5.030438132843109997e+02
6.607485500033548342e-02 4.862506324655677190e+02
6.711540389700086651e-02 4.689128457386092919e+02
6.815595279366624959e-02 4.508095836378313379e+02
6.919650169033163267e-02 4.316280175171081623e+02
7.023705058699701576e-02 4.150105044002212935e+02
7.127759948366239884e-02 3.998938519350235197e+02
7.231814838032778192e-02 3.850883131955191061e+02
7.335869727699316500e-02 3.685257404129432643e+02
7.439924617365854809e-02 3.509754393973395850e+02
7.543979507032393117e-02 3.352304731204153541e+02
7.648034396698931425e-02 3.215597918835258042e+02
7.752089286365469734e-02 3.077392070862076707e+02
7.856144176032008042e-02 2.949558525024682467e+02
7.960199065698546350e-02 2.835155574539248278e+02
8.064253955365084658e-02 2.747938448896544514e+02
8.168308845031622967e-02 2.954932434393845142e+02
8.272363734698161275e-02 3.772603301389538615e+02
8.376418624364699583e-02 4.154127169244221705e+02
8.480473514031239279e-02 3.293718709031076060e+02
8.584528403697777588e-02 2.707162975599211450e+02
8.688583293364315896e-02 2.968641074137532314e+02
8.792638183030854204e-02 3.955531658970496665e+02
8.896693072697392513e-02 3.947906805314896133e+02
9.000747962363930821e-02 2.776478028711803745e+02
9.104802852030469129e-02 2.292108428669684770e+02
9.208857741697007437e-02 2.564004246679459129e+02
9.312912631363545746e-02 3.522624550652556081e+02
9.416967521030084054e-02 4.477336566833217830e+02
9.521022410696622362e-02 3.715477755228973820e+02
9.625077300363160671e-02 2.237356240021476310e+02
9.729132190029698979e-02 1.502076659675740302e+02
9.833187079696237287e-02 1.200417944529058474e+02
9.937241969362775595e-02 1.024732865632779664e+02
1.004129685902931390e-01 9.214686941984516011e+01
1.014535174869585221e-01 8.583344011585710120e+01
1.024940663836239052e-01 7.801197825855241774e+01
1.035346152802892883e-01 6.774516831363494873e+01
1.045751641769546714e-01 5.978359299321245146e+01
1.056157130736200545e-01 5.325552686427848670e+01
1.066562619702854375e-01 4.841858871741663961e+01
1.076968108669508206e-01 4.348627682380124782e+01
1.087373597636162037e-01 3.874747400781512141e+01
1.097779086602815868e-01 3.516999800034777479e+01
1.108184575569469699e-01 3.136942874319305119e+01
1.118590064536123529e-01 2.789025784719560974e+01
1.128995553502777360e-01 2.485118928217127277e+01
1.139401042469431191e-01 2.213360371491239320e+01
1.149806531436085022e-01 1.959150323360090695e+01
1.160212020402738853e-01 1.730102312315158031e+01
1.170617509369392684e-01 1.512069377220906219e+01
1.181022998336046514e-01 1.373078594435851585e+01
1.191428487302700345e-01 1.218467483615710378e+01
1.201833976269354176e-01 1.014732889962053619e+01
1.212239465236008007e-01 8.885057706381534359e+00
1.222644954202661838e-01 7.648377065673425790e+00
1.233050443169315669e-01 6.282396002198026963e+00
1.243455932135969499e-01 5.122709103175566270e+00
1.253861421102623330e-01 4.086317318574536728e+00
1.264266910069277161e-01 3.048085434473733812e+00
1.274672399035930992e-01 2.495670255895532819e+00
1.285077888002584823e-01 2.078134231254725961e+00
1.295483376969238654e-01 1.790896789147275570e+00
1.305888865935892484e-01 1.722716157621601241e+00
1.316294354902546315e-01 1.593321369492095130e+00
1.326699843869200146e-01 1.582893406349395349e+00
1.337105332835853977e-01 1.631120921339121566e+00
1.347510821802507808e-01 1.712706778622322901e+00
1.357916310769161639e-01 1.539055667386680426e+00
1.368321799735815469e-01 1.722383707165313638e+00
1.378727288702469300e-01 2.477778204174455823e+00
1.389132777669123131e-01 3.201861419637609174e+00
1.399538266635776962e-01 2.941773837817382997e+00
1.409943755602430793e-01 3.220059661360473058e+00
1.420349244569084624e-01 4.453417855416631710e+00
1.430754733535738454e-01 6.172105655325289320e+00
1.441160222502392285e-01 9.463291334383338693e+00
1.451565711469046116e-01 9.600124792173520660e+00
1.461971200435699947e-01 6.769673128626600089e+00
1.472376689402353778e-01 6.179231703971087342e+00
1.482782178369007609e-01 6.379175484041979871e+00
1.493187667335661439e-01 6.675481807316405281e+00
1.503593156302315270e-01 7.114794157703641986e+00
1.513998645268969101e-01 7.663702523987478088e+00
1.524404134235622932e-01 8.426232750983157160e+00
1.534809623202276763e-01 9.369965107385748837e+00
1.545215112168930593e-01 1.095742474280871903e+01
1.555620601135584424e-01 1.303141645951826533e+01
1.566026090102238255e-01 1.509046023030013828e+01
1.576431579068892086e-01 1.437451232685198121e+01
1.586837068035545917e-01 1.271825378725017686e+01
1.597242557002199748e-01 1.158066941510861625e+01
1.607648045968853578e-01 1.092165748415467519e+01
1.618053534935507409e-01 1.104315171264223139e+01
1.628459023902161240e-01 1.117555961650129248e+01
1.638864512868815071e-01 1.131353402377358464e+01
1.649270001835468902e-01 1.206836210754737237e+01
1.659675490802122733e-01 1.319575843569714380e+01
1.670080979768776563e-01 1.563349907642984249e+01
1.680486468735430672e-01 2.152201083830795980e+01
1.690891957702084503e-01 3.198608837613259936e+01
1.701297446668738333e-01 2.819997214256947871e+01
1.711702935635392164e-01 2.111443263824448735e+01
1.722108424602045995e-01 2.182546845461496687e+01
1.732513913568699826e-01 1.969214475733702940e+01
1.742919402535353657e-01 1.493673512047957175e+01
1.753324891502007488e-01 1.281358917882094772e+01
1.763730380468661318e-01 1.444253459149860319e+01
1.774135869435315149e-01 1.392696301156312444e+01
1.784541358401968980e-01 1.116965821243265822e+01
1.794946847368622811e-01 1.020536691969682508e+01
1.805352336335276642e-01 9.890895752297502952e+00
1.815757825301930473e-01 9.693069723361976031e+00
1.826163314268584303e-01 9.435288864834117106e+00
1.836568803235238134e-01 9.148619613671911566e+00
1.846974292201891965e-01 8.626471682849736311e+00
1.857379781168545796e-01 8.601926863838418313e+00
1.867785270135199627e-01 8.514671552394663223e+00
1.878190759101853458e-01 8.619979640287407818e+00
1.888596248068507288e-01 8.369448756493099495e+00
1.899001737035161119e-01 7.645345310111451909e+00
1.909407226001814950e-01 7.037772060673049168e+00
1.919812714968468781e-01 6.717413559887539520e+00
1.930218203935122612e-01 6.291021139870199619e+00
1.940623692901776443e-01 6.005861463748836115e+00
1.951029181868430273e-01 5.852603412429353114e+00
1.961434670835084104e-01 5.474161877057483139e+00
1.971840159801737935e-01 5.110415572455668354e+00
1.982245648768391766e-01 4.474205755795583883e+00
1.992651137735045597e-01 4.402111345274875021e+00
2.003056626701699428e-01 4.227040920544318681e+00
2.013462115668353813e-01 3.986632681421518498e+00
2.023867604635007644e-01 3.505810699059690450e+00
2.034273093601661475e-01 3.194015824227779632e+00
2.044678582568315306e-01 3.090530404929570096e+00
2.055084071534969137e-01 2.684282248665660120e+00
2.065489560501622968e-01 2.514105920571946484e+00
2.075895049468276798e-01 2.565644590325323549e+00
2.086300538434930629e-01 2.254542550433978221e+00
2.096706027401584460e-01 2.002652776462110040e+00
2.107111516368238291e-01 1.771042585586471318e+00
2.117517005334892122e-01 1.825651034963961195e+00
2.127922494301545953e-01 1.660655209223843798e+00
2.138327983268199783e-01 1.334347509052609126e+00
2.148733472234853614e-01 1.305527568262988325e+00
2.159138961201507445e-01 1.139047253096055812e+00
2.169544450168161276e-01 1.084865611225861670e+00
2.179949939134815107e-01 9.634835104689649654e-01
2.190355428101468938e-01 9.196884195562198272e-01
2.200760917068122768e-01 7.942337645766279763e-01
2.211166406034776599e-01 9.030867866684282319e-01
2.221571895001430430e-01 7.259309510632974138e-01
2.231977383968084261e-01 6.075146102949595672e-01
2.242382872934738092e-01 5.670944606952446065e-01
2.252788361901391923e-01 8.275533258072584886e-01
2.263193850868045753e-01 6.747957722570596673e-01
2.273599339834699584e-01 8.665050521633475000e-01
2.284004828801353415e-01 6.127691716577565728e-01
2.294410317768007246e-01 7.705982254008389987e-01
2.304815806734661077e-01 6.003692858928104670e-01
2.315221295701314908e-01 5.736640897526505967e-01
2.325626784667968738e-01 6.558506044661420731e-01
2.336032273634622569e-01 7.548423462544029405e-01
2.346437762601276400e-01 6.493739191332394967e-01
2.356843251567930231e-01 8.493380974036242037e-01
2.367248740534584062e-01 9.207252618216195117e-01
2.377654229501237892e-01 1.150108312932189847e+00
2.388059718467891723e-01 1.117208963339614058e+00
2.398465207434545554e-01 1.164406014265480849e+00
2.408870696401199385e-01 1.062835700927230675e+00
2.419276185367853216e-01 9.720283991259961454e-01
2.429681674334507047e-01 1.058340775455182126e+00
2.440087163301160877e-01 1.179125225319193504e+00
2.450492652267814708e-01 1.205864939863737106e+00
2.460898141234468539e-01 1.476857112077578194e+00
2.471303630201122370e-01 1.340746703460382605e+00
2.481709119167776201e-01 1.437537802820976651e+00
2.492114608134430032e-01 1.682547880294816167e+00
2.502520097101083585e-01 1.984277331606051575e+00
2.512925586067737416e-01 1.690321072571780547e+00
2.523331075034391247e-01 1.657956422668654284e+00
2.533736564001045077e-01 1.886920493946565358e+00
2.544142052967698908e-01 1.872121834471961677e+00
2.554547541934352739e-01 2.083369320665585889e+00
2.564953030901006570e-01 2.526061616553441525e+00
2.575358519867660401e-01 2.933545456605934021e+00
2.585764008834314231e-01 2.665447107942785721e+00
2.596169497800968062e-01 2.226956827035152742e+00
2.606574986767621893e-01 1.951042360906988904e+00
2.616980475734275724e-01 2.039277962311658143e+00
2.627385964700929555e-01 2.172600323461953309e+00
2.637791453667583386e-01 2.378130828821202414e+00
2.648196942634237216e-01 3.067703708852921096e+00
2.658602431600891047e-01 3.062517594203033156e+00
2.669007920567544878e-01 2.546300238649784831e+00
2.679413409534198709e-01 2.242715069777993619e+00
2.689818898500852540e-01 1.969278240411078684e+00
2.700224387467506371e-01 1.851437136596977950e+00
2.710629876434160201e-01 2.121535572116524548e+00
2.721035365400814032e-01 1.990673957758367862e+00
2.731440854367467863e-01 1.841460524618486971e+00
2.741846343334121694e-01 1.803327670893136059e+00
2.752251832300775525e-01 2.027927851479095267e+00
2.762657321267429356e-01 2.072966860537842848e+00
2.773062810234083186e-01 1.924744088424748867e+00
2.783468299200737017e-01 1.785051173383276790e+00
2.793873788167390848e-01 1.883008565440476900e+00
2.804279277134044679e-01 1.836792255219808823e+00
2.814684766100698510e-01 1.597668437224061933e+00
2.825090255067352341e-01 1.601484656941114082e+00
2.835495744034006171e-01 1.575615196693874509e+00
2.845901233000660002e-01 1.427502461677359946e+00
2.856306721967313833e-01 1.431228084769280429e+00
2.866712210933967664e-01 1.434173983226923355e+00
2.877117699900621495e-01 1.258658752447495033e+00
2.887523188867275326e-01 1.275867116463842876e+00
2.897928677833929156e-01 1.240818789958563428e+00
2.908334166800582987e-01 1.232718258672726108e+00
2.918739655767236818e-01 1.042051050573661541e+00
2.929145144733890649e-01 1.092533956219053692e+00
2.939550633700544480e-01 9.419778140289167823e-01
2.949956122667198311e-01 8.301576830115315886e-01
2.960361611633852141e-01 8.659990203512109019e-01
2.970767100600505972e-01 9.042335367230336374e-01
2.981172589567159803e-01 8.384614417477642689e-01
2.991578078533813634e-01 7.821293431486857628e-01
3.001983567500468020e-01 7.732441142863848427e-01
3.012389056467121851e-01 1.007085705440577073e+00
3.022794545433775681e-01 1.154728626617743004e+00
3.033200034400429512e-01 8.038272220286728498e-01
3.043605523367083343e-01 6.493332671930147626e-01
3.054011012333737174e-01 7.185997094355300874e-01
3.064416501300391005e-01 6.404262103188820277e-01
3.074821990267044836e-01 4.714892899952403127e-01
3.085227479233698666e-01 4.651646147537569220e-01
3.095632968200352497e-01 5.884763909890615707e-01
3.106038457167006328e-01 6.460534490377547456e-01
3.116443946133660159e-01 6.617049030973092272e-01
3.126849435100313990e-01 6.996279907881230997e-01
3.137254924066967821e-01 2.833527759999050488e-01
3.147660413033621651e-01 4.153737693421248878e-01
3.158065902000275482e-01 4.303112905460260151e-01
3.168471390966929313e-01 3.595405289024071749e-01
3.178876879933583144e-01 3.528535572380420149e-01
3.189282368900236975e-01 3.165064061009772445e-01
3.199687857866890806e-01 4.460755281358750324e-01
3.210093346833544636e-01 3.007132078450496238e-01
3.220498835800198467e-01 2.360225193487686113e-01
3.230904324766852298e-01 1.707230046700409787e-01
3.241309813733506129e-01 2.134751027269992107e-01
3.251715302700159960e-01 5.777231927690600344e-01
3.262120791666813790e-01 3.818717252490415603e-01
3.272526280633467621e-01 4.464748789141417262e-01
3.282931769600121452e-01 4.694793843899880414e-01
3.293337258566775283e-01 3.905827704659827759e-01
3.303742747533429114e-01 5.337331833873442122e-01
3.314148236500082945e-01 5.549406494182989036e-01
3.324553725466736775e-01 5.170802520279167425e-01
3.334959214433390606e-01 6.165896576806169094e-01
3.345364703400044437e-01 5.711884864456209243e-01
3.355770192366698268e-01 6.158939546787749464e-01
3.366175681333352099e-01 6.952113544643410137e-01
3.376581170300005930e-01 5.220180441353257095e-01
3.386986659266659760e-01 5.724847282594218711e-01
3.397392148233313591e-01 6.264244763813735517e-01
3.407797637199967422e-01 6.227799505763442767e-01
3.418203126166621253e-01 7.382580960704174800e-01
3.428608615133275084e-01 6.174088145784430992e-01
3.439014104099928915e-01 5.842594224552044579e-01
3.449419593066582745e-01 5.977660308753414142e-01
3.459825082033236576e-01 6.306184966612065068e-01
3.470230570999890407e-01 8.763297852273659316e-01
3.480636059966544238e-01 7.710025143516894275e-01
3.491041548933198069e-01 5.587999897487705425e-01
3.501447037899851900e-01 7.462185205845273117e-01
3.511852526866505730e-01 7.734756753162983500e-01
3.522258015833159561e-01 8.863724491127875638e-01
3.532663504799813392e-01 7.106074215028215235e-01
3.543068993766467223e-01 5.038119028051184500e-01
3.553474482733121054e-01 7.206278036273765508e-01
3.563879971699774885e-01 9.402434403493771242e-01
3.574285460666428715e-01 8.561106747403250949e-01
3.584690949633082546e-01 8.561226904225485157e-01
3.595096438599736377e-01 1.042067323169039383e+00
3.605501927566390208e-01 9.016337069559554607e-01
3.615907416533044039e-01 1.160805529596270702e+00
3.626312905499697870e-01 1.456803122999637878e+00
3.636718394466351700e-01 1.093729857905316294e+00
3.647123883433005531e-01 9.440845304823852757e-01
3.657529372399659362e-01 9.806654779056493965e-01
3.667934861366313193e-01 1.037279650424597577e+00
3.678340350332967024e-01 8.988515211619265699e-01
3.688745839299620854e-01 7.380031048908364255e-01
3.699151328266274685e-01 7.266568712530556695e-01
3.709556817232928516e-01 7.487183924546094715e-01
3.719962306199582347e-01 8.795939801922649792e-01
3.730367795166236178e-01 1.011849402661503916e+00
3.740773284132890009e-01 9.315450420098052575e-01
3.751178773099543839e-01 8.471681079157349359e-01
3.761584262066197670e-01 8.672216173840610054e-01
3.771989751032851501e-01 8.321164105121496846e-01
3.782395239999505332e-01 6.080762714755287845e-01
3.792800728966159163e-01 6.210849610462432224e-01
3.803206217932812994e-01 6.353735920761209854e-01
3.813611706899466824e-01 8.265992917578941501e-01
3.824017195866120655e-01 8.498326531061017874e-01
3.834422684832774486e-01 8.844865949642368719e-01
3.844828173799428317e-01 7.531976477125859049e-01
3.855233662766082148e-01 6.211183044579016155e-01
3.865639151732735979e-01 6.156019704076278742e-01
3.876044640699389809e-01 5.146198885723940464e-01
3.886450129666043640e-01 4.153571568402263381e-01
3.896855618632697471e-01 5.272676017337047938e-01
3.907261107599351302e-01 5.050245091330616276e-01
3.917666596566005133e-01 4.352027403896201463e-01
3.928072085532658964e-01 4.259254711964537421e-01
3.938477574499312794e-01 4.138075304985235903e-01
3.948883063465966625e-01 4.458395770029923710e-01
3.959288552432620456e-01 4.445168806482477919e-01
3.969694041399274287e-01 5.362105393139060538e-01
3.980099530365928118e-01 5.476006208003880715e-01
3.990505019332581949e-01 4.274128259708618316e-01
4.000910508299235779e-01 3.752406579977112244e-01
4.011315997265889610e-01 4.665591505971846686e-01
4.021721486232543441e-01 4.447673254754711536e-01
4.032126975199197272e-01 4.347911691782790911e-01
4.042532464165851103e-01 3.833691805272216868e-01
4.052937953132504934e-01 2.803008469343986064e-01
4.063343442099158764e-01 4.494542165011665702e-01
4.073748931065812595e-01 3.866737671383511099e-01
4.084154420032466426e-01 2.527563279473099556e-01
4.094559908999120257e-01 1.655394470514472971e-01
4.104965397965774088e-01 2.591877164980083137e-01
4.115370886932427918e-01 1.980837368393899567e-01
4.125776375899081749e-01 1.326276436447137996e-01
4.136181864865735580e-01 2.492179647599961356e-01
4.146587353832389411e-01 1.979863824824228402e-01
4.156992842799043242e-01 4.450951026744860428e-01
4.167398331765697073e-01 3.565348113648560968e-01
4.177803820732350903e-01 3.465334528347447929e-01
4.188209309699004734e-01 2.986364753820112128e-01
4.198614798665658565e-01 2.667500177246751036e-01
4.209020287632312396e-01 2.706517292446761758e-01
4.219425776598966227e-01 0.000000000000000000e+00
4.229831265565620058e-01 2.758284669720012516e-02
4.240236754532273888e-01 2.804893362128346723e-01
4.250642243498927719e-01 4.727304061957191550e-01
4.261047732465581550e-01 5.722987781315360678e-01
4.271453221432235381e-01 4.620648190071605654e-01
4.281858710398889212e-01 4.958043975453563235e-01
4.292264199365543043e-01 4.830813355186016622e-01
4.302669688332196873e-01 4.549704452305967095e-01
4.313075177298850704e-01 4.481304255140443615e-01
4.323480666265504535e-01 3.963087580740705107e-01
4.333886155232158366e-01 4.206932751029199835e-01
4.344291644198812197e-01 5.551351294933759561e-01
