# q (1/Angstrom), Intensity (arb)
2.029070354705860696e-02 4.225417842445423275e+02
2.133125244372399004e-02 4.163663068665666742e+02
2.237180134038937659e-02 4.142028419906385466e+02
2.341235023705475968e-02 4.123675823872076762e+02
2.445289913372014276e-02 4.085388349283783214e+02
2.549344803038552584e-02 4.013134827232647694e+02
2.653399692705091240e-02 3.982237958700000036e+02
2.757454582371629548e-02 3.928995047262854996e+02
2.861509472038167856e-02 3.902648531152545957e+02
2.965564361704706164e-02 3.879067125552190873e+02
3.069619251371244473e-02 3.832456533671060583e+02
3.173674141037782781e-02 3.779498658283911823e+02
3.277729030704321089e-02 3.719287426424498335e+02
3.381783920370859398e-02 3.670455674081771917e+02
3.485838810037397706e-02 3.616050046358944883e+02
3.589893699703936014e-02 3.579447308748209480e+02
3.693948589370474322e-02 3.523134242664692124e+02
3.798003479037012631e-02 3.447714722931530105e+02
3.902058368703550939e-02 3.363853544472989370e+02
4.006113258370089247e-02 3.294233791310450101e+02
4.110168148036627556e-02 3.229081449833090005e+02
4.214223037703165864e-02 3.143280004743371023e+02
4.318277927369704866e-02 3.090417831422459471e+02
4.422332817036243174e-02 3.027931726919538846e+02
4.526387706702781483e-02 2.966125792089078459e+02
4.630442596369319791e-02 2.915752289935512067e+02
4.734497486035858099e-02 2.851745171344392702e+02
4.838552375702396408e-02 2.794411580796618182e+02
4.942607265368934716e-02 2.731132379236192946e+02
5.046662155035473024e-02 2.673903648843120209e+02
5.150717044702011332e-02 2.605294559656386468e+02
5.254771934368549641e-02 2.527175134233231688e+02
5.358826824035087949e-02 2.448681763490994854e+02
5.462881713701626257e-02 2.395124283798826355e+02
5.566936603368164566e-02 2.329063823229462287e+02
5.670991493034702874e-02 2.261419801802236975e+02
5.775046382701241182e-02 2.205725091174426211e+02
5.879101272367779490e-02 2.149651021271478157e+02
5.983156162034317799e-02 2.086515404188617424e+02
6.087211051700856107e-02 2.007111160401470897e+02
6.191265941367394415e-02 1.940070542870157908e+02
6.295320831033933417e-02 1.876259642975969655e+02
6.399375720700471726e-02 1.819277965483897788e+02
6.503430610367010034e-02 1.748171664965406364e+02
6.607485500033548342e-02 1.688173315079750694e+02
6.711540389700086651e-02 1.642096592101978842e+02
6.815595279366624959e-02 1.590518046775335108e+02
6.919650169033163267e-02 1.533119522099247263e+02
7.023705058699701576e-02 1.486591527248879174e+02
7.127759948366239884e-02 1.431486728249346640e+02
7.231814838032778192e-02 1.382948295960011933e+02
7.335869727699316500e-02 1.344235711943417186e+02
7.439924617365854809e-02 1.301640520111240846e+02
7.543979507032393117e-02 1.259548425406297412e+02
7.648034396698931425e-02 1.214228784878393412e+02
7.752089286365469734e-02 1.168745393639644021e+02
7.856144176032008042e-02 1.147362312424476443e+02
7.960199065698546350e-02 1.166474529695377242e+02
8.064253955365084658e-02 1.277707628020168045e+02
8.168308845031622967e-02 2.056489175803399689e+02
8.272363734698161275e-02 4.606532691697261725e+02
8.376418624364699583e-02 6.092915547805504275e+02
8.480473514031239279e-02 3.914843678789941350e+02
8.584528403697777588e-02 2.427899404170112234e+02
8.688583293364315896e-02 3.263225763638795343e+02
8.792638183030854204e-02 6.248396852178980225e+02
8.896693072697392513e-02 6.848226815059542787e+02
9.000747962363930821e-02 3.827297744278903338e+02
9.104802852030469129e-02 2.553586548721501401e+02
9.208857741697007437e-02 3.402312843791216324e+02
9.312912631363545746e-02 6.478993173026119621e+02
9.416967521030084054e-02 1.011667347144435553e+03
9.521022410696622362e-02 8.394386475007484023e+02
9.625077300363160671e-02 3.877267452617580830e+02
9.729132190029698979e-02 1.745799382883173791e+02
9.833187079696237287e-02 1.070357831747870847e+02
9.937241969362775595e-02 7.778082883348847076e+01
1.004129685902931390e-01 6.521046031606167048e+01
1.014535174869585221e-01 6.277816892923775782e+01
1.024940663836239052e-01 5.652352827726444673e+01
1.035346152802892883e-01 4.287613786689892947e+01
1.045751641769546714e-01 3.394700445551244172e+01
1.056157130736200545e-01 2.915079994200385016e+01
1.066562619702854375e-01 2.491264576463547797e+01
1.076968108669508206e-01 2.242088664461300951e+01
1.087373597636162037e-01 1.981209196536209660e+01
1.097779086602815868e-01 1.804991423959960883e+01
1.108184575569469699e-01 1.634203855468701860e+01
1.118590064536123529e-01 1.445388733495991573e+01
1.128995553502777360e-01 1.338767478479455164e+01
1.139401042469431191e-01 1.194678012414685853e+01
1.149806531436085022e-01 1.089962334427927004e+01
1.160212020402738853e-01 1.016246562718234614e+01
1.170617509369392684e-01 9.704301442760527863e+00
1.181022998336046514e-01 9.053193619933825431e+00
1.191428487302700345e-01 8.765562767185894444e+00
1.201833976269354176e-01 8.910210399077552523e+00
1.212239465236008007e-01 8.756978129834084967e+00
1.222644954202661838e-01 7.375695379823813624e+00
1.233050443169315669e-01 5.454949844167142459e+00
1.243455932135969499e-01 4.303637850724157943e+00
1.253861421102623330e-01 3.119381683095706848e+00
1.264266910069277161e-01 2.794449729838841989e+00
1.274672399035930992e-01 2.530839307734478183e+00
1.285077888002584823e-01 1.877006728578432870e+00
1.295483376969238654e-01 1.554266872167339386e+00
1.305888865935892484e-01 1.905147438061842280e+00
1.316294354902546315e-01 1.971175536496129865e+00
1.326699843869200146e-01 1.608109516168241271e+00
1.337105332835853977e-01 1.465736353801840863e+00
1.347510821802507808e-01 1.536329686316356913e+00
1.357916310769161639e-01 1.425205781966951690e+00
1.368321799735815469e-01 1.423206270778013760e+00
1.378727288702469300e-01 1.512214018125199289e+00
1.389132777669123131e-01 1.590322559002487424e+00
1.399538266635776962e-01 1.614261235625779278e+00
1.409943755602430793e-01 2.186866081269002393e+00
1.420349244569084624e-01 3.159566120354231344e+00
1.430754733535738454e-01 7.345505956429388306e+00
1.441160222502392285e-01 1.545571686031244241e+01
1.451565711469046116e-01 1.430788481280269409e+01
1.461971200435699947e-01 6.247268716740610017e+00
1.472376689402353778e-01 3.696070922269630188e+00
1.482782178369007609e-01 3.549998492728882127e+00
1.493187667335661439e-01 3.585816004158925097e+00
1.503593156302315270e-01 3.978008888826238376e+00
1.513998645268969101e-01 4.196374494637090891e+00
1.524404134235622932e-01 5.378242577483590026e+00
1.534809623202276763e-01 6.899346924838116735e+00
1.545215112168930593e-01 9.641713482342993302e+00
1.555620601135584424e-01 1.604223117525763698e+01
1.566026090102238255e-01 2.314447205192151102e+01
1.576431579068892086e-01 2.153862966503436738e+01
1.586837068035545917e-01 1.378461968816531069e+01
1.597242557002199748e-01 9.174409233951703158e+00
1.607648045968853578e-01 7.369456217223248728e+00
1.618053534935507409e-01 6.718610828924685308e+00
1.628459023902161240e-01 6.475761620089802051e+00
1.638864512868815071e-01 6.018560784077521930e+00
1.649270001835468902e-01 6.959967719284488652e+00
1.659675490802122733e-01 1.072618990585829124e+01
1.670080979768776563e-01 1.662402932750647011e+01
1.680486468735430672e-01 3.068925252924274361e+01
1.690891957702084503e-01 5.951256623880593111e+01
1.701297446668738333e-01 5.494346239691324740e+01
1.711702935635392164e-01 3.270456762371046011e+01
1.722108424602045995e-01 3.487014910100045739e+01
1.732513913568699826e-01 3.156121286435962148e+01
1.742919402535353657e-01 1.707177065553473128e+01
1.753324891502007488e-01 1.106050084224333929e+01
1.763730380468661318e-01 1.283674892904818421e+01
1.774135869435315149e-01 1.307803888541072013e+01
1.784541358401968980e-01 8.466623510189339896e+00
1.794946847368622811e-01 5.451976870249733764e+00
1.805352336335276642e-01 4.906511111457515284e+00
1.815757825301930473e-01 4.827534851865220134e+00
1.826163314268584303e-01 4.601969925728884192e+00
1.836568803235238134e-01 4.471467951852538647e+00
1.846974292201891965e-01 4.510188565015592843e+00
1.857379781168545796e-01 4.691691579936101419e+00
1.867785270135199627e-01 5.168320819761568430e+00
1.878190759101853458e-01 5.899840079220954436e+00
1.888596248068507288e-01 6.304792948231387584e+00
1.899001737035161119e-01 5.619693244140794519e+00
1.909407226001814950e-01 4.651842672169976822e+00
1.919812714968468781e-01 4.242275157024185006e+00
1.930218203935122612e-01 4.136248717177849699e+00
1.940623692901776443e-01 3.830770071392830545e+00
1.951029181868430273e-01 3.690198062945448498e+00
1.961434670835084104e-01 3.694953546279446499e+00
1.971840159801737935e-01 3.463884934803832749e+00
1.982245648768391766e-01 3.040356218255041654e+00
1.992651137735045597e-01 2.530760736984223769e+00
2.003056626701699428e-01 2.231932746032857295e+00
2.013462115668353813e-01 2.253597696295983610e+00
2.023867604635007644e-01 1.900972778703444277e+00
2.034273093601661475e-01 1.786938217093570813e+00
2.044678582568315306e-01 1.683793744889293009e+00
2.055084071534969137e-01 1.628633290494239105e+00
2.065489560501622968e-01 1.721606263925480107e+00
2.075895049468276798e-01 1.400421805085244387e+00
2.086300538434930629e-01 1.421510933004277888e+00
2.096706027401584460e-01 1.423362610036363662e+00
2.107111516368238291e-01 1.472562058723518419e+00
2.117517005334892122e-01 1.671531171928911874e+00
2.127922494301545953e-01 1.840124115537687288e+00
2.138327983268199783e-01 1.497675899958839096e+00
2.148733472234853614e-01 1.198605169370893009e+00
2.159138961201507445e-01 1.051710312463008279e+00
2.169544450168161276e-01 8.081313717750013836e-01
2.179949939134815107e-01 6.115483643752561704e-01
2.190355428101468938e-01 4.999647877791559836e-01
2.200760917068122768e-01 6.205960840538544687e-01
2.211166406034776599e-01 7.350620237940610480e-01
2.221571895001430430e-01 5.445426156209833835e-01
2.231977383968084261e-01 5.935687530322688588e-01
2.242382872934738092e-01 8.574019632716733952e-01
2.252788361901391923e-01 6.399348879548973912e-01
2.263193850868045753e-01 5.581906807649694713e-01
2.273599339834699584e-01 4.348647671133818449e-01
2.284004828801353415e-01 3.221745256451384876e-01
2.294410317768007246e-01 5.768787123302310249e-01
2.304815806734661077e-01 6.301655981001204054e-01
2.315221295701314908e-01 5.472186385230024541e-01
2.325626784667968738e-01 3.802347768622489355e-01
2.336032273634622569e-01 4.528889055792895135e-01
2.346437762601276400e-01 5.081487260299262232e-01
2.356843251567930231e-01 6.775473765149868655e-01
2.367248740534584062e-01 1.034465697454354682e+00
2.377654229501237892e-01 1.063233153955234656e+00
2.388059718467891723e-01 1.040655569010262127e+00
2.398465207434545554e-01 9.213601215100091224e-01
2.408870696401199385e-01 7.319209669016046860e-01
2.419276185367853216e-01 8.281960192000781262e-01
2.429681674334507047e-01 8.185887840115384506e-01
2.440087163301160877e-01 9.686561746516950677e-01
2.450492652267814708e-01 1.043324284847102490e+00
2.460898141234468539e-01 9.326832258449258006e-01
2.471303630201122370e-01 7.248935107951623991e-01
2.481709119167776201e-01 1.102629436189531020e+00
2.492114608134430032e-01 1.447633253860686864e+00
2.502520097101083585e-01 2.053726710617191031e+00
2.512925586067737416e-01 1.786857950331427247e+00
2.523331075034391247e-01 1.262692572879430486e+00
2.533736564001045077e-01 1.167604440376383224e+00
2.544142052967698908e-01 1.243903848435490289e+00
2.554547541934352739e-01 1.561416402961377514e+00
2.564953030901006570e-01 2.613003329982749534e+00
2.575358519867660401e-01 3.439237832029387931e+00
2.585764008834314231e-01 2.978265760608906021e+00
2.596169497800968062e-01 2.007878918799590906e+00
2.606574986767621893e-01 1.539003291518888261e+00
2.616980475734275724e-01 1.425422543375244544e+00
2.627385964700929555e-01 1.399605080215987840e+00
2.637791453667583386e-01 2.164101508203071234e+00
2.648196942634237216e-01 3.959029309446624012e+00
2.658602431600891047e-01 4.700740430321918240e+00
2.669007920567544878e-01 2.983993426144408545e+00
2.679413409534198709e-01 1.583294166132596104e+00
2.689818898500852540e-01 1.116396085929945770e+00
2.700224387467506371e-01 1.012642164129605504e+00
2.710629876434160201e-01 1.164148525873496709e+00
2.721035365400814032e-01 1.360459676942781471e+00
2.731440854367467863e-01 1.317950112489459258e+00
2.741846343334121694e-01 1.168085681231914918e+00
2.752251832300775525e-01 1.570624932274007790e+00
2.762657321267429356e-01 1.975411590903433989e+00
2.773062810234083186e-01 2.124382741870707747e+00
2.783468299200737017e-01 1.746037802248807225e+00
2.793873788167390848e-01 1.334885971201543953e+00
2.804279277134044679e-01 1.222644667622308390e+00
2.814684766100698510e-01 1.237595795702723933e+00
2.825090255067352341e-01 1.274406547137274970e+00
2.835495744034006171e-01 1.244548150456850522e+00
2.845901233000660002e-01 1.004306730370597478e+00
2.856306721967313833e-01 8.756567578014582409e-01
2.866712210933967664e-01 9.791226354779247742e-01
2.877117699900621495e-01 1.221698500669209153e+00
2.887523188867275326e-01 1.298859474259867142e+00
2.897928677833929156e-01 1.373148258997318294e+00
2.908334166800582987e-01 9.901179137795033114e-01
2.918739655767236818e-01 7.168698214882489594e-01
2.929145144733890649e-01 7.181944355526539425e-01
2.939550633700544480e-01 7.221271766766683697e-01
2.949956122667198311e-01 6.996129011888854166e-01
2.960361611633852141e-01 7.423254587334753296e-01
2.970767100600505972e-01 7.629666236942789226e-01
2.981172589567159803e-01 6.937019265141763924e-01
2.991578078533813634e-01 7.289738649642032442e-01
3.001983567500468020e-01 7.632683091907566109e-01
3.012389056467121851e-01 1.090374840537496226e+00
3.022794545433775681e-01 1.529229860237659722e+00
3.033200034400429512e-01 1.595476882918067218e+00
3.043605523367083343e-01 1.347404527620795989e+00
3.054011012333737174e-01 7.121564116892500351e-01
3.064416501300391005e-01 6.439488771208168316e-01
3.074821990267044836e-01 8.842991817280818623e-01
3.085227479233698666e-01 7.046655451271668369e-01
3.095632968200352497e-01 5.901783181710804627e-01
3.106038457167006328e-01 4.162106871827688792e-01
3.116443946133660159e-01 4.030778042220681812e-01
3.126849435100313990e-01 4.962603762187285383e-01
3.137254924066967821e-01 5.155323604256700776e-01
3.147660413033621651e-01 6.193619986694613999e-01
3.158065902000275482e-01 6.365846774305836675e-01
3.168471390966929313e-01 4.119744723253724317e-01
3.178876879933583144e-01 2.372924353256671282e-01
3.189282368900236975e-01 3.435072073117346747e-01
3.199687857866890806e-01 4.218782399855207643e-01
3.210093346833544636e-01 3.209857707017391704e-01
3.220498835800198467e-01 1.855525543309148873e-01
3.230904324766852298e-01 3.347641365874665098e-02
3.241309813733506129e-01 0.000000000000000000e+00
3.251715302700159960e-01 5.459710151027863390e-02
3.262120791666813790e-01 7.568243764317017508e-02
3.272526280633467621e-01 1.797433718278718118e-01
3.282931769600121452e-01 3.674118211788517385e-01
3.293337258566775283e-01 4.347638112774347974e-01
3.303742747533429114e-01 2.756167180317028453e-01
3.314148236500082945e-01 2.205485719336834904e-01
3.324553725466736775e-01 3.116039054315145052e-01
3.334959214433390606e-01 2.561886347755830684e-01
3.345364703400044437e-01 1.741885287472832999e-01
3.355770192366698268e-01 4.909505804150633423e-01
3.366175681333352099e-01 7.351225864109203201e-01
3.376581170300005930e-01 7.878193060430369599e-01
3.386986659266659760e-01 7.678411249668002370e-01
3.397392148233313591e-01 7.002509166519352846e-01
3.407797637199967422e-01 5.248645959390607629e-01
3.418203126166621253e-01 4.226334595926140025e-01
3.428608615133275084e-01 3.604290750377963093e-01
3.439014104099928915e-01 3.277097138838023227e-01
3.449419593066582745e-01 4.040935762679858101e-01
3.459825082033236576e-01 6.206263239650660068e-01
3.470230570999890407e-01 6.985281624880208540e-01
3.480636059966544238e-01 6.556981664233667573e-01
3.491041548933198069e-01 6.343677166552623703e-01
3.501447037899851900e-01 4.817172495039550029e-01
3.511852526866505730e-01 5.171287149975434261e-01
3.522258015833159561e-01 6.267308120747685507e-01
3.532663504799813392e-01 7.489620888455625902e-01
3.543068993766467223e-01 7.266354023467052059e-01
3.553474482733121054e-01 6.318977221984454218e-01
3.563879971699774885e-01 5.669259741602097336e-01
3.574285460666428715e-01 7.475011030980134308e-01
3.584690949633082546e-01 7.182845193889910718e-01
3.595096438599736377e-01 4.666979552650509788e-01
3.605501927566390208e-01 5.242022869831401977e-01
3.615907416533044039e-01 8.335717454305928698e-01
3.626312905499697870e-01 1.289938174365310886e+00
3.636718394466351700e-01 1.306011090131431018e+00
3.647123883433005531e-01 1.457798435444228602e+00
3.657529372399659362e-01 1.260289809827650487e+00
3.667934861366313193e-01 1.222601616445391670e+00
3.678340350332967024e-01 9.008961219548901056e-01
3.688745839299620854e-01 6.635924116960651986e-01
3.699151328266274685e-01 6.133333695641702832e-01
3.709556817232928516e-01 6.694371725010199725e-01
3.719962306199582347e-01 7.448202955705838235e-01
3.730367795166236178e-01 9.798683366069873557e-01
3.740773284132890009e-01 1.106391878590965661e+00
3.751178773099543839e-01 7.757884597444117958e-01
3.761584262066197670e-01 8.324376809140368039e-01
3.771989751032851501e-01 7.922800413389943230e-01
3.782395239999505332e-01 7.234596620393105582e-01
3.792800728966159163e-01 7.930539240581495619e-01
3.803206217932812994e-01 9.618998708655048802e-01
3.813611706899466824e-01 9.883051465768630806e-01
3.824017195866120655e-01 9.148340443497353647e-01
3.834422684832774486e-01 7.140412557730790866e-01
3.844828173799428317e-01 8.011316526456155884e-01
3.855233662766082148e-01 7.199812165191410429e-01
3.865639151732735979e-01 7.282318000880820819e-01
3.876044640699389809e-01 6.291795978224747898e-01
3.886450129666043640e-01 5.774878982935440774e-01
3.896855618632697471e-01 4.427940692488938623e-01
3.907261107599351302e-01 4.618050231733548117e-01
3.917666596566005133e-01 6.878981194529956156e-01
3.928072085532658964e-01 6.697900301296151326e-01
3.938477574499312794e-01 5.320879911483622493e-01
3.948883063465966625e-01 5.007012132177308672e-01
3.959288552432620456e-01 4.620627251981410666e-01
3.969694041399274287e-01 5.019052928241478639e-01
3.980099530365928118e-01 3.586743205307314497e-01
3.990505019332581949e-01 3.372027468575460318e-01
4.000910508299235779e-01 2.550064848896234082e-01
4.011315997265889610e-01 2.529111402676313958e-01
4.021721486232543441e-01 4.390048548307952103e-01
4.032126975199197272e-01 5.021475678354718752e-01
4.042532464165851103e-01 4.841203679909362734e-01
4.052937953132504934e-01 3.850796857925402605e-01
4.063343442099158764e-01 3.411627342091065884e-01
4.073748931065812595e-01 5.009782406962060008e-01
4.084154420032466426e-01 4.838602231425639388e-01
4.094559908999120257e-01 4.203896841898284720e-01
4.104965397965774088e-01 5.042074900579933683e-01
4.115370886932427918e-01 6.104625886998782391e-01
4.125776375899081749e-01 4.560834735651724259e-01
4.136181864865735580e-01 4.194707413294267440e-01
4.146587353832389411e-01 3.900271564392312484e-01
4.156992842799043242e-01 3.969710899377716373e-01
4.167398331765697073e-01 4.312488013704118828e-01
4.177803820732350903e-01 3.567183304591310389e-01
4.188209309699004734e-01 2.738554834889050937e-01
4.198614798665658565e-01 4.087626978887861640e-01
4.209020287632312396e-01 5.111474814355858598e-01
4.219425776598966227e-01 4.158070794633985656e-01
4.229831265565620058e-01 5.790229611558928013e-01
4.240236754532273888e-01 5.395104609918703886e-01
4.250642243498927719e-01 5.377406072452473040e-01
4.261047732465581550e-01 7.449572782180808872e-01
4.271453221432235381e-01 5.905389296589014236e-01
4.281858710398889212e-01 3.612260136457372539e-01
4.292264199365543043e-01 4.050843374945536368e-01
4.302669688332196873e-01 4.647541375117469897e-01
4.313075177298850704e-01 4.182775374423606252e-01
4.323480666265504535e-01 5.116284280758911507e-01
4.333886155232158366e-01 5.046811810624909356e-01
4.344291644198812197e-01 5.154186192806449185e-01
