# q (1/Angstrom), Intensity (arb)
2.029070354705860696e-02 5.239036314292181942e+02
2.133125244372399004e-02 5.235742359861673094e+02
2.237180134038937659e-02 5.209769751248188641e+02
2.341235023705475968e-02 5.203827354039441389e+02
2.445289913372014276e-02 5.144760932126276884e+02
2.549344803038552584e-02 5.105522708436097901e+02
2.653399692705091240e-02 5.064474077062988613e+02
2.757454582371629548e-02 4.991521817139613972e+02
2.861509472038167856e-02 4.944354432732590112e+02
2.965564361704706164e-02 4.903338370485384985e+02
3.069619251371244473e-02 4.826255980898859548e+02
3.173674141037782781e-02 4.758823943769473317e+02
3.277729030704321089e-02 4.705868067593221440e+02
3.381783920370859398e-02 4.632808568505003564e+02
3.485838810037397706e-02 4.559419341815196844e+02
3.589893699703936014e-02 4.482770282403045599e+02
3.693948589370474322e-02 4.408455198012134701e+02
3.798003479037012631e-02 4.319635995751783071e+02
3.902058368703550939e-02 4.238772252981910356e+02
4.006113258370089247e-02 4.166115485291588811e+02
4.110168148036627556e-02 4.094532919967483622e+02
4.214223037703165864e-02 4.028293482500217237e+02
4.318277927369704866e-02 3.927309721503430637e+02
4.422332817036243174e-02 3.862636595774861235e+02
4.526387706702781483e-02 3.785881162392578290e+02
4.630442596369319791e-02 3.712516793175660723e+02
4.734497486035858099e-02 3.602540854519530740e+02
4.838552375702396408e-02 3.515116456823564022e+02
4.942607265368934716e-02 3.439859692239459150e+02
5.046662155035473024e-02 3.347638492838662501e+02
5.150717044702011332e-02 3.257748227104953571e+02
5.254771934368549641e-02 3.187102991910260812e+02
5.358826824035087949e-02 3.115920144302838253e+02
5.462881713701626257e-02 3.027799616485506249e+02
5.566936603368164566e-02 2.952998089489144036e+02
5.670991493034702874e-02 2.860715911143417998e+02
5.775046382701241182e-02 2.776345933322273254e+02
5.879101272367779490e-02 2.693339586486148391e+02
5.983156162034317799e-02 2.612417419380188903e+02
6.087211051700856107e-02 2.531663393253089964e+02
6.191265941367394415e-02 2.451198089016234007e+02
6.295320831033933417e-02 2.373769545406925658e+02
6.399375720700471726e-02 2.298397899695397086e+02
6.503430610367010034e-02 2.208891007509887743e+02
6.607485500033548342e-02 2.128455537262123585e+02
6.711540389700086651e-02 2.059003646630228843e+02
6.815595279366624959e-02 1.991804260685421468e+02
6.919650169033163267e-02 1.911346253926076884e+02
7.023705058699701576e-02 1.841168490177538217e+02
7.127759948366239884e-02 1.782391251009773896e+02
7.231814838032778192e-02 1.729196770587795413e+02
7.335869727699316500e-02 1.666407709848882917e+02
7.439924617365854809e-02 1.603493006271630748e+02
7.543979507032393117e-02 1.536465674353775057e+02
7.648034396698931425e-02 1.476137987578803461e+02
7.752089286365469734e-02 1.443873933434123273e+02
7.856144176032008042e-02 1.409483291341985591e+02
7.960199065698546350e-02 1.390560825980800814e+02
8.064253955365084658e-02 1.486717927093888818e+02
8.168308845031622967e-02 2.245564008011736803e+02
8.272363734698161275e-02 4.739743303090082804e+02
8.376418624364699583e-02 6.117812511112434777e+02
8.480473514031239279e-02 3.976379388430810877e+02
8.584528403697777588e-02 2.570281125168754102e+02
8.688583293364315896e-02 3.407960181008924110e+02
8.792638183030854204e-02 6.320455809641669020e+02
8.896693072697392513e-02 6.777169864316881558e+02
9.000747962363930821e-02 3.822566307127397636e+02
9.104802852030469129e-02 2.625984983305949640e+02
9.208857741697007437e-02 3.463535867083463131e+02
9.312912631363545746e-02 6.494799035084756724e+02
9.416967521030084054e-02 9.957824867509275464e+02
9.521022410696622362e-02 8.167417721812930722e+02
9.625077300363160671e-02 3.810487476052376792e+02
9.729132190029698979e-02 1.782963773235938731e+02
9.833187079696237287e-02 1.130269631320610699e+02
9.937241969362775595e-02 8.410253413035758285e+01
1.004129685902931390e-01 7.175375825348801584e+01
1.014535174869585221e-01 6.878891025073991727e+01
1.024940663836239052e-01 6.158272595428073970e+01
1.035346152802892883e-01 4.751179690168309833e+01
1.045751641769546714e-01 3.774911042363827107e+01
1.056157130736200545e-01 3.213691226026709558e+01
1.066562619702854375e-01 2.817191493648063627e+01
1.076968108669508206e-01 2.512536697460716439e+01
1.087373597636162037e-01 2.254871391159398186e+01
1.097779086602815868e-01 2.011612918652627968e+01
1.108184575569469699e-01 1.820838558833139942e+01
1.118590064536123529e-01 1.652933513203917215e+01
1.128995553502777360e-01 1.539040512550553785e+01
1.139401042469431191e-01 1.367913795753658945e+01
1.149806531436085022e-01 1.229980701119924547e+01
1.160212020402738853e-01 1.087476793426118604e+01
1.170617509369392684e-01 1.024849481030115683e+01
1.181022998336046514e-01 9.466913470429396682e+00
1.191428487302700345e-01 9.127887173091298934e+00
1.201833976269354176e-01 9.264152025034672278e+00
1.212239465236008007e-01 9.119430009061087361e+00
1.222644954202661838e-01 7.858512766747324463e+00
1.233050443169315669e-01 5.545358608173742709e+00
1.243455932135969499e-01 4.096047590147769313e+00
1.253861421102623330e-01 3.143128484309897885e+00
1.264266910069277161e-01 2.541380271713840955e+00
1.274672399035930992e-01 2.347581023358365826e+00
1.285077888002584823e-01 1.926379940383728950e+00
1.295483376969238654e-01 1.741981263151565429e+00
1.305888865935892484e-01 1.820089639163338546e+00
1.316294354902546315e-01 1.869022273948164781e+00
1.326699843869200146e-01 1.379793824649070189e+00
1.337105332835853977e-01 1.177019729608613119e+00
1.347510821802507808e-01 1.639559451457309081e+00
1.357916310769161639e-01 1.295974161824965165e+00
1.368321799735815469e-01 1.275461188700074189e+00
1.378727288702469300e-01 1.577825811397353561e+00
1.389132777669123131e-01 1.367100991872788995e+00
1.399538266635776962e-01 1.442477711045452082e+00
1.409943755602430793e-01 2.142458791020054321e+00
1.420349244569084624e-01 2.923419239575562045e+00
1.430754733535738454e-01 7.505812207173203632e+00
1.441160222502392285e-01 1.558400951634874687e+01
1.451565711469046116e-01 1.406167990763283981e+01
1.461971200435699947e-01 6.431778928756582303e+00
1.472376689402353778e-01 3.901719640834119929e+00
1.482782178369007609e-01 3.574107682597325919e+00
1.493187667335661439e-01 3.867828352618467136e+00
1.503593156302315270e-01 4.393579520037892649e+00
1.513998645268969101e-01 4.831348320626918991e+00
1.524404134235622932e-01 5.851509723852984735e+00
1.534809623202276763e-01 7.018621966128495870e+00
1.545215112168930593e-01 9.902888922432367735e+00
1.555620601135584424e-01 1.632375564218217434e+01
1.566026090102238255e-01 2.333574755696089653e+01
1.576431579068892086e-01 2.129744339513245421e+01
1.586837068035545917e-01 1.393490720551947959e+01
1.597242557002199748e-01 9.595409672139826540e+00
1.607648045968853578e-01 7.724040872027888582e+00
1.618053534935507409e-01 7.264955942705405789e+00
1.628459023902161240e-01 6.973000655002085324e+00
1.638864512868815071e-01 6.806458637947230272e+00
1.649270001835468902e-01 7.668115844013382087e+00
1.659675490802122733e-01 1.119826963272532083e+01
1.670080979768776563e-01 1.704765064273669140e+01
1.680486468735430672e-01 3.141348122114340669e+01
1.690891957702084503e-01 5.986138448547354329e+01
1.701297446668738333e-01 5.397240135481025902e+01
1.711702935635392164e-01 3.264721723248629104e+01
1.722108424602045995e-01 3.513206215924923015e+01
1.732513913568699826e-01 3.155066549344443771e+01
1.742919402535353657e-01 1.729418337755255664e+01
1.753324891502007488e-01 1.159225854816923018e+01
1.763730380468661318e-01 1.331880805469897311e+01
1.774135869435315149e-01 1.349283624271936333e+01
1.784541358401968980e-01 9.204930516659484141e+00
1.794946847368622811e-01 6.226053865031140333e+00
1.805352336335276642e-01 5.526219169223079319e+00
1.815757825301930473e-01 5.167772333062831791e+00
1.826163314268584303e-01 4.883979258732516371e+00
1.836568803235238134e-01 5.037231593198068680e+00
1.846974292201891965e-01 5.257416947991000455e+00
1.857379781168545796e-01 5.356929271923664970e+00
1.867785270135199627e-01 5.391767908073259008e+00
1.878190759101853458e-01 6.175039833511256404e+00
1.888596248068507288e-01 6.530307327772995052e+00
1.899001737035161119e-01 5.949882892654187572e+00
1.909407226001814950e-01 4.965782228130013465e+00
1.919812714968468781e-01 4.445207637543781232e+00
1.930218203935122612e-01 4.179144195998009792e+00
1.940623692901776443e-01 3.977297214424925897e+00
1.951029181868430273e-01 4.044349011230821134e+00
1.961434670835084104e-01 4.059992096574713827e+00
1.971840159801737935e-01 3.574742674194077097e+00
1.982245648768391766e-01 3.251109536194473293e+00
1.992651137735045597e-01 2.731730440705717911e+00
2.003056626701699428e-01 2.414720266948837235e+00
2.013462115668353813e-01 2.270215048713673411e+00
2.023867604635007644e-01 1.900592684281861011e+00
2.034273093601661475e-01 1.797508092569710669e+00
2.044678582568315306e-01 1.843900649926357715e+00
2.055084071534969137e-01 1.685101393126011260e+00
2.065489560501622968e-01 1.441314135941166086e+00
2.075895049468276798e-01 1.324521083098257890e+00
2.086300538434930629e-01 1.416456371662317082e+00
2.096706027401584460e-01 1.360399610134905402e+00
2.107111516368238291e-01 1.350713476263031509e+00
2.117517005334892122e-01 1.652500822657039237e+00
2.127922494301545953e-01 1.900619912567403702e+00
2.138327983268199783e-01 1.669732438445194589e+00
2.148733472234853614e-01 1.279731280852665520e+00
2.159138961201507445e-01 9.772270675485614788e-01
2.169544450168161276e-01 8.336170968943861226e-01
2.179949939134815107e-01 5.353966281687689843e-01
2.190355428101468938e-01 2.544132715147320312e-01
2.200760917068122768e-01 4.997679940500567852e-01
2.211166406034776599e-01 4.797511272526691073e-01
2.221571895001430430e-01 5.533666107221399955e-01
2.231977383968084261e-01 5.539864200289024154e-01
2.242382872934738092e-01 5.879700944156631692e-01
2.252788361901391923e-01 4.863743831177451682e-01
2.263193850868045753e-01 4.834733257903245374e-01
2.273599339834699584e-01 4.075132274880282068e-01
2.284004828801353415e-01 4.461217180796239745e-01
2.294410317768007246e-01 7.492751743261862885e-01
2.304815806734661077e-01 3.848883355367114234e-01
2.315221295701314908e-01 3.297171579931337249e-01
2.325626784667968738e-01 4.075623497278044738e-01
2.336032273634622569e-01 4.197356307608544057e-01
2.346437762601276400e-01 3.767760476441281980e-01
2.356843251567930231e-01 6.471408113598613454e-01
2.367248740534584062e-01 9.475911688455873616e-01
2.377654229501237892e-01 8.492199410997010034e-01
2.388059718467891723e-01 6.139927923063588366e-01
2.398465207434545554e-01 6.098290218637849591e-01
2.408870696401199385e-01 5.387274180118453160e-01
2.419276185367853216e-01 8.073693786611464418e-01
2.429681674334507047e-01 1.026015511497231358e+00
2.440087163301160877e-01 9.638442218911826842e-01
2.450492652267814708e-01 8.659270474384044292e-01
2.460898141234468539e-01 9.385426343895204582e-01
2.471303630201122370e-01 7.360399246974580478e-01
2.481709119167776201e-01 8.989784412264327784e-01
2.492114608134430032e-01 1.443766797201629259e+00
2.502520097101083585e-01 1.967777429572489467e+00
2.512925586067737416e-01 1.564166806692981027e+00
2.523331075034391247e-01 1.358650756389984338e+00
2.533736564001045077e-01 1.181025123979825509e+00
2.544142052967698908e-01 1.287901947031762973e+00
2.554547541934352739e-01 1.555960338553280309e+00
2.564953030901006570e-01 2.520282745792961521e+00
2.575358519867660401e-01 3.316634009207060529e+00
2.585764008834314231e-01 2.672760433820908332e+00
2.596169497800968062e-01 1.822373023045550156e+00
2.606574986767621893e-01 1.489627053028971915e+00
2.616980475734275724e-01 1.212712454897676650e+00
2.627385964700929555e-01 1.328284958239528635e+00
2.637791453667583386e-01 2.242755176202809508e+00
2.648196942634237216e-01 4.004543288370122411e+00
2.658602431600891047e-01 4.451938425828235069e+00
2.669007920567544878e-01 2.662650834501295805e+00
2.679413409534198709e-01 1.611761724033033971e+00
2.689818898500852540e-01 1.284254152501759449e+00
2.700224387467506371e-01 1.172137961987736787e+00
2.710629876434160201e-01 1.131128632601715367e+00
2.721035365400814032e-01 1.317184034732147069e+00
2.731440854367467863e-01 1.366286371406165046e+00
2.741846343334121694e-01 1.180879345050605878e+00
2.752251832300775525e-01 1.488709667770706346e+00
2.762657321267429356e-01 1.857647915545612705e+00
2.773062810234083186e-01 1.945655929816282992e+00
2.783468299200737017e-01 1.802583807596597865e+00
2.793873788167390848e-01 1.402873971055981883e+00
2.804279277134044679e-01 1.255879992969479275e+00
2.814684766100698510e-01 1.203945980103942048e+00
2.825090255067352341e-01 1.315825395183850333e+00
2.835495744034006171e-01 1.287080373785244092e+00
2.845901233000660002e-01 1.074968151110947900e+00
2.856306721967313833e-01 9.395388151579560088e-01
2.866712210933967664e-01 1.054623400719815862e+00
2.877117699900621495e-01 1.296878695128551584e+00
2.887523188867275326e-01 1.369783599042129651e+00
2.897928677833929156e-01 1.179473445572323698e+00
2.908334166800582987e-01 9.030379334869209629e-01
2.918739655767236818e-01 4.345218284509719808e-01
2.929145144733890649e-01 4.356340362988753157e-01
2.939550633700544480e-01 6.787819643572170492e-01
2.949956122667198311e-01 5.447127733283032569e-01
2.960361611633852141e-01 5.033115488605766075e-01
2.970767100600505972e-01 6.368211946957487157e-01
2.981172589567159803e-01 6.776772147616689779e-01
2.991578078533813634e-01 7.558782678457802717e-01
3.001983567500468020e-01 7.146016731866211558e-01
3.012389056467121851e-01 9.885406407052066413e-01
3.022794545433775681e-01 1.366271402084045405e+00
3.033200034400429512e-01 1.318124318937741180e+00
3.043605523367083343e-01 1.080697436202814998e+00
3.054011012333737174e-01 6.180195970610711242e-01
3.064416501300391005e-01 4.894601555854016794e-01
3.074821990267044836e-01 5.539667128476288838e-01
3.085227479233698666e-01 3.608808020165632513e-01
3.095632968200352497e-01 2.734936953766720080e-01
3.106038457167006328e-01 3.263627877197095017e-01
3.116443946133660159e-01 3.248543790798450459e-01
3.126849435100313990e-01 3.561911271099731380e-01
3.137254924066967821e-01 4.910016326348305427e-01
3.147660413033621651e-01 5.408661755714589958e-01
3.158065902000275482e-01 4.856661381841149705e-01
3.168471390966929313e-01 3.273579034982390112e-01
3.178876879933583144e-01 1.452384690497154907e-01
3.189282368900236975e-01 1.655351258556336802e-01
3.199687857866890806e-01 3.679722538816498911e-01
3.210093346833544636e-01 2.705568675689278280e-01
3.220498835800198467e-01 1.204329000726325205e-01
3.230904324766852298e-01 1.008493253405475798e-01
3.241309813733506129e-01 2.055985453276640840e-01
3.251715302700159960e-01 2.646121849500957524e-01
3.262120791666813790e-01 3.081281670413247298e-01
3.272526280633467621e-01 4.288923391486783032e-01
3.282931769600121452e-01 3.654223854192153453e-01
3.293337258566775283e-01 2.456266703851071043e-01
3.303742747533429114e-01 2.123468588701413751e-01
3.314148236500082945e-01 0.000000000000000000e+00
3.324553725466736775e-01 7.861987225030375726e-02
3.334959214433390606e-01 2.052402745217563051e-01
3.345364703400044437e-01 2.311169803611292650e-01
3.355770192366698268e-01 5.105153130069126632e-01
3.366175681333352099e-01 6.318427527668220023e-01
3.376581170300005930e-01 4.983188554493054312e-01
3.386986659266659760e-01 4.778465319436868697e-01
3.397392148233313591e-01 5.168105010882442230e-01
3.407797637199967422e-01 3.816276557962900995e-01
3.418203126166621253e-01 4.690094471793351261e-01
3.428608615133275084e-01 4.111490204688728056e-01
3.439014104099928915e-01 2.184910804317112820e-01
3.449419593066582745e-01 3.201314704845898973e-01
3.459825082033236576e-01 4.394719713458776766e-01
3.470230570999890407e-01 3.906285634583603894e-01
3.480636059966544238e-01 3.498671426373434201e-01
3.491041548933198069e-01 5.508566264910470522e-01
3.501447037899851900e-01 4.825266081277987951e-01
3.511852526866505730e-01 5.328623729200892001e-01
3.522258015833159561e-01 4.062294336039826703e-01
3.532663504799813392e-01 5.031292154765694136e-01
3.543068993766467223e-01 5.337643687485318367e-01
3.553474482733121054e-01 4.275218259145994182e-01
3.563879971699774885e-01 3.346877038534294968e-01
3.574285460666428715e-01 5.249733826979863238e-01
3.584690949633082546e-01 5.132300303622159277e-01
3.595096438599736377e-01 4.340813466317179348e-01
3.605501927566390208e-01 5.056216036730276642e-01
3.615907416533044039e-01 6.718636301967819691e-01
3.626312905499697870e-01 7.635267451150831164e-01
3.636718394466351700e-01 7.603516699762913333e-01
3.647123883433005531e-01 8.113624487734938384e-01
3.657529372399659362e-01 1.075611465740429651e+00
3.667934861366313193e-01 1.006097863308838214e+00
3.678340350332967024e-01 7.898567792109503216e-01
3.688745839299620854e-01 7.408259531325747105e-01
3.699151328266274685e-01 5.126003308164968075e-01
3.709556817232928516e-01 5.300786826012782171e-01
3.719962306199582347e-01 6.781386430013931488e-01
3.730367795166236178e-01 6.660343117127354162e-01
3.740773284132890009e-01 7.515367119123368411e-01
3.751178773099543839e-01 6.218984766150192911e-01
3.761584262066197670e-01 6.602833431172356882e-01
3.771989751032851501e-01 6.567518421718787636e-01
3.782395239999505332e-01 6.074497446236470921e-01
3.792800728966159163e-01 6.514961822756895060e-01
3.803206217932812994e-01 7.646661410326203168e-01
3.813611706899466824e-01 7.697528784391742818e-01
3.824017195866120655e-01 7.673606137675044181e-01
3.834422684832774486e-01 4.933112516430497863e-01
3.844828173799428317e-01 4.317977670275148228e-01
3.855233662766082148e-01 2.888245915700160538e-01
3.865639151732735979e-01 4.131535634715675087e-01
3.876044640699389809e-01 4.073779409775433180e-01
3.886450129666043640e-01 4.491759177510417089e-01
3.896855618632697471e-01 3.599594482360402026e-01
3.907261107599351302e-01 4.450591095894615989e-01
3.917666596566005133e-01 5.432549796864236669e-01
3.928072085532658964e-01 4.859722583236205651e-01
3.938477574499312794e-01 3.053240741659521973e-01
3.948883063465966625e-01 2.862477038785904426e-01
3.959288552432620456e-01 1.225370978706123992e-01
3.969694041399274287e-01 1.467039712190612022e-01
3.980099530365928118e-01 1.321039028654773517e-01
3.990505019332581949e-01 7.644353717496699119e-02
4.000910508299235779e-01 1.179871829208494205e-01
4.011315997265889610e-01 1.875528540575750469e-01
4.021721486232543441e-01 2.370474670696154362e-01
4.032126975199197272e-01 2.387815152795447204e-01
4.042532464165851103e-01 2.989504854844966530e-01
4.052937953132504934e-01 2.738231641627706381e-01
4.063343442099158764e-01 2.921981702424822913e-01
4.073748931065812595e-01 2.640359550381141673e-01
4.084154420032466426e-01 3.343377218359044889e-01
4.094559908999120257e-01 4.481702582644508936e-01
4.104965397965774088e-01 3.098312407944767699e-01
4.115370886932427918e-01 1.760702239556053428e-01
4.125776375899081749e-01 1.818522908378454872e-01
4.136181864865735580e-01 1.980690493536094721e-01
4.146587353832389411e-01 2.085706911726035173e-01
4.156992842799043242e-01 1.872348110608825777e-01
4.167398331765697073e-01 4.363405624289029561e-02
4.177803820732350903e-01 9.561746794557279827e-02
4.188209309699004734e-01 1.078411149561553373e-01
4.198614798665658565e-01 5.086267808576039329e-02
4.209020287632312396e-01 2.258131875927276155e-01
4.219425776598966227e-01 4.468009562691293013e-01
4.229831265565620058e-01 4.549743753257367018e-01
4.240236754532273888e-01 3.814752623339785487e-01
4.250642243498927719e-01 2.628470223520373850e-01
4.261047732465581550e-01 4.099684718443654674e-01
4.271453221432235381e-01 3.197059525385697043e-01
4.281858710398889212e-01 1.779417549138422316e-01
4.292264199365543043e-01 3.033211381525298123e-01
4.302669688332196873e-01 3.817439044265569237e-01
4.313075177298850704e-01 3.624899198856681437e-01
4.323480666265504535e-01 2.445019505936585347e-01
4.333886155232158366e-01 2.488714490962316006e-01
4.344291644198812197e-01 3.679402336327548539e-01
