# q (1/Angstrom), Intensity (arb)
2.029070354705860696e-02 5.640092401984601338e+02
2.133125244372399004e-02 5.624445331944859845e+02
2.237180134038937659e-02 5.553439022072279840e+02
2.341235023705475968e-02 5.481461012835957263e+02
2.445289913372014276e-02 5.438257766469589569e+02
2.549344803038552584e-02 5.380486487220840672e+02
2.653399692705091240e-02 5.343259994077662896e+02
2.757454582371629548e-02 5.284865789904469011e+02
2.861509472038167856e-02 5.191622700440732388e+02
2.965564361704706164e-02 5.111589429700431992e+02
3.069619251371244473e-02 5.055624956863972557e+02
3.173674141037782781e-02 5.021472486513089279e+02
3.277729030704321089e-02 4.958278778441504073e+02
3.381783920370859398e-02 4.896424229920415883e+02
3.485838810037397706e-02 4.809931648363838121e+02
3.589893699703936014e-02 4.729871103794138776e+02
3.693948589370474322e-02 4.653447403478165256e+02
3.798003479037012631e-02 4.563236731374220199e+02
3.902058368703550939e-02 4.467428998516277829e+02
4.006113258370089247e-02 4.393624666078840164e+02
4.110168148036627556e-02 4.304923417007466355e+02
4.214223037703165864e-02 4.219683686115125170e+02
4.318277927369704866e-02 4.143897430066829202e+02
4.422332817036243174e-02 4.043016023003064561e+02
4.526387706702781483e-02 3.966829593306989636e+02
4.630442596369319791e-02 3.894045757202470099e+02
4.734497486035858099e-02 3.815583452037370193e+02
4.838552375702396408e-02 3.717133975058221722e+02
4.942607265368934716e-02 3.623675684734262745e+02
5.046662155035473024e-02 3.544260106058080737e+02
5.150717044702011332e-02 3.437919647006949617e+02
5.254771934368549641e-02 3.355495545414447633e+02
5.358826824035087949e-02 3.263626733913335443e+02
5.462881713701626257e-02 3.161326657226692873e+02
5.566936603368164566e-02 3.091843896370439779e+02
5.670991493034702874e-02 3.004619490486068116e+02
5.775046382701241182e-02 2.922283760287281211e+02
5.879101272367779490e-02 2.818708599908792394e+02
5.983156162034317799e-02 2.727676954447496200e+02
6.087211051700856107e-02 2.652230169365472534e+02
6.191265941367394415e-02 2.579913645003773581e+02
6.295320831033933417e-02 2.489265796256892713e+02
6.399375720700471726e-02 2.409974913055057755e+02
6.503430610367010034e-02 2.337198080455687546e+02
6.607485500033548342e-02 2.254702313951187591e+02
6.711540389700086651e-02 2.165444838563099381e+02
6.815595279366624959e-02 2.081031773180369555e+02
6.919650169033163267e-02 2.010053391146029753e+02
7.023705058699701576e-02 1.933612477433444496e+02
7.127759948366239884e-02 1.864966987211670926e+02
7.231814838032778192e-02 1.805790090173759950e+02
7.335869727699316500e-02 1.739533341447878172e+02
7.439924617365854809e-02 1.669855392204505620e+02
7.543979507032393117e-02 1.617694986210764228e+02
7.648034396698931425e-02 1.562448643276366909e+02
7.752089286365469734e-02 1.509573268684353593e+02
7.856144176032008042e-02 1.468803313192772748e+02
7.960199065698546350e-02 1.460018629251188145e+02
8.064253955365084658e-02 1.540155554670350284e+02
8.168308845031622967e-02 2.259738540469566033e+02
8.272363734698161275e-02 4.727450749989358769e+02
8.376418624364699583e-02 6.098325346933789888e+02
8.480473514031239279e-02 3.969393708814104684e+02
8.584528403697777588e-02 2.569897025332079465e+02
8.688583293364315896e-02 3.388182085480356136e+02
8.792638183030854204e-02 6.317535209269879033e+02
8.896693072697392513e-02 6.785763743767482765e+02
9.000747962363930821e-02 3.800928094950242553e+02
9.104802852030469129e-02 2.622614110181474985e+02
9.208857741697007437e-02 3.455288532215029136e+02
9.312912631363545746e-02 6.446051366990033102e+02
9.416967521030084054e-02 9.853391366468603110e+02
9.521022410696622362e-02 8.058413040050276095e+02
9.625077300363160671e-02 3.772824750466302817e+02
9.729132190029698979e-02 1.781478369848558145e+02
9.833187079696237287e-02 1.139503161756122722e+02
9.937241969362775595e-02 8.564399172204075228e+01
1.004129685902931390e-01 7.326296689033128473e+01
1.014535174869585221e-01 7.005558905560752692e+01
1.024940663836239052e-01 6.234648076125010618e+01
1.035346152802892883e-01 4.823053007787132174e+01
1.045751641769546714e-01 3.889221010006121304e+01
1.056157130736200545e-01 3.358110019396378476e+01
1.066562619702854375e-01 2.996182505192898304e+01
1.076968108669508206e-01 2.663446861898301421e+01
1.087373597636162037e-01 2.329664130092612950e+01
1.097779086602815868e-01 2.116662699110733925e+01
1.108184575569469699e-01 1.912813466013171748e+01
1.118590064536123529e-01 1.710810495053193137e+01
1.128995553502777360e-01 1.545649345263955254e+01
1.139401042469431191e-01 1.403867977265981182e+01
1.149806531436085022e-01 1.233821432863467749e+01
1.160212020402738853e-01 1.104335748498502312e+01
1.170617509369392684e-01 1.070834255184036010e+01
1.181022998336046514e-01 9.802644358959629045e+00
1.191428487302700345e-01 9.178720669350312278e+00
1.201833976269354176e-01 9.410214692728501973e+00
1.212239465236008007e-01 9.317337251815406063e+00
1.222644954202661838e-01 8.064796064372288242e+00
1.233050443169315669e-01 6.024081533581199466e+00
1.243455932135969499e-01 4.302805518274809060e+00
1.253861421102623330e-01 3.128890692377737537e+00
1.264266910069277161e-01 2.524895879276808586e+00
1.274672399035930992e-01 2.485058226048092678e+00
1.285077888002584823e-01 2.017352249899222016e+00
1.295483376969238654e-01 1.873597388777817230e+00
1.305888865935892484e-01 2.062498163335909851e+00
1.316294354902546315e-01 1.828554603348536034e+00
1.326699843869200146e-01 1.445830339852392399e+00
1.337105332835853977e-01 1.498214601577135596e+00
1.347510821802507808e-01 1.500190678568749547e+00
1.357916310769161639e-01 1.451778855325493112e+00
1.368321799735815469e-01 1.522538719346471225e+00
1.378727288702469300e-01 1.677374477726726099e+00
1.389132777669123131e-01 1.730430361128711070e+00
1.399538266635776962e-01 1.851677954792112502e+00
1.409943755602430793e-01 2.385676865466606955e+00
1.420349244569084624e-01 3.178850068052618383e+00
1.430754733535738454e-01 7.220035246609597834e+00
1.441160222502392285e-01 1.522703813559612485e+01
1.451565711469046116e-01 1.402537169135126760e+01
1.461971200435699947e-01 6.883090177204138627e+00
1.472376689402353778e-01 4.218275842676895593e+00
1.482782178369007609e-01 3.870503917793836735e+00
1.493187667335661439e-01 4.252933833277413811e+00
1.503593156302315270e-01 4.736018653216145680e+00
1.513998645268969101e-01 5.067329862771767779e+00
1.524404134235622932e-01 6.037388849648181122e+00
1.534809623202276763e-01 7.285301763495297678e+00
1.545215112168930593e-01 1.036564655761557319e+01
1.555620601135584424e-01 1.650535155149246691e+01
1.566026090102238255e-01 2.289335409807450006e+01
1.576431579068892086e-01 2.079787968439984880e+01
1.586837068035545917e-01 1.422128900542415053e+01
1.597242557002199748e-01 9.927332147891185343e+00
1.607648045968853578e-01 8.273283824877562864e+00
1.618053534935507409e-01 7.649876307373865814e+00
1.628459023902161240e-01 6.955932385503846405e+00
1.638864512868815071e-01 6.848185541708787127e+00
1.649270001835468902e-01 7.612950175693413257e+00
1.659675490802122733e-01 1.154511431352199580e+01
1.670080979768776563e-01 1.721141855760969364e+01
1.680486468735430672e-01 3.103620918953537000e+01
1.690891957702084503e-01 5.966383066120287992e+01
1.701297446668738333e-01 5.340540129836344363e+01
1.711702935635392164e-01 3.219657031135959357e+01
1.722108424602045995e-01 3.490770264996055516e+01
1.732513913568699826e-01 3.095409743274419156e+01
1.742919402535353657e-01 1.709804505608256164e+01
1.753324891502007488e-01 1.151736154103552678e+01
1.763730380468661318e-01 1.318697372347561725e+01
1.774135869435315149e-01 1.319809220622309098e+01
1.784541358401968980e-01 8.799260031629938084e+00
1.794946847368622811e-01 6.179190151988208868e+00
1.805352336335276642e-01 5.783459588645829541e+00
1.815757825301930473e-01 5.615365056656006715e+00
1.826163314268584303e-01 5.317682040653888720e+00
1.836568803235238134e-01 5.151484949423696946e+00
1.846974292201891965e-01 5.345425406377003696e+00
1.857379781168545796e-01 5.521597806327548597e+00
1.867785270135199627e-01 5.783747276047105146e+00
1.878190759101853458e-01 6.512150680544301906e+00
1.888596248068507288e-01 6.765973579238899305e+00
1.899001737035161119e-01 6.156291871941427019e+00
1.909407226001814950e-01 5.076791298982520573e+00
1.919812714968468781e-01 4.394062377177696987e+00
1.930218203935122612e-01 4.361173952332777048e+00
1.940623692901776443e-01 4.225246489356589308e+00
1.951029181868430273e-01 4.180927277072463255e+00
1.961434670835084104e-01 4.285468563627254923e+00
1.971840159801737935e-01 3.830024881604234821e+00
1.982245648768391766e-01 3.357575267975253297e+00
1.992651137735045597e-01 2.633495411433358413e+00
2.003056626701699428e-01 2.486851276486287787e+00
2.013462115668353813e-01 2.351281199922624410e+00
2.023867604635007644e-01 2.087282790099049379e+00
2.034273093601661475e-01 1.736870613383064921e+00
2.044678582568315306e-01 1.519058618825553708e+00
2.055084071534969137e-01 1.578057218921358640e+00
2.065489560501622968e-01 1.624432663819113998e+00
2.075895049468276798e-01 1.582262495427467996e+00
2.086300538434930629e-01 1.603371255727498834e+00
2.096706027401584460e-01 1.519061694344610913e+00
2.107111516368238291e-01 1.479441276703902020e+00
2.117517005334892122e-01 1.820314760415065791e+00
2.127922494301545953e-01 1.990290884403130178e+00
2.138327983268199783e-01 1.808665157056552175e+00
2.148733472234853614e-01 1.429993934630338970e+00
2.159138961201507445e-01 1.097283840561587454e+00
2.169544450168161276e-01 8.871116744162890200e-01
2.179949939134815107e-01 4.743505794336329018e-01
2.190355428101468938e-01 3.959758349097661778e-01
2.200760917068122768e-01 6.453950713428859842e-01
2.211166406034776599e-01 6.903058248034987798e-01
2.221571895001430430e-01 7.756633247874091808e-01
2.231977383968084261e-01 5.465502961493271528e-01
2.242382872934738092e-01 5.057293363729513658e-01
2.252788361901391923e-01 3.031366888312092556e-01
2.263193850868045753e-01 3.443287511558601466e-01
2.273599339834699584e-01 1.443922163430606531e-01
2.284004828801353415e-01 4.018313175039622820e-01
2.294410317768007246e-01 5.421122533198428073e-01
2.304815806734661077e-01 4.706929903046805919e-01
2.315221295701314908e-01 5.498969535730502400e-01
2.325626784667968738e-01 4.747270369296288095e-01
2.336032273634622569e-01 3.189765307384710979e-01
2.346437762601276400e-01 4.602934392329700586e-01
2.356843251567930231e-01 8.596479650167871966e-01
2.367248740534584062e-01 1.058763855859751857e+00
2.377654229501237892e-01 9.669021162368025557e-01
2.388059718467891723e-01 9.442541274956361974e-01
2.398465207434545554e-01 8.899273696300724623e-01
2.408870696401199385e-01 8.070497211519693792e-01
2.419276185367853216e-01 9.645403743423628384e-01
2.429681674334507047e-01 7.660948059980583480e-01
2.440087163301160877e-01 9.363972434080203300e-01
2.450492652267814708e-01 8.620496679889555480e-01
2.460898141234468539e-01 9.197012237127708545e-01
2.471303630201122370e-01 9.963538683436681254e-01
2.481709119167776201e-01 1.041647330357601930e+00
2.492114608134430032e-01 1.672872704468673533e+00
2.502520097101083585e-01 2.361715277756154308e+00
2.512925586067737416e-01 1.901842246688740801e+00
2.523331075034391247e-01 1.403412102235311210e+00
2.533736564001045077e-01 1.342206057200755254e+00
2.544142052967698908e-01 1.267596640452971712e+00
2.554547541934352739e-01 1.617215520701442699e+00
2.564953030901006570e-01 2.594765940367103951e+00
2.575358519867660401e-01 3.322454563497718283e+00
2.585764008834314231e-01 2.701212152242959519e+00
2.596169497800968062e-01 1.868914161932703877e+00
2.606574986767621893e-01 1.503874002647226149e+00
2.616980475734275724e-01 1.420431140041085172e+00
2.627385964700929555e-01 1.547958139014664170e+00
2.637791453667583386e-01 2.132410903835491922e+00
2.648196942634237216e-01 3.876106685812366948e+00
2.658602431600891047e-01 4.495574882172430620e+00
2.669007920567544878e-01 2.890593567413191067e+00
2.679413409534198709e-01 1.666341579339892576e+00
2.689818898500852540e-01 1.425564777490613722e+00
2.700224387467506371e-01 1.284377977326720099e+00
2.710629876434160201e-01 1.328388138629659210e+00
2.721035365400814032e-01 1.508648684319549460e+00
2.731440854367467863e-01 1.361693726063037957e+00
2.741846343334121694e-01 1.301662359405128200e+00
2.752251832300775525e-01 1.763714047459721712e+00
2.762657321267429356e-01 1.954931096685996295e+00
2.773062810234083186e-01 2.073710780625347638e+00
2.783468299200737017e-01 1.718312362617982814e+00
2.793873788167390848e-01 1.355457208467996111e+00
2.804279277134044679e-01 1.371666349620277003e+00
2.814684766100698510e-01 1.306538732214910681e+00
2.825090255067352341e-01 1.448644226333730245e+00
2.835495744034006171e-01 1.273006788198806305e+00
2.845901233000660002e-01 1.053455568730853997e+00
2.856306721967313833e-01 9.737724712199629096e-01
2.866712210933967664e-01 9.693033296469302229e-01
2.877117699900621495e-01 1.185393342139935413e+00
2.887523188867275326e-01 1.392739992582622932e+00
2.897928677833929156e-01 1.333970614293349399e+00
2.908334166800582987e-01 9.306289353048313728e-01
2.918739655767236818e-01 5.786467880245993456e-01
2.929145144733890649e-01 6.333357125029834833e-01
2.939550633700544480e-01 6.829790988778263738e-01
2.949956122667198311e-01 6.840778605386113043e-01
2.960361611633852141e-01 6.819832558652656473e-01
2.970767100600505972e-01 7.351981673314540444e-01
2.981172589567159803e-01 6.058149930738849775e-01
2.991578078533813634e-01 6.691711900487078424e-01
3.001983567500468020e-01 7.245247662286011803e-01
3.012389056467121851e-01 8.952800499328006367e-01
3.022794545433775681e-01 1.181825177559503004e+00
3.033200034400429512e-01 1.145590740831522680e+00
3.043605523367083343e-01 9.463915552433554979e-01
3.054011012333737174e-01 5.360802970585822891e-01
3.064416501300391005e-01 4.909511016893794988e-01
3.074821990267044836e-01 7.013850804180243870e-01
3.085227479233698666e-01 5.158789054392549644e-01
3.095632968200352497e-01 3.840857467221923116e-01
3.106038457167006328e-01 4.212562774507127017e-01
3.116443946133660159e-01 4.669424248291242918e-01
3.126849435100313990e-01 4.454652078705372276e-01
3.137254924066967821e-01 5.261511626332620040e-01
3.147660413033621651e-01 4.784227107179148675e-01
3.158065902000275482e-01 3.623196575587783741e-01
3.168471390966929313e-01 2.948454154309096964e-01
3.178876879933583144e-01 1.140385921231015232e-01
3.189282368900236975e-01 1.516422289314434124e-01
3.199687857866890806e-01 1.644658406722605548e-01
3.210093346833544636e-01 1.552221777084099585e-01
3.220498835800198467e-01 4.380743870114045535e-02
3.230904324766852298e-01 0.000000000000000000e+00
3.241309813733506129e-01 6.363125059117891169e-02
3.251715302700159960e-01 1.866996864152739022e-01
3.262120791666813790e-01 3.212673370663772232e-01
3.272526280633467621e-01 3.494273678947905637e-01
3.282931769600121452e-01 4.090505616351478579e-01
3.293337258566775283e-01 4.161820064554397902e-01
3.303742747533429114e-01 2.591109697435101111e-01
3.314148236500082945e-01 5.135146705715243343e-02
3.324553725466736775e-01 1.796860324371287732e-01
3.334959214433390606e-01 2.558374884438556762e-01
3.345364703400044437e-01 3.458245973240110516e-01
3.355770192366698268e-01 4.087762970402728513e-01
3.366175681333352099e-01 5.990816938153642468e-01
3.376581170300005930e-01 5.765401165071573075e-01
3.386986659266659760e-01 5.259635974211391840e-01
3.397392148233313591e-01 4.612976579402285893e-01
3.407797637199967422e-01 5.071156419039084540e-01
3.418203126166621253e-01 4.738579117033445698e-01
3.428608615133275084e-01 3.966333773765029491e-01
3.439014104099928915e-01 4.849344500985139916e-01
3.449419593066582745e-01 6.125579756158430200e-01
3.459825082033236576e-01 6.075580504825737194e-01
3.470230570999890407e-01 5.828390542120231999e-01
3.480636059966544238e-01 5.578988050418409728e-01
3.491041548933198069e-01 5.023406472683760171e-01
3.501447037899851900e-01 5.187403814460580520e-01
3.511852526866505730e-01 5.354461035333883956e-01
3.522258015833159561e-01 5.094866243008020490e-01
3.532663504799813392e-01 6.815721174784208358e-01
3.543068993766467223e-01 7.693278105976588677e-01
3.553474482733121054e-01 6.222344837357809411e-01
3.563879971699774885e-01 5.920576992640533831e-01
3.574285460666428715e-01 8.261579165434262961e-01
3.584690949633082546e-01 6.546686033069804012e-01
3.595096438599736377e-01 4.402411312638783158e-01
3.605501927566390208e-01 6.415791146470049000e-01
3.615907416533044039e-01 6.986741791252342182e-01
3.626312905499697870e-01 5.686402133191279518e-01
3.636718394466351700e-01 7.981295496494418273e-01
3.647123883433005531e-01 1.144130936825217049e+00
3.657529372399659362e-01 1.259872893727386867e+00
3.667934861366313193e-01 1.181396845722964883e+00
3.678340350332967024e-01 8.700374469223213225e-01
3.688745839299620854e-01 6.664453247993300522e-01
3.699151328266274685e-01 5.291643086609241209e-01
3.709556817232928516e-01 6.932842097003018011e-01
3.719962306199582347e-01 6.735907854495160052e-01
3.730367795166236178e-01 6.483250961702466952e-01
3.740773284132890009e-01 7.876186995686076386e-01
3.751178773099543839e-01 5.095363903295790919e-01
3.761584262066197670e-01 4.920880755278851382e-01
3.771989751032851501e-01 6.358486654512098823e-01
3.782395239999505332e-01 6.217491921656197462e-01
3.792800728966159163e-01 6.635642306452318451e-01
3.803206217932812994e-01 7.266598473951972892e-01
3.813611706899466824e-01 7.407510477880414612e-01
3.824017195866120655e-01 7.748655607530565703e-01
3.834422684832774486e-01 7.262694481651266187e-01
3.844828173799428317e-01 7.604735085587428500e-01
3.855233662766082148e-01 6.997718464934159499e-01
3.865639151732735979e-01 6.172347891324179159e-01
3.876044640699389809e-01 5.003612283212248713e-01
3.886450129666043640e-01 4.384562959089635115e-01
3.896855618632697471e-01 4.790539699807609963e-01
3.907261107599351302e-01 5.007174767448319130e-01
3.917666596566005133e-01 6.413344313783397865e-01
3.928072085532658964e-01 7.318278743313904044e-01
3.938477574499312794e-01 4.723165808962654921e-01
3.948883063465966625e-01 3.218388742463993424e-01
3.959288552432620456e-01 2.282577803096508262e-01
3.969694041399274287e-01 3.220107308502306864e-01
3.980099530365928118e-01 2.168108620202851000e-01
3.990505019332581949e-01 2.190755970237709960e-01
4.000910508299235779e-01 1.381836366612567701e-01
4.011315997265889610e-01 2.625840675059620821e-02
4.021721486232543441e-01 2.430282049819645351e-01
4.032126975199197272e-01 3.642615595948655027e-01
4.042532464165851103e-01 4.121331340963045875e-01
4.052937953132504934e-01 2.774481428162722807e-01
4.063343442099158764e-01 3.379397912604495957e-01
4.073748931065812595e-01 5.255257774553747652e-01
4.084154420032466426e-01 4.900276169698010165e-01
4.094559908999120257e-01 5.060740059357975440e-01
4.104965397965774088e-01 3.098592943802280786e-01
4.115370886932427918e-01 2.493949490434559380e-01
4.125776375899081749e-01 2.120600695442647066e-01
4.136181864865735580e-01 1.620532383195438797e-01
4.146587353832389411e-01 2.441193228252487302e-01
4.156992842799043242e-01 2.800740819443880980e-01
4.167398331765697073e-01 3.029439558373070440e-01
4.177803820732350903e-01 2.673819217415953631e-01
4.188209309699004734e-01 2.948894199392597670e-01
4.198614798665658565e-01 3.596254163119958491e-01
4.209020287632312396e-01 3.774980606622193591e-01
4.219425776598966227e-01 3.872742346223283505e-01
4.229831265565620058e-01 4.309927398430275503e-01
4.240236754532273888e-01 3.845078109884703110e-01
4.250642243498927719e-01 3.194182257225079979e-01
4.261047732465581550e-01 3.953725945852326618e-01
4.271453221432235381e-01 3.175795293326153512e-01
4.281858710398889212e-01 2.433757694891482970e-01
4.292264199365543043e-01 2.012103047795008592e-01
4.302669688332196873e-01 3.695261060365560013e-01
4.313075177298850704e-01 4.510693687389242257e-01
4.323480666265504535e-01 4.322515462219840288e-01
4.333886155232158366e-01 3.461059036433908886e-01
4.344291644198812197e-01 3.614712278795693123e-01
