# q (1/Angstrom), Intensity (arb)
2.029070354705860696e-02 4.676425014731155443e+02
2.133125244372399004e-02 4.684011039523141449e+02
2.237180134038937659e-02 4.656990058606138518e+02
2.341235023705475968e-02 4.621563367840873866e+02
2.445289913372014276e-02 4.584284129587055645e+02
2.549344803038552584e-02 4.539151025589764004e+02
2.653399692705091240e-02 4.461582925518778211e+02
2.757454582371629548e-02 4.414344340061079492e+02
2.861509472038167856e-02 4.381089110667255113e+02
2.965564361704706164e-02 4.319646967856126594e+02
3.069619251371244473e-02 4.276045420973453588e+02
3.173674141037782781e-02 4.197247515252910830e+02
3.277729030704321089e-02 4.157691182455640160e+02
3.381783920370859398e-02 4.100929763867030147e+02
3.485838810037397706e-02 4.051019581968509442e+02
3.589893699703936014e-02 3.983060477736164557e+02
3.693948589370474322e-02 3.901757250866044160e+02
3.798003479037012631e-02 3.840119102307063486e+02
3.902058368703550939e-02 3.774454574135260145e+02
4.006113258370089247e-02 3.718891824096097594e+02
4.110168148036627556e-02 3.608674345210379215e+02
4.214223037703165864e-02 3.548773345139085222e+02
4.318277927369704866e-02 3.472099704367126947e+02
4.422332817036243174e-02 3.404437234150889822e+02
4.526387706702781483e-02 3.346015763475558629e+02
4.630442596369319791e-02 3.282681278653042227e+02
4.734497486035858099e-02 3.187071095132757819e+02
4.838552375702396408e-02 3.119144302633994243e+02
4.942607265368934716e-02 3.051048460328578926e+02
5.046662155035473024e-02 2.968105788949873158e+02
5.150717044702011332e-02 2.905828991274999566e+02
5.254771934368549641e-02 2.817768012325596487e+02
5.358826824035087949e-02 2.732580669513913563e+02
5.462881713701626257e-02 2.656716136304071370e+02
5.566936603368164566e-02 2.590870974084725162e+02
5.670991493034702874e-02 2.524364184751327684e+02
5.775046382701241182e-02 2.444484749846667455e+02
5.879101272367779490e-02 2.379117108991819407e+02
5.983156162034317799e-02 2.309394027953860586e+02
6.087211051700856107e-02 2.236699138097820878e+02
6.191265941367394415e-02 2.161399582425211747e+02
6.295320831033933417e-02 2.096892141236116345e+02
6.399375720700471726e-02 2.035973718456912422e+02
6.503430610367010034e-02 1.968745292350129716e+02
6.607485500033548342e-02 1.905811269909970349e+02
6.711540389700086651e-02 1.843538190829083874e+02
6.815595279366624959e-02 1.775180285548909751e+02
6.919650169033163267e-02 1.701038476152303645e+02
7.023705058699701576e-02 1.637162592601079609e+02
7.127759948366239884e-02 1.585942232985748888e+02
7.231814838032778192e-02 1.529175160893476573e+02
7.335869727699316500e-02 1.470844040059893700e+02
7.439924617365854809e-02 1.424612875434458203e+02
7.543979507032393117e-02 1.383151332606760491e+02
7.648034396698931425e-02 1.328482186616262481e+02
7.752089286365469734e-02 1.295727649825184358e+02
7.856144176032008042e-02 1.282286305193965177e+02
7.960199065698546350e-02 1.284087674835465407e+02
8.064253955365084658e-02 1.386202898432014763e+02
8.168308845031622967e-02 2.147654369191119770e+02
8.272363734698161275e-02 4.687675037078771538e+02
8.376418624364699583e-02 6.142823482647590936e+02
8.480473514031239279e-02 3.960933415015877586e+02
8.584528403697777588e-02 2.499717322391620087e+02
8.688583293364315896e-02 3.342455678392009304e+02
8.792638183030854204e-02 6.319097551912038853e+02
8.896693072697392513e-02 6.837143564286608353e+02
9.000747962363930821e-02 3.812137480300951893e+02
9.104802852030469129e-02 2.586072884334629975e+02
9.208857741697007437e-02 3.456995940732930421e+02
9.312912631363545746e-02 6.552508365869252884e+02
9.416967521030084054e-02 1.012995485246214230e+03
9.521022410696622362e-02 8.362044498303989712e+02
9.625077300363160671e-02 3.866844148134923671e+02
9.729132190029698979e-02 1.769149435353425019e+02
9.833187079696237287e-02 1.091958191999678860e+02
9.937241969362775595e-02 8.027638529910502996e+01
1.004129685902931390e-01 6.758266869708364766e+01
1.014535174869585221e-01 6.534473919343403736e+01
1.024940663836239052e-01 5.916288052113523577e+01
1.035346152802892883e-01 4.480893912907849597e+01
1.045751641769546714e-01 3.504786201108126420e+01
1.056157130736200545e-01 3.023176149663226653e+01
1.066562619702854375e-01 2.631807175048042069e+01
1.076968108669508206e-01 2.344401028039891344e+01
1.087373597636162037e-01 2.117477854537411730e+01
1.097779086602815868e-01 1.916703606898246193e+01
1.108184575569469699e-01 1.745271085815532075e+01
1.118590064536123529e-01 1.491114637390616338e+01
1.128995553502777360e-01 1.350410337849451636e+01
1.139401042469431191e-01 1.256790531651794751e+01
1.149806531436085022e-01 1.166268688570862011e+01
1.160212020402738853e-01 1.068327204830286448e+01
1.170617509369392684e-01 9.931831225097177196e+00
1.181022998336046514e-01 9.396500521808242468e+00
1.191428487302700345e-01 8.982088715164586290e+00
1.201833976269354176e-01 9.153311504814972466e+00
1.212239465236008007e-01 8.958281052662290023e+00
1.222644954202661838e-01 7.599407770002617468e+00
1.233050443169315669e-01 5.774843070402639000e+00
1.243455932135969499e-01 4.183402102195191929e+00
1.253861421102623330e-01 2.979655767632060304e+00
1.264266910069277161e-01 2.493340052872806467e+00
1.274672399035930992e-01 2.211440367247170968e+00
1.285077888002584823e-01 1.920053643102619390e+00
1.295483376969238654e-01 1.885535151980217705e+00
1.305888865935892484e-01 1.963755280134282799e+00
1.316294354902546315e-01 1.599483720497026695e+00
1.326699843869200146e-01 1.324946805052526599e+00
1.337105332835853977e-01 1.214373360031835603e+00
1.347510821802507808e-01 1.555204773649144556e+00
1.357916310769161639e-01 1.591460191411272262e+00
1.368321799735815469e-01 1.843117838314274337e+00
1.378727288702469300e-01 1.569201138739451551e+00
1.389132777669123131e-01 1.514839253933821794e+00
1.399538266635776962e-01 1.444964551044439105e+00
1.409943755602430793e-01 2.020221840992839191e+00
1.420349244569084624e-01 2.915033707260743512e+00
1.430754733535738454e-01 7.334160366975918777e+00
1.441160222502392285e-01 1.538624627326141336e+01
1.451565711469046116e-01 1.441472007857893090e+01
1.461971200435699947e-01 6.534896902846462297e+00
1.472376689402353778e-01 3.915842532054583103e+00
1.482782178369007609e-01 3.377859242307334142e+00
1.493187667335661439e-01 3.573379028935661950e+00
1.503593156302315270e-01 4.218610362140559289e+00
1.513998645268969101e-01 4.452687655388650967e+00
1.524404134235622932e-01 5.638067831549971487e+00
1.534809623202276763e-01 6.925812690578208475e+00
1.545215112168930593e-01 9.576388843845517584e+00
1.555620601135584424e-01 1.618713017522660635e+01
1.566026090102238255e-01 2.330858616425128105e+01
1.576431579068892086e-01 2.142045631641961023e+01
1.586837068035545917e-01 1.396738599137398751e+01
1.597242557002199748e-01 9.366854866027647830e+00
1.607648045968853578e-01 7.488479742321249688e+00
1.618053534935507409e-01 6.893306282399596085e+00
1.628459023902161240e-01 6.783988909972482162e+00
1.638864512868815071e-01 6.468705120684710153e+00
1.649270001835468902e-01 7.404911406370661808e+00
1.659675490802122733e-01 1.100856795025007528e+01
1.670080979768776563e-01 1.689030585811908836e+01
1.680486468735430672e-01 3.127498158521746063e+01
1.690891957702084503e-01 6.028312678188264329e+01
1.701297446668738333e-01 5.484793323800630560e+01
1.711702935635392164e-01 3.289423478574735782e+01
1.722108424602045995e-01 3.544321681518874811e+01
1.732513913568699826e-01 3.153558115667145145e+01
1.742919402535353657e-01 1.681410718224688949e+01
1.753324891502007488e-01 1.085437091474899418e+01
1.763730380468661318e-01 1.287399740311964536e+01
1.774135869435315149e-01 1.317578224909687279e+01
1.784541358401968980e-01 8.692692128901544635e+00
1.794946847368622811e-01 5.661922299441030759e+00
1.805352336335276642e-01 5.413161772990857656e+00
1.815757825301930473e-01 5.086132365268035471e+00
1.826163314268584303e-01 4.459123079198882067e+00
1.836568803235238134e-01 4.643193491689409313e+00
1.846974292201891965e-01 4.942533291063508472e+00
1.857379781168545796e-01 5.006678900932062248e+00
1.867785270135199627e-01 5.325094874743943052e+00
1.878190759101853458e-01 6.167602153799339959e+00
1.888596248068507288e-01 6.584796343759570902e+00
1.899001737035161119e-01 5.780395730064629589e+00
1.909407226001814950e-01 4.573398043951183212e+00
1.919812714968468781e-01 4.146167611085818550e+00
1.930218203935122612e-01 3.978103111445733475e+00
1.940623692901776443e-01 3.855130759892144710e+00
1.951029181868430273e-01 3.772998235143958823e+00
1.961434670835084104e-01 3.748950048028365956e+00
1.971840159801737935e-01 3.385517172150002807e+00
1.982245648768391766e-01 3.122317484197274950e+00
1.992651137735045597e-01 2.785286732642493490e+00
2.003056626701699428e-01 2.247009454265270989e+00
2.013462115668353813e-01 2.092837046233746889e+00
2.023867604635007644e-01 1.995483945985654373e+00
2.034273093601661475e-01 1.892945412797246263e+00
2.044678582568315306e-01 1.597816620808497845e+00
2.055084071534969137e-01 1.507360735940025620e+00
2.065489560501622968e-01 1.560488320442299681e+00
2.075895049468276798e-01 1.453793177395642289e+00
2.086300538434930629e-01 1.238923689738282263e+00
2.096706027401584460e-01 1.352350588598401515e+00
2.107111516368238291e-01 1.426403193001586800e+00
2.117517005334892122e-01 1.706370692527631405e+00
2.127922494301545953e-01 1.848105958005081817e+00
2.138327983268199783e-01 1.544738441967233200e+00
2.148733472234853614e-01 1.099944154612874314e+00
2.159138961201507445e-01 7.578694509911230170e-01
2.169544450168161276e-01 7.374264065386277878e-01
2.179949939134815107e-01 7.094937442372497571e-01
2.190355428101468938e-01 4.384138473472596331e-01
2.200760917068122768e-01 3.349553709953632108e-01
2.211166406034776599e-01 3.392430782383932808e-01
2.221571895001430430e-01 5.408876210376192262e-01
2.231977383968084261e-01 3.245791581141723725e-01
2.242382872934738092e-01 3.596106040853257468e-01
2.252788361901391923e-01 3.120638491726701602e-01
2.263193850868045753e-01 4.221107112376145665e-01
2.273599339834699584e-01 9.768690792110845678e-02
2.284004828801353415e-01 2.091100241437580110e-01
2.294410317768007246e-01 5.235619406410734200e-01
2.304815806734661077e-01 5.675703488895642579e-01
2.315221295701314908e-01 6.252535693757579338e-01
2.325626784667968738e-01 4.149712651316335155e-01
2.336032273634622569e-01 3.336551755864078928e-01
2.346437762601276400e-01 4.828291768204024947e-01
2.356843251567930231e-01 6.864216064812467266e-01
2.367248740534584062e-01 9.002894655068054419e-01
2.377654229501237892e-01 8.701901825475246710e-01
2.388059718467891723e-01 7.558542486968278240e-01
2.398465207434545554e-01 8.211796563838724694e-01
2.408870696401199385e-01 6.571054869058272629e-01
2.419276185367853216e-01 7.928836744086567023e-01
2.429681674334507047e-01 6.759549547493506338e-01
2.440087163301160877e-01 9.159864652601079626e-01
2.450492652267814708e-01 7.978857782157291467e-01
2.460898141234468539e-01 8.108355514565275257e-01
2.471303630201122370e-01 6.957557311641444642e-01
2.481709119167776201e-01 7.724437685740888071e-01
2.492114608134430032e-01 1.518431866908361627e+00
2.502520097101083585e-01 2.006118839349781524e+00
2.512925586067737416e-01 1.578109927051549732e+00
2.523331075034391247e-01 1.134334662820030815e+00
2.533736564001045077e-01 1.288259846940295716e+00
2.544142052967698908e-01 1.339167322976450691e+00
2.554547541934352739e-01 1.566808206805816894e+00
2.564953030901006570e-01 2.526510875578175330e+00
2.575358519867660401e-01 3.362235408086004185e+00
2.585764008834314231e-01 2.760926143795167320e+00
2.596169497800968062e-01 1.861041647066048910e+00
2.606574986767621893e-01 1.364841071827886054e+00
2.616980475734275724e-01 1.295525303520644655e+00
2.627385964700929555e-01 1.391477104051318747e+00
2.637791453667583386e-01 2.133597711462908109e+00
2.648196942634237216e-01 3.934446090793034756e+00
2.658602431600891047e-01 4.481276295491056771e+00
2.669007920567544878e-01 2.643894175518919809e+00
2.679413409534198709e-01 1.610872979007314854e+00
2.689818898500852540e-01 1.300925097347246151e+00
2.700224387467506371e-01 1.073334649488700165e+00
2.710629876434160201e-01 9.876978518683472430e-01
2.721035365400814032e-01 1.175898930023851818e+00
2.731440854367467863e-01 1.169404370184651043e+00
2.741846343334121694e-01 1.139045561427188602e+00
2.752251832300775525e-01 1.597935850395654001e+00
2.762657321267429356e-01 1.861160789169002072e+00
2.773062810234083186e-01 2.014322869328331933e+00
2.783468299200737017e-01 1.836995168895541042e+00
2.793873788167390848e-01 1.402240247339815227e+00
2.804279277134044679e-01 1.192662303995597028e+00
2.814684766100698510e-01 1.081690621369347127e+00
2.825090255067352341e-01 1.257371199976027754e+00
2.835495744034006171e-01 1.154324536793229328e+00
2.845901233000660002e-01 9.308615500589603187e-01
2.856306721967313833e-01 9.016166543828028068e-01
2.866712210933967664e-01 8.237558429958582451e-01
2.877117699900621495e-01 1.042382982870449837e+00
2.887523188867275326e-01 1.243143744599610301e+00
2.897928677833929156e-01 1.286915932662438422e+00
2.908334166800582987e-01 8.481697378443477930e-01
2.918739655767236818e-01 5.720557486147761495e-01
2.929145144733890649e-01 5.649416637367536964e-01
2.939550633700544480e-01 5.106655160469628640e-01
2.949956122667198311e-01 5.274235972536907013e-01
2.960361611633852141e-01 6.372535612686469619e-01
2.970767100600505972e-01 5.462299134431809478e-01
2.981172589567159803e-01 4.626441696067189469e-01
2.991578078533813634e-01 4.990328742859269084e-01
3.001983567500468020e-01 5.430351426685149363e-01
3.012389056467121851e-01 1.110619420693144122e+00
3.022794545433775681e-01 1.325795205025656287e+00
3.033200034400429512e-01 1.252893637192045162e+00
3.043605523367083343e-01 1.177310197137522607e+00
3.054011012333737174e-01 7.021107604203180586e-01
3.064416501300391005e-01 5.537074416087470752e-01
3.074821990267044836e-01 7.549011588790257576e-01
3.085227479233698666e-01 7.213609989342870676e-01
3.095632968200352497e-01 4.935734273417224927e-01
3.106038457167006328e-01 4.033832967213051290e-01
3.116443946133660159e-01 3.357322610099018334e-01
3.126849435100313990e-01 4.284417303758480955e-01
3.137254924066967821e-01 3.809077306288060072e-01
3.147660413033621651e-01 3.812758950181240891e-01
3.158065902000275482e-01 4.246966595997960781e-01
3.168471390966929313e-01 1.652449377855909063e-01
3.178876879933583144e-01 4.296892684440223320e-02
3.189282368900236975e-01 1.642370380857727241e-01
3.199687857866890806e-01 2.848740311749367038e-01
3.210093346833544636e-01 2.087075528394741752e-01
3.220498835800198467e-01 1.178453433410560081e-01
3.230904324766852298e-01 1.650495090733876680e-01
3.241309813733506129e-01 2.516756073161126039e-01
3.251715302700159960e-01 2.824587309231425536e-01
3.262120791666813790e-01 2.563256186486810861e-01
3.272526280633467621e-01 2.376397656666888736e-01
3.282931769600121452e-01 3.577058049788135463e-01
3.293337258566775283e-01 4.726566400848035698e-01
3.303742747533429114e-01 4.369799539814671618e-01
3.314148236500082945e-01 2.273201327767040425e-01
3.324553725466736775e-01 2.228968970752056578e-01
3.334959214433390606e-01 1.212846566336800436e-01
3.345364703400044437e-01 8.295575722858927747e-02
3.355770192366698268e-01 2.745390718714375566e-01
3.366175681333352099e-01 4.877173966020578177e-01
3.376581170300005930e-01 5.062913617330977445e-01
3.386986659266659760e-01 5.266066128958151182e-01
3.397392148233313591e-01 5.350034843596027656e-01
3.407797637199967422e-01 4.310735916469212725e-01
3.418203126166621253e-01 4.192935213540529560e-01
3.428608615133275084e-01 2.806219426991987120e-01
3.439014104099928915e-01 3.566583144400716776e-01
3.449419593066582745e-01 3.257494358594534845e-01
3.459825082033236576e-01 4.608886237642089156e-01
3.470230570999890407e-01 4.466212171934529351e-01
3.480636059966544238e-01 3.175021842728256161e-01
3.491041548933198069e-01 5.036201697926578902e-01
3.501447037899851900e-01 4.802082033906422964e-01
3.511852526866505730e-01 4.537928413542680062e-01
3.522258015833159561e-01 5.009468423350575961e-01
3.532663504799813392e-01 7.437234813711555148e-01
3.543068993766467223e-01 6.862147651543999416e-01
3.553474482733121054e-01 6.027260357201100760e-01
3.563879971699774885e-01 3.835729208399456525e-01
3.574285460666428715e-01 5.538625724562571406e-01
3.584690949633082546e-01 4.583222960299160320e-01
3.595096438599736377e-01 3.407325097060542873e-01
3.605501927566390208e-01 5.083042058647393446e-01
3.615907416533044039e-01 6.179324921076521093e-01
3.626312905499697870e-01 7.259377465003176155e-01
3.636718394466351700e-01 7.612710538189695342e-01
3.647123883433005531e-01 1.040744628355945167e+00
3.657529372399659362e-01 1.117962785506996681e+00
3.667934861366313193e-01 1.038368090442443048e+00
3.678340350332967024e-01 9.134926529991922450e-01
3.688745839299620854e-01 7.303939386168885051e-01
3.699151328266274685e-01 6.633133546771716738e-01
3.709556817232928516e-01 6.737120187220639878e-01
3.719962306199582347e-01 8.978482270196614934e-01
3.730367795166236178e-01 8.355357275831885033e-01
3.740773284132890009e-01 8.864402606404766516e-01
3.751178773099543839e-01 6.374722178423617436e-01
3.761584262066197670e-01 5.642043764094495373e-01
3.771989751032851501e-01 5.908421140609902977e-01
3.782395239999505332e-01 5.603021352941723876e-01
3.792800728966159163e-01 5.667940741516765968e-01
3.803206217932812994e-01 6.552248398195494872e-01
3.813611706899466824e-01 8.137608041573116680e-01
3.824017195866120655e-01 7.499679664508462906e-01
3.834422684832774486e-01 6.688704973534846943e-01
3.844828173799428317e-01 6.235327183407797236e-01
3.855233662766082148e-01 5.554837030307950840e-01
3.865639151732735979e-01 6.114768519076392295e-01
3.876044640699389809e-01 5.873389913927411499e-01
3.886450129666043640e-01 3.569695064557230069e-01
3.896855618632697471e-01 4.076472221974540844e-01
3.907261107599351302e-01 4.576796516600118991e-01
3.917666596566005133e-01 6.056051631509582478e-01
3.928072085532658964e-01 6.613191610027762124e-01
3.938477574499312794e-01 4.021389866321776196e-01
3.948883063465966625e-01 2.633702696557058687e-01
3.959288552432620456e-01 2.303852929129384108e-01
3.969694041399274287e-01 3.110304773492771346e-01
3.980099530365928118e-01 6.500629028126780895e-02
3.990505019332581949e-01 0.000000000000000000e+00
4.000910508299235779e-01 6.954006140717794437e-02
4.011315997265889610e-01 8.546265811910203070e-02
4.021721486232543441e-01 3.019315564951696729e-01
4.032126975199197272e-01 3.591783948915505675e-01
4.042532464165851103e-01 3.487670709220438425e-01
4.052937953132504934e-01 3.236515184459882732e-01
4.063343442099158764e-01 4.273776677263114721e-01
4.073748931065812595e-01 4.615365216236426704e-01
4.084154420032466426e-01 3.914233357040686201e-01
4.094559908999120257e-01 5.174033376177895605e-01
4.104965397965774088e-01 3.473843732788353122e-01
4.115370886932427918e-01 2.833300072662368052e-01
4.125776375899081749e-01 4.371646218621165758e-01
4.136181864865735580e-01 5.004012176498733311e-01
4.146587353832389411e-01 4.087708481731517907e-01
4.156992842799043242e-01 3.317295646449203161e-01
4.167398331765697073e-01 2.810320535601640302e-01
4.177803820732350903e-01 4.430493378296596063e-01
4.188209309699004734e-01 3.585239058912925714e-01
4.198614798665658565e-01 2.997403307290937846e-01
4.209020287632312396e-01 2.811791993881058715e-01
4.219425776598966227e-01 3.862597504753857436e-01
4.229831265565620058e-01 4.748918339888383855e-01
4.240236754532273888e-01 3.773566570330046943e-01
4.250642243498927719e-01 2.411083985003621422e-01
4.261047732465581550e-01 3.341240556236115822e-01
4.271453221432235381e-01 3.377866668310112175e-01
4.281858710398889212e-01 2.447840209121778798e-01
4.292264199365543043e-01 3.118210437543673663e-01
4.302669688332196873e-01 4.960859568465032510e-01
4.313075177298850704e-01 4.087061467831247796e-01
4.323480666265504535e-01 3.537020364821827911e-01
4.333886155232158366e-01 3.389367132834877339e-01
4.344291644198812197e-01 4.630933969652630822e-01
