# q (1/Angstrom), Intensity (arb)
2.029070354705860696e-02 1.091004713659089248e+03
2.133125244372399004e-02 1.085765239466899857e+03
2.237180134038937659e-02 1.074733474812060877e+03
2.341235023705475968e-02 1.069400225836618120e+03
2.445289913372014276e-02 1.061553040784455561e+03
2.549344803038552584e-02 1.048481081860302993e+03
2.653399692705091240e-02 1.037652932055455040e+03
2.757454582371629548e-02 1.027245910852735051e+03
2.861509472038167856e-02 1.014104408708234814e+03
2.965564361704706164e-02 9.998458167580832878e+02
3.069619251371244473e-02 9.865747995238276644e+02
3.173674141037782781e-02 9.773417106944050374e+02
3.277729030704321089e-02 9.598969911293163477e+02
3.381783920370859398e-02 9.434121880398361100e+02
3.485838810037397706e-02 9.292822602148393116e+02
3.589893699703936014e-02 9.134873031147144502e+02
3.693948589370474322e-02 8.960689461157695632e+02
3.798003479037012631e-02 8.797153555509106582e+02
3.902058368703550939e-02 8.671783973711059161e+02
4.006113258370089247e-02 8.490500497925373793e+02
4.110168148036627556e-02 8.300680280148297925e+02
4.214223037703165864e-02 8.120079749049252769e+02
4.318277927369704866e-02 7.966039578927084222e+02
4.422332817036243174e-02 7.794360826454567359e+02
4.526387706702781483e-02 7.641568644596031845e+02
4.630442596369319791e-02 7.475815509008986055e+02
4.734497486035858099e-02 7.287558999654509080e+02
4.838552375702396408e-02 7.115100626285671979e+02
4.942607265368934716e-02 6.950843278087238559e+02
5.046662155035473024e-02 6.775061342753754161e+02
5.150717044702011332e-02 6.577723136742780525e+02
5.254771934368549641e-02 6.426410604243915259e+02
5.358826824035087949e-02 6.243815972924885500e+02
5.462881713701626257e-02 6.053328911654039075e+02
5.566936603368164566e-02 5.892202342787223870e+02
5.670991493034702874e-02 5.740320625923675379e+02
5.775046382701241182e-02 5.568418735218183429e+02
5.879101272367779490e-02 5.381132895558868086e+02
5.983156162034317799e-02 5.197769249458885952e+02
6.087211051700856107e-02 5.031347975173375744e+02
6.191265941367394415e-02 4.882483719476632018e+02
6.295320831033933417e-02 4.705301788131595799e+02
6.399375720700471726e-02 4.533603697875869898e+02
6.503430610367010034e-02 4.378390613059836483e+02
6.607485500033548342e-02 4.236199794268226242e+02
6.711540389700086651e-02 4.103748725687913748e+02
6.815595279366624959e-02 3.938349962801781885e+02
6.919650169033163267e-02 3.787935259863033366e+02
7.023705058699701576e-02 3.643414280459980432e+02
7.127759948366239884e-02 3.499025555147941304e+02
7.231814838032778192e-02 3.346177661228460920e+02
7.335869727699316500e-02 3.213557128014213617e+02
7.439924617365854809e-02 3.082344030950684441e+02
7.543979507032393117e-02 2.961003200417528092e+02
7.648034396698931425e-02 2.838636828261879828e+02
7.752089286365469734e-02 2.720187347242252827e+02
7.856144176032008042e-02 2.610258918961458221e+02
7.960199065698546350e-02 2.516177667721347575e+02
8.064253955365084658e-02 2.478149635440557290e+02
8.168308845031622967e-02 2.827606942171966580e+02
8.272363734698161275e-02 4.104538983172450912e+02
8.376418624364699583e-02 4.715403462636230074e+02
8.480473514031239279e-02 3.505194560361738354e+02
8.584528403697777588e-02 2.713031312850435484e+02
8.688583293364315896e-02 3.132323663957689632e+02
8.792638183030854204e-02 4.602898822772143035e+02
8.896693072697392513e-02 4.628092560026400406e+02
9.000747962363930821e-02 3.030576028186430904e+02
9.104802852030469129e-02 2.428896222167429642e+02
9.208857741697007437e-02 2.863574649601205806e+02
9.312912631363545746e-02 4.369135397068188809e+02
9.416967521030084054e-02 5.928662435755544493e+02
9.521022410696622362e-02 4.846668234317258452e+02
9.625077300363160671e-02 2.640962194622563288e+02
9.729132190029698979e-02 1.588432666297350693e+02
9.833187079696237287e-02 1.193583122522377806e+02
9.937241969362775595e-02 9.895083935358837834e+01
1.004129685902931390e-01 8.862323797597618125e+01
1.014535174869585221e-01 8.381442986818819918e+01
1.024940663836239052e-01 7.565249509771696523e+01
1.035346152802892883e-01 6.406717385867862902e+01
1.045751641769546714e-01 5.512698629566827435e+01
1.056157130736200545e-01 4.869662738752636244e+01
1.066562619702854375e-01 4.392484201151113155e+01
1.076968108669508206e-01 3.971378654718753864e+01
1.087373597636162037e-01 3.558934259232930231e+01
1.097779086602815868e-01 3.243578816332546921e+01
1.108184575569469699e-01 2.874350416875292780e+01
1.118590064536123529e-01 2.586822369380434949e+01
1.128995553502777360e-01 2.301047883177877296e+01
1.139401042469431191e-01 1.980463868726774024e+01
1.149806531436085022e-01 1.709930961659790682e+01
1.160212020402738853e-01 1.552656842994292319e+01
1.170617509369392684e-01 1.400956687144749679e+01
1.181022998336046514e-01 1.268243558273765359e+01
1.191428487302700345e-01 1.136332314383680142e+01
1.201833976269354176e-01 1.025112216909938212e+01
1.212239465236008007e-01 9.385535967663027890e+00
1.222644954202661838e-01 7.967111013804430542e+00
1.233050443169315669e-01 6.359081258474116538e+00
1.243455932135969499e-01 4.982286549074643744e+00
1.253861421102623330e-01 3.717234396716957434e+00
1.264266910069277161e-01 2.834993243736711577e+00
1.274672399035930992e-01 2.864759953019067495e+00
1.285077888002584823e-01 2.317072949109551416e+00
1.295483376969238654e-01 2.113245310859468873e+00
1.305888865935892484e-01 2.078354812722853495e+00
1.316294354902546315e-01 1.756408807588424992e+00
1.326699843869200146e-01 1.376847788234641712e+00
1.337105332835853977e-01 1.379584624359189604e+00
1.347510821802507808e-01 1.776262689906175751e+00
1.357916310769161639e-01 2.028411518013278680e+00
1.368321799735815469e-01 2.415680067683858567e+00
1.378727288702469300e-01 2.466993691130870303e+00
1.389132777669123131e-01 2.549812451174080508e+00
1.399538266635776962e-01 2.867938138671295434e+00
1.409943755602430793e-01 3.183175540969333639e+00
1.420349244569084624e-01 4.087088576509174231e+00
1.430754733535738454e-01 6.989177103034634797e+00
1.441160222502392285e-01 1.170678255281827518e+01
1.451565711469046116e-01 1.113416546328125278e+01
1.461971200435699947e-01 6.948986597904646345e+00
1.472376689402353778e-01 5.679549936541167909e+00
1.482782178369007609e-01 5.856829594073463596e+00
1.493187667335661439e-01 6.037104842445362607e+00
1.503593156302315270e-01 6.417004108702855092e+00
1.513998645268969101e-01 6.751727791484526620e+00
1.524404134235622932e-01 7.536625893650686692e+00
1.534809623202276763e-01 8.851192701522084150e+00
1.545215112168930593e-01 1.039353364304816907e+01
1.555620601135584424e-01 1.378952185492223492e+01
1.566026090102238255e-01 1.720490284177316909e+01
1.576431579068892086e-01 1.649671833485279748e+01
1.586837068035545917e-01 1.310401957951647844e+01
1.597242557002199748e-01 1.110442303043625500e+01
1.607648045968853578e-01 1.006681294102086355e+01
1.618053534935507409e-01 1.006515307397379999e+01
1.628459023902161240e-01 1.027892978051227502e+01
1.638864512868815071e-01 1.039175759473465988e+01
1.649270001835468902e-01 1.115214628504603667e+01
1.659675490802122733e-01 1.311145175884253078e+01
1.670080979768776563e-01 1.665499471810586840e+01
1.680486468735430672e-01 2.475944804641653363e+01
1.690891957702084503e-01 3.971294698425062819e+01
1.701297446668738333e-01 3.495668041414850791e+01
1.711702935635392164e-01 2.416075932468100262e+01
1.722108424602045995e-01 2.555527479373144217e+01
1.732513913568699826e-01 2.274693382176007717e+01
1.742919402535353657e-01 1.544747856212608283e+01
1.753324891502007488e-01 1.246539548423915633e+01
1.763730380468661318e-01 1.305018843149709085e+01
1.774135869435315149e-01 1.285320195892536788e+01
1.784541358401968980e-01 1.037581333078461654e+01
1.794946847368622811e-01 9.084917494514971992e+00
1.805352336335276642e-01 8.945909690097675337e+00
1.815757825301930473e-01 8.629605222152928690e+00
1.826163314268584303e-01 8.394698574694903215e+00
1.836568803235238134e-01 7.992263540602284166e+00
1.846974292201891965e-01 7.721029999925502096e+00
1.857379781168545796e-01 7.747994940090215721e+00
1.867785270135199627e-01 7.999746971083279590e+00
1.878190759101853458e-01 8.294199579287067081e+00
1.888596248068507288e-01 7.925897819422111468e+00
1.899001737035161119e-01 7.443838415258234420e+00
1.909407226001814950e-01 6.685553663016015946e+00
1.919812714968468781e-01 5.879615627267103406e+00
1.930218203935122612e-01 5.801413696987790303e+00
1.940623692901776443e-01 5.717483681299100340e+00
1.951029181868430273e-01 5.510045903559550595e+00
1.961434670835084104e-01 5.207731678218703308e+00
1.971840159801737935e-01 5.111972540378683760e+00
1.982245648768391766e-01 4.424658359711514777e+00
1.992651137735045597e-01 3.832367541649020382e+00
2.003056626701699428e-01 3.802359951735624577e+00
2.013462115668353813e-01 3.672789205831946902e+00
2.023867604635007644e-01 3.416989468385303041e+00
2.034273093601661475e-01 2.940870024874570277e+00
2.044678582568315306e-01 2.717930105703558752e+00
2.055084071534969137e-01 2.548703194771906766e+00
2.065489560501622968e-01 2.346396831516518233e+00
2.075895049468276798e-01 2.109313403045572244e+00
2.086300538434930629e-01 1.893670632163246381e+00
2.096706027401584460e-01 1.931481837743401542e+00
2.107111516368238291e-01 1.742294750477459075e+00
2.117517005334892122e-01 1.815248594176907204e+00
2.127922494301545953e-01 1.678566366851551805e+00
2.138327983268199783e-01 1.415454005283834249e+00
2.148733472234853614e-01 1.199633648521395202e+00
2.159138961201507445e-01 1.018421961573832135e+00
2.169544450168161276e-01 8.922810845001443170e-01
2.179949939134815107e-01 8.844087267739091374e-01
2.190355428101468938e-01 8.987028768541733825e-01
2.200760917068122768e-01 7.462710431381545106e-01
2.211166406034776599e-01 8.337116050845274629e-01
2.221571895001430430e-01 6.914921371816333817e-01
2.231977383968084261e-01 6.075691655221895360e-01
2.242382872934738092e-01 5.337866230585852634e-01
2.252788361901391923e-01 6.463047395337220280e-01
2.263193850868045753e-01 7.037067308742948057e-01
2.273599339834699584e-01 1.073424826069327764e+00
2.284004828801353415e-01 6.245759546304086030e-01
2.294410317768007246e-01 4.499752953856948068e-01
2.304815806734661077e-01 4.133433364264895715e-01
2.315221295701314908e-01 3.490077824882931168e-01
2.325626784667968738e-01 3.678902800746435275e-01
2.336032273634622569e-01 4.389293557035287563e-01
2.346437762601276400e-01 5.800198033207237813e-01
2.356843251567930231e-01 6.932774393785656741e-01
2.367248740534584062e-01 8.626284525913767709e-01
2.377654229501237892e-01 9.855106145790237804e-01
2.388059718467891723e-01 8.708054408564755988e-01
2.398465207434545554e-01 8.155807919847859466e-01
2.408870696401199385e-01 8.029415992619206577e-01
2.419276185367853216e-01 9.430236584332654104e-01
2.429681674334507047e-01 1.006705119612242072e+00
2.440087163301160877e-01 1.096114311024688703e+00
2.450492652267814708e-01 1.052870544256347074e+00
2.460898141234468539e-01 9.974180797766116768e-01
2.471303630201122370e-01 9.976676758462375005e-01
2.481709119167776201e-01 1.114583593077984602e+00
2.492114608134430032e-01 1.534462206759748426e+00
2.502520097101083585e-01 1.996312469926284194e+00
2.512925586067737416e-01 1.605272675040591679e+00
2.523331075034391247e-01 1.471365501767682105e+00
2.533736564001045077e-01 1.807556515292603194e+00
2.544142052967698908e-01 1.879350642239568714e+00
2.554547541934352739e-01 2.056981169109256768e+00
2.564953030901006570e-01 2.577236763560406985e+00
2.575358519867660401e-01 3.019595310319015624e+00
2.585764008834314231e-01 2.674249407649526233e+00
2.596169497800968062e-01 2.272348666037991904e+00
2.606574986767621893e-01 2.163704348639910791e+00
2.616980475734275724e-01 2.110034974410709196e+00
2.627385964700929555e-01 2.078613458302729811e+00
2.637791453667583386e-01 2.372951205509977513e+00
2.648196942634237216e-01 3.440953221762210745e+00
2.658602431600891047e-01 3.549257533574955659e+00
2.669007920567544878e-01 2.473803342082089074e+00
2.679413409534198709e-01 2.039570343795062968e+00
2.689818898500852540e-01 1.879081945565648226e+00
2.700224387467506371e-01 1.702203896732623178e+00
2.710629876434160201e-01 1.723842406818697270e+00
2.721035365400814032e-01 1.737935713508662161e+00
2.731440854367467863e-01 1.968502621757100002e+00
2.741846343334121694e-01 1.821888695087359622e+00
2.752251832300775525e-01 1.915933575081080420e+00
2.762657321267429356e-01 1.961867223416231099e+00
2.773062810234083186e-01 2.004333453379736341e+00
2.783468299200737017e-01 1.894700302547157378e+00
2.793873788167390848e-01 1.745863351637432004e+00
2.804279277134044679e-01 1.641609826110450143e+00
2.814684766100698510e-01 1.664861624822187025e+00
2.825090255067352341e-01 1.660128741949048248e+00
2.835495744034006171e-01 1.518978562858507075e+00
2.845901233000660002e-01 1.352072125945685599e+00
2.856306721967313833e-01 1.371965218033242451e+00
2.866712210933967664e-01 1.435188504005470378e+00
2.877117699900621495e-01 1.407268637668813938e+00
2.887523188867275326e-01 1.550617855251260835e+00
2.897928677833929156e-01 1.383271933217930183e+00
2.908334166800582987e-01 1.103571123023840528e+00
2.918739655767236818e-01 1.061000677466715558e+00
2.929145144733890649e-01 9.519650432599569001e-01
2.939550633700544480e-01 7.995602594353883319e-01
2.949956122667198311e-01 8.733438774569819429e-01
2.960361611633852141e-01 9.381441997217478956e-01
2.970767100600505972e-01 9.486531863364291439e-01
2.981172589567159803e-01 9.737854382836452771e-01
2.991578078533813634e-01 8.670886484596920241e-01
3.001983567500468020e-01 6.049533290141759778e-01
3.012389056467121851e-01 7.842616541568432353e-01
3.022794545433775681e-01 1.273419062697826121e+00
3.033200034400429512e-01 1.020451830774476321e+00
3.043605523367083343e-01 9.428499306215023523e-01
3.054011012333737174e-01 8.206101088187800485e-01
3.064416501300391005e-01 5.423377770278889898e-01
3.074821990267044836e-01 4.479538023498221833e-01
3.085227479233698666e-01 5.146731965582951318e-01
3.095632968200352497e-01 6.641333095072461390e-01
3.106038457167006328e-01 5.773992601255848456e-01
3.116443946133660159e-01 5.207783310686551204e-01
3.126849435100313990e-01 4.702904741261981769e-01
3.137254924066967821e-01 2.300655547702668002e-01
3.147660413033621651e-01 4.773768345780666778e-01
3.158065902000275482e-01 4.466025419682146946e-01
3.168471390966929313e-01 4.151042757685594609e-01
3.178876879933583144e-01 2.229983560352657435e-01
3.189282368900236975e-01 2.978404668827820956e-01
3.199687857866890806e-01 6.032994246971803420e-01
3.210093346833544636e-01 2.798848979457169150e-01
3.220498835800198467e-01 5.619909720951099530e-02
3.230904324766852298e-01 9.830983003525872732e-02
3.241309813733506129e-01 1.672420882669882758e-01
3.251715302700159960e-01 3.695777928127768064e-01
3.262120791666813790e-01 3.106973719821830571e-01
3.272526280633467621e-01 2.698467377237818710e-01
3.282931769600121452e-01 3.855250371247080921e-01
3.293337258566775283e-01 5.175180621204304998e-01
3.303742747533429114e-01 4.307915449924806239e-01
3.314148236500082945e-01 4.276499654312786447e-01
3.324553725466736775e-01 4.878462676019594824e-01
3.334959214433390606e-01 4.900899544513279693e-01
3.345364703400044437e-01 5.376742562775760348e-01
3.355770192366698268e-01 5.966321909944412027e-01
3.366175681333352099e-01 7.327277158949208058e-01
3.376581170300005930e-01 4.798539453862602500e-01
3.386986659266659760e-01 5.941101657127312308e-01
3.397392148233313591e-01 7.047729168135994371e-01
3.407797637199967422e-01 5.951376357619508894e-01
3.418203126166621253e-01 7.408091676086527855e-01
3.428608615133275084e-01 6.944516174731241165e-01
3.439014104099928915e-01 6.246745537767246503e-01
3.449419593066582745e-01 5.789357723880677042e-01
3.459825082033236576e-01 6.800719806249624355e-01
3.470230570999890407e-01 6.906908928446711116e-01
3.480636059966544238e-01 6.346402575449978656e-01
3.491041548933198069e-01 5.653580680534027181e-01
3.501447037899851900e-01 8.106058461231633316e-01
3.511852526866505730e-01 6.948287516614151116e-01
3.522258015833159561e-01 7.462043301413601171e-01
3.532663504799813392e-01 7.491003977066270636e-01
3.543068993766467223e-01 6.679322642601235316e-01
3.553474482733121054e-01 8.558419551212885779e-01
3.563879971699774885e-01 9.119882766957054798e-01
3.574285460666428715e-01 7.558580366996103805e-01
3.584690949633082546e-01 5.606766930352407030e-01
3.595096438599736377e-01 6.046235617200608203e-01
3.605501927566390208e-01 6.429632745823461448e-01
3.615907416533044039e-01 8.227880391664648130e-01
3.626312905499697870e-01 7.869602524216752215e-01
3.636718394466351700e-01 8.639525541054169366e-01
3.647123883433005531e-01 8.966964235699350638e-01
3.657529372399659362e-01 1.073120825815266244e+00
3.667934861366313193e-01 9.590684789160768275e-01
3.678340350332967024e-01 7.476462612927079476e-01
3.688745839299620854e-01 5.775672823803397193e-01
3.699151328266274685e-01 6.670380088657807960e-01
3.709556817232928516e-01 6.414542428657377116e-01
3.719962306199582347e-01 7.983114404404929587e-01
3.730367795166236178e-01 8.934708046579693530e-01
3.740773284132890009e-01 9.225581126481152694e-01
3.751178773099543839e-01 9.304375474863313400e-01
3.761584262066197670e-01 8.616193281449966435e-01
3.771989751032851501e-01 8.073637709143213215e-01
3.782395239999505332e-01 6.004584685387008847e-01
3.792800728966159163e-01 5.511410325157122259e-01
3.803206217932812994e-01 5.918505723560336662e-01
3.813611706899466824e-01 8.842157351975430402e-01
3.824017195866120655e-01 7.534583124547573618e-01
3.834422684832774486e-01 7.359445410922305086e-01
3.844828173799428317e-01 5.572421856830516163e-01
3.855233662766082148e-01 5.599031549483157733e-01
3.865639151732735979e-01 4.924221766417886670e-01
3.876044640699389809e-01 5.416890159206992905e-01
3.886450129666043640e-01 4.559382106578659943e-01
3.896855618632697471e-01 3.933123766822284040e-01
3.907261107599351302e-01 2.676274359471584319e-01
3.917666596566005133e-01 3.308499429607429931e-01
3.928072085532658964e-01 5.994843751908618401e-01
3.938477574499312794e-01 5.501996009336025395e-01
3.948883063465966625e-01 5.057726843602239342e-01
3.959288552432620456e-01 4.815309311257998104e-01
3.969694041399274287e-01 4.010978653188672638e-01
3.980099530365928118e-01 4.424960321262965124e-01
3.990505019332581949e-01 4.263895099520951248e-01
4.000910508299235779e-01 5.583328232134903146e-01
4.011315997265889610e-01 4.493916017533265972e-01
4.021721486232543441e-01 4.634795547657368786e-01
4.032126975199197272e-01 4.897048510425747736e-01
4.042532464165851103e-01 4.491732131366319436e-01
4.052937953132504934e-01 3.643080231083821729e-01
4.063343442099158764e-01 5.876930540511189349e-01
4.073748931065812595e-01 3.666241171165935953e-01
4.084154420032466426e-01 2.259230886043965825e-01
4.094559908999120257e-01 1.945210291265446756e-01
4.104965397965774088e-01 4.065375547254035382e-01
4.115370886932427918e-01 4.174918514675880488e-01
4.125776375899081749e-01 3.393047074934116836e-01
4.136181864865735580e-01 3.444367237853711572e-01
4.146587353832389411e-01 3.818581969745729054e-01
4.156992842799043242e-01 5.735720579993035528e-01
4.167398331765697073e-01 5.139942445167768881e-01
4.177803820732350903e-01 5.026964323855871442e-01
4.188209309699004734e-01 3.774976467175257255e-01
4.198614798665658565e-01 1.795615613186107851e-01
4.209020287632312396e-01 2.194270728154812389e-01
4.219425776598966227e-01 2.242363944625793692e-01
4.229831265565620058e-01 2.847943322343198247e-01
4.240236754532273888e-01 3.065995483139616340e-01
4.250642243498927719e-01 3.196868779698327501e-01
4.261047732465581550e-01 2.308292358015862078e-01
4.271453221432235381e-01 3.763421457384659163e-01
4.281858710398889212e-01 2.994779556364868256e-01
4.292264199365543043e-01 2.449663222954505670e-01
4.302669688332196873e-01 1.989901940541649594e-01
4.313075177298850704e-01 2.470841781679204985e-01
4.323480666265504535e-01 3.229374673662164241e-01
4.333886155232158366e-01 3.843422227429371674e-01
4.344291644198812197e-01 4.282002047388182575e-01
