# q (1/Angstrom), Intensity (arb)
2.029070354705860696e-02 6.198876582691452768e+02
2.133125244372399004e-02 6.162673773876222185e+02
2.237180134038937659e-02 6.179830381937664470e+02
2.341235023705475968e-02 6.115488759054201182e+02
2.445289913372014276e-02 6.012823618821687433e+02
2.549344803038552584e-02 5.949898378514416208e+02
2.653399692705091240e-02 5.922250189616128182e+02
2.757454582371629548e-02 5.839237231289348529e+02
2.861509472038167856e-02 5.744269565953816254e+02
2.965564361704706164e-02 5.710443873364380352e+02
3.069619251371244473e-02 5.642104612832613384e+02
3.173674141037782781e-02 5.575859334117808430e+02
3.277729030704321089e-02 5.512933381275124702e+02
3.381783920370859398e-02 5.424828533459616438e+02
3.485838810037397706e-02 5.343834991908024676e+02
3.589893699703936014e-02 5.249021031857190565e+02
3.693948589370474322e-02 5.156293047826125076e+02
3.798003479037012631e-02 5.068935126812395424e+02
3.902058368703550939e-02 4.977278084836863741e+02
4.006113258370089247e-02 4.868944888185430955e+02
4.110168148036627556e-02 4.778350713508996250e+02
4.214223037703165864e-02 4.683284794456223494e+02
4.318277927369704866e-02 4.599419315803072550e+02
4.422332817036243174e-02 4.483286786090718579e+02
4.526387706702781483e-02 4.388616263638261330e+02
4.630442596369319791e-02 4.289938253485028099e+02
4.734497486035858099e-02 4.198032507037676737e+02
4.838552375702396408e-02 4.106725756820586071e+02
4.942607265368934716e-02 4.015142237580180335e+02
5.046662155035473024e-02 3.928931769457911969e+02
5.150717044702011332e-02 3.827956269619315890e+02
5.254771934368549641e-02 3.693729466984210035e+02
5.358826824035087949e-02 3.606956080170561449e+02
5.462881713701626257e-02 3.516687489311440800e+02
5.566936603368164566e-02 3.406391106858728790e+02
5.670991493034702874e-02 3.315555511019500727e+02
5.775046382701241182e-02 3.223989848073067037e+02
5.879101272367779490e-02 3.117360771770776751e+02
5.983156162034317799e-02 3.032694060525587361e+02
6.087211051700856107e-02 2.936436443557764733e+02
6.191265941367394415e-02 2.823844261899922117e+02
6.295320831033933417e-02 2.735058323248040892e+02
6.399375720700471726e-02 2.658688989604345920e+02
6.503430610367010034e-02 2.582148581304635400e+02
6.607485500033548342e-02 2.487762510959903182e+02
6.711540389700086651e-02 2.380105104031327414e+02
6.815595279366624959e-02 2.311583752241711522e+02
6.919650169033163267e-02 2.226222206880721046e+02
7.023705058699701576e-02 2.138801605264839054e+02
7.127759948366239884e-02 2.054081576903539315e+02
7.231814838032778192e-02 1.979482043339350241e+02
7.335869727699316500e-02 1.906354785165300143e+02
7.439924617365854809e-02 1.830828389395753106e+02
7.543979507032393117e-02 1.763961553807880591e+02
7.648034396698931425e-02 1.701127844255626371e+02
7.752089286365469734e-02 1.646339172022777291e+02
7.856144176032008042e-02 1.604554413334503806e+02
7.960199065698546350e-02 1.584806591105289328e+02
8.064253955365084658e-02 1.659371707373136928e+02
8.168308845031622967e-02 2.350823051322816468e+02
8.272363734698161275e-02 4.637018730710546492e+02
8.376418624364699583e-02 5.864023466503199415e+02
8.480473514031239279e-02 3.891440231513593631e+02
8.584528403697777588e-02 2.587684410461469611e+02
8.688583293364315896e-02 3.369275827996067960e+02
8.792638183030854204e-02 6.064263942157357405e+02
8.896693072697392513e-02 6.431414233607367805e+02
9.000747962363930821e-02 3.674439520030941821e+02
9.104802852030469129e-02 2.579126400634640390e+02
9.208857741697007437e-02 3.363976748248965123e+02
9.312912631363545746e-02 6.143614551246305382e+02
9.416967521030084054e-02 9.236209491227044737e+02
9.521022410696622362e-02 7.556362940608900090e+02
9.625077300363160671e-02 3.612122493652333333e+02
9.729132190029698979e-02 1.756466113644996767e+02
9.833187079696237287e-02 1.133134623106704453e+02
9.937241969362775595e-02 8.644551821650317436e+01
1.004129685902931390e-01 7.497919741566852281e+01
1.014535174869585221e-01 7.157973565401782423e+01
1.024940663836239052e-01 6.417762455993701565e+01
1.035346152802892883e-01 5.033196723455735366e+01
1.045751641769546714e-01 4.046797082069363682e+01
1.056157130736200545e-01 3.519679222209292391e+01
1.066562619702854375e-01 3.100864239329562366e+01
1.076968108669508206e-01 2.773309519397984602e+01
1.087373597636162037e-01 2.477395199770632672e+01
1.097779086602815868e-01 2.231986683371603419e+01
1.108184575569469699e-01 1.991554385248463532e+01
1.118590064536123529e-01 1.823486334155379751e+01
1.128995553502777360e-01 1.613360161608390797e+01
1.139401042469431191e-01 1.436693470194054711e+01
1.149806531436085022e-01 1.275887865125568155e+01
1.160212020402738853e-01 1.177056275341509561e+01
1.170617509369392684e-01 1.091208722547019150e+01
1.181022998336046514e-01 9.997707406744549274e+00
1.191428487302700345e-01 9.577910080759398426e+00
1.201833976269354176e-01 9.633530419536231904e+00
1.212239465236008007e-01 9.138199387024339870e+00
1.222644954202661838e-01 7.517609740244477479e+00
1.233050443169315669e-01 5.818636360890561576e+00
1.243455932135969499e-01 4.219869776395199779e+00
1.253861421102623330e-01 3.438416337961395897e+00
1.264266910069277161e-01 3.126203947314088794e+00
1.274672399035930992e-01 2.566779615229489053e+00
1.285077888002584823e-01 2.372983518197013808e+00
1.295483376969238654e-01 1.973695939948786560e+00
1.305888865935892484e-01 1.892116619552162149e+00
1.316294354902546315e-01 1.777228284979180728e+00
1.326699843869200146e-01 1.633926491034362272e+00
1.337105332835853977e-01 1.426339721179900266e+00
1.347510821802507808e-01 1.343973727272746999e+00
1.357916310769161639e-01 1.376284509982284021e+00
1.368321799735815469e-01 1.508541065403367298e+00
1.378727288702469300e-01 1.944896407708810671e+00
1.389132777669123131e-01 2.129022728771598594e+00
1.399538266635776962e-01 2.167602060350304782e+00
1.409943755602430793e-01 2.596509920492202639e+00
1.420349244569084624e-01 3.536154739272053149e+00
1.430754733535738454e-01 7.222885796339728159e+00
1.441160222502392285e-01 1.471148170442447523e+01
1.451565711469046116e-01 1.341978822345468814e+01
1.461971200435699947e-01 6.849387348904215855e+00
1.472376689402353778e-01 4.614425088125990726e+00
1.482782178369007609e-01 4.230018826397948573e+00
1.493187667335661439e-01 4.332735857184921713e+00
1.503593156302315270e-01 4.581892531112902844e+00
1.513998645268969101e-01 5.262752623011763831e+00
1.524404134235622932e-01 6.183207967701324748e+00
1.534809623202276763e-01 7.182624327621120131e+00
1.545215112168930593e-01 1.005819212161283360e+01
1.555620601135584424e-01 1.604476794061093159e+01
1.566026090102238255e-01 2.241852533339957532e+01
1.576431579068892086e-01 2.019033800363958520e+01
1.586837068035545917e-01 1.343608695179596424e+01
1.597242557002199748e-01 9.889242999996422867e+00
1.607648045968853578e-01 8.507758912798394135e+00
1.618053534935507409e-01 7.902985130815999071e+00
1.628459023902161240e-01 7.392259904456068398e+00
1.638864512868815071e-01 7.604352910659084586e+00
1.649270001835468902e-01 8.243165283907472940e+00
1.659675490802122733e-01 1.169408958258802400e+01
1.670080979768776563e-01 1.707148192595831659e+01
1.680486468735430672e-01 3.099441881920470010e+01
1.690891957702084503e-01 5.821620823921141152e+01
1.701297446668738333e-01 5.116862243515949160e+01
1.711702935635392164e-01 3.093802325105281881e+01
1.722108424602045995e-01 3.375770559286225847e+01
1.732513913568699826e-01 2.964968389475903621e+01
1.742919402535353657e-01 1.676068212441103356e+01
1.753324891502007488e-01 1.182496504540315385e+01
1.763730380468661318e-01 1.349049767355326779e+01
1.774135869435315149e-01 1.324731933302029319e+01
1.784541358401968980e-01 9.312814008558113699e+00
1.794946847368622811e-01 6.731958151439080495e+00
1.805352336335276642e-01 5.805089726858501109e+00
1.815757825301930473e-01 5.683115060083220982e+00
1.826163314268584303e-01 5.503475090060980790e+00
1.836568803235238134e-01 5.723185762284124678e+00
1.846974292201891965e-01 5.721872650024273810e+00
1.857379781168545796e-01 5.513411134397557589e+00
1.867785270135199627e-01 6.138286102961764357e+00
1.878190759101853458e-01 6.700953640200978612e+00
1.888596248068507288e-01 6.781261207508087807e+00
1.899001737035161119e-01 6.116528147376293134e+00
1.909407226001814950e-01 5.508458500700143645e+00
1.919812714968468781e-01 4.984603553615638560e+00
1.930218203935122612e-01 4.788532434223206735e+00
1.940623692901776443e-01 4.392382511561596203e+00
1.951029181868430273e-01 4.499876325489005069e+00
1.961434670835084104e-01 3.907536881545585317e+00
1.971840159801737935e-01 3.268920065716688583e+00
1.982245648768391766e-01 2.812001185884977161e+00
1.992651137735045597e-01 2.923907154250844798e+00
2.003056626701699428e-01 2.688365261854205102e+00
2.013462115668353813e-01 2.404089892651359861e+00
2.023867604635007644e-01 2.439321531845177304e+00
2.034273093601661475e-01 2.458795876639189970e+00
2.044678582568315306e-01 2.271337207018440552e+00
2.055084071534969137e-01 1.800993743849847561e+00
2.065489560501622968e-01 1.616079153919510958e+00
2.075895049468276798e-01 1.480648277146656255e+00
2.086300538434930629e-01 1.388578952171084069e+00
2.096706027401584460e-01 1.407004488848524915e+00
2.107111516368238291e-01 1.593443804257702823e+00
2.117517005334892122e-01 1.636508559736739699e+00
2.127922494301545953e-01 1.871601965021817193e+00
2.138327983268199783e-01 1.665491449149573810e+00
2.148733472234853614e-01 1.355907754375468954e+00
2.159138961201507445e-01 1.197646116010016470e+00
2.169544450168161276e-01 6.850611881643686729e-01
2.179949939134815107e-01 6.054242454851923583e-01
2.190355428101468938e-01 8.101101887884105679e-01
2.200760917068122768e-01 5.224058312312251928e-01
2.211166406034776599e-01 5.764087659796039986e-01
2.221571895001430430e-01 5.747288092119902103e-01
2.231977383968084261e-01 3.490403777732957735e-01
2.242382872934738092e-01 5.183470261378637645e-01
2.252788361901391923e-01 6.379847335539885478e-01
2.263193850868045753e-01 6.268306551406688243e-01
2.273599339834699584e-01 4.261567510856956176e-01
2.284004828801353415e-01 6.660594409902351742e-01
2.294410317768007246e-01 6.236301762181710728e-01
2.304815806734661077e-01 5.634771647648690873e-01
2.315221295701314908e-01 5.540411938602360920e-01
2.325626784667968738e-01 5.670391380808474935e-01
2.336032273634622569e-01 5.256867800447722061e-01
2.346437762601276400e-01 6.217321669505331272e-01
2.356843251567930231e-01 8.889878080788662373e-01
2.367248740534584062e-01 9.301393028868858437e-01
2.377654229501237892e-01 8.100596565594528897e-01
2.388059718467891723e-01 7.755167901859110202e-01
2.398465207434545554e-01 6.133023174444574011e-01
2.408870696401199385e-01 5.763530274767170170e-01
2.419276185367853216e-01 7.994083577434878407e-01
2.429681674334507047e-01 9.060400863822302142e-01
2.440087163301160877e-01 8.560738875515738755e-01
2.450492652267814708e-01 7.370333640054589353e-01
2.460898141234468539e-01 7.061258859767107765e-01
2.471303630201122370e-01 8.836048965374629915e-01
2.481709119167776201e-01 1.079164005610461885e+00
2.492114608134430032e-01 1.656378238213662257e+00
2.502520097101083585e-01 2.140328533980721204e+00
2.512925586067737416e-01 1.821749988484498317e+00
2.523331075034391247e-01 1.272594418634554359e+00
2.533736564001045077e-01 1.277400067749315582e+00
2.544142052967698908e-01 1.439399617112623986e+00
2.554547541934352739e-01 1.677011912313030706e+00
2.564953030901006570e-01 2.665075358922280202e+00
2.575358519867660401e-01 3.542953071633974105e+00
2.585764008834314231e-01 3.131969770970158606e+00
2.596169497800968062e-01 2.143754501625366515e+00
2.606574986767621893e-01 1.586007968006526880e+00
2.616980475734275724e-01 1.601355576693133997e+00
2.627385964700929555e-01 1.533760694158857518e+00
2.637791453667583386e-01 2.427023333860390153e+00
2.648196942634237216e-01 4.299691583523426175e+00
2.658602431600891047e-01 4.535197940568451713e+00
2.669007920567544878e-01 2.437717207452291035e+00
2.679413409534198709e-01 1.646849218676308624e+00
2.689818898500852540e-01 1.367231288340466477e+00
2.700224387467506371e-01 1.227288552040477043e+00
2.710629876434160201e-01 1.166817772705005751e+00
2.721035365400814032e-01 1.345325404611653397e+00
2.731440854367467863e-01 1.328018094836501461e+00
2.741846343334121694e-01 1.366796708466250010e+00
2.752251832300775525e-01 1.701136160734979086e+00
2.762657321267429356e-01 1.933273092406160742e+00
2.773062810234083186e-01 1.947597606534841930e+00
2.783468299200737017e-01 1.831999297522806103e+00
2.793873788167390848e-01 1.271142163882089449e+00
2.804279277134044679e-01 1.029498514655355024e+00
2.814684766100698510e-01 1.208537690558749489e+00
2.825090255067352341e-01 1.352870752114000652e+00
2.835495744034006171e-01 1.172488474558136318e+00
2.845901233000660002e-01 8.963572800008030583e-01
2.856306721967313833e-01 9.269512284699494842e-01
2.866712210933967664e-01 9.819906526955684001e-01
2.877117699900621495e-01 1.072576864870047331e+00
2.887523188867275326e-01 1.356498291104237808e+00
2.897928677833929156e-01 1.158359339560693257e+00
2.908334166800582987e-01 9.681149216859914475e-01
2.918739655767236818e-01 8.422950998474405537e-01
2.929145144733890649e-01 8.180933180346308120e-01
2.939550633700544480e-01 8.507219774688401515e-01
2.949956122667198311e-01 8.099451707504883302e-01
2.960361611633852141e-01 7.446001713511769537e-01
2.970767100600505972e-01 6.996176119550945316e-01
2.981172589567159803e-01 6.246152584916409012e-01
2.991578078533813634e-01 6.693306124023905568e-01
3.001983567500468020e-01 5.877966373228460384e-01
3.012389056467121851e-01 9.805448017530480342e-01
3.022794545433775681e-01 1.243884802568071990e+00
3.033200034400429512e-01 9.595595260644564917e-01
3.043605523367083343e-01 9.006464026176494997e-01
3.054011012333737174e-01 6.742934254480204004e-01
3.064416501300391005e-01 4.982311264736409839e-01
3.074821990267044836e-01 3.732191620522193887e-01
3.085227479233698666e-01 2.689070713681651625e-01
3.095632968200352497e-01 5.387068329995763349e-01
3.106038457167006328e-01 4.123143788238614604e-01
3.116443946133660159e-01 2.828286964665061021e-01
3.126849435100313990e-01 1.074325013432755327e-01
3.137254924066967821e-01 3.621274198343726880e-01
3.147660413033621651e-01 5.946119956171855847e-01
3.158065902000275482e-01 6.377220818060322927e-01
3.168471390966929313e-01 3.566866933866350564e-01
3.178876879933583144e-01 2.941473362274287240e-01
3.189282368900236975e-01 4.767566605441828642e-01
3.199687857866890806e-01 2.318004338397336994e-01
3.210093346833544636e-01 0.000000000000000000e+00
3.220498835800198467e-01 1.734668929899605416e-01
3.230904324766852298e-01 2.490044582059702805e-01
3.241309813733506129e-01 1.796977670192738685e-01
3.251715302700159960e-01 1.380275889018314217e-01
3.262120791666813790e-01 2.884971382449634802e-01
3.272526280633467621e-01 3.072277550194861817e-01
3.282931769600121452e-01 3.021180348063836618e-01
3.293337258566775283e-01 3.153239170277757353e-01
3.303742747533429114e-01 3.577903115274416734e-01
3.314148236500082945e-01 2.873994708326783609e-01
3.324553725466736775e-01 3.862165502020786789e-01
3.334959214433390606e-01 4.553581991504600524e-01
3.345364703400044437e-01 3.926038696722500276e-01
3.355770192366698268e-01 3.269025436985479871e-01
3.366175681333352099e-01 5.986298737669493164e-01
3.376581170300005930e-01 6.512652812580199679e-01
3.386986659266659760e-01 6.516642120682654138e-01
3.397392148233313591e-01 6.729242001242887738e-01
3.407797637199967422e-01 3.734208735487491992e-01
3.418203126166621253e-01 3.441313643418055790e-01
3.428608615133275084e-01 6.238362573888949214e-01
3.439014104099928915e-01 4.814531818524159235e-01
3.449419593066582745e-01 6.422168903199363399e-01
3.459825082033236576e-01 6.306615520476661629e-01
3.470230570999890407e-01 6.213674935546826816e-01
3.480636059966544238e-01 5.561081465969976989e-01
3.491041548933198069e-01 5.340862778535253597e-01
3.501447037899851900e-01 5.237265601230376433e-01
3.511852526866505730e-01 6.759570859895838169e-01
3.522258015833159561e-01 8.391484030585729670e-01
3.532663504799813392e-01 7.720139700154575735e-01
3.543068993766467223e-01 8.423195457186487545e-01
3.553474482733121054e-01 6.922641665721300797e-01
3.563879971699774885e-01 6.675954488134969722e-01
3.574285460666428715e-01 6.032172958626169645e-01
3.584690949633082546e-01 5.205923366910809591e-01
3.595096438599736377e-01 4.560257307911150804e-01
3.605501927566390208e-01 5.227824294614755729e-01
3.615907416533044039e-01 5.879852471532558411e-01
3.626312905499697870e-01 7.147463109964036221e-01
3.636718394466351700e-01 9.507620332737189983e-01
3.647123883433005531e-01 1.235914616972181079e+00
3.657529372399659362e-01 9.636009195265913263e-01
3.667934861366313193e-01 1.002860370448740213e+00
3.678340350332967024e-01 1.085127629262689908e+00
3.688745839299620854e-01 9.001076504946112777e-01
3.699151328266274685e-01 6.252612280105971365e-01
3.709556817232928516e-01 5.468466331838506278e-01
3.719962306199582347e-01 6.195729015162569908e-01
3.730367795166236178e-01 7.991047279872027786e-01
3.740773284132890009e-01 7.504970359496958565e-01
3.751178773099543839e-01 6.634327423388270972e-01
3.761584262066197670e-01 6.375092709291045878e-01
3.771989751032851501e-01 5.610528007679072005e-01
3.782395239999505332e-01 5.135107130956413357e-01
3.792800728966159163e-01 5.940396137208878713e-01
3.803206217932812994e-01 8.489859458137729575e-01
3.813611706899466824e-01 8.755095246670450138e-01
3.824017195866120655e-01 8.935358687398782251e-01
3.834422684832774486e-01 6.579409665141291441e-01
3.844828173799428317e-01 4.498815521791144079e-01
3.855233662766082148e-01 4.109081556327041085e-01
3.865639151732735979e-01 2.809396610746723866e-01
3.876044640699389809e-01 4.058977061215962578e-01
3.886450129666043640e-01 4.108952451769241065e-01
3.896855618632697471e-01 4.677769642058855482e-01
3.907261107599351302e-01 4.510395678759877569e-01
3.917666596566005133e-01 5.908360963335859140e-01
3.928072085532658964e-01 6.737355933964082055e-01
3.938477574499312794e-01 5.858472655100008808e-01
3.948883063465966625e-01 4.628624078758534210e-01
3.959288552432620456e-01 4.237815808483489377e-01
3.969694041399274287e-01 3.985900082349722595e-01
3.980099530365928118e-01 1.772198820533219532e-01
3.990505019332581949e-01 1.892350857764242278e-01
4.000910508299235779e-01 3.303454486763435227e-01
4.011315997265889610e-01 2.949691341501257114e-01
4.021721486232543441e-01 2.158012049983746294e-01
4.032126975199197272e-01 3.357012767639560025e-01
4.042532464165851103e-01 4.241473026043749428e-01
4.052937953132504934e-01 3.230845927560253017e-01
4.063343442099158764e-01 1.888569692583494941e-01
4.073748931065812595e-01 2.379983578594071503e-01
4.084154420032466426e-01 2.962816215585029056e-01
4.094559908999120257e-01 1.069712213372255860e-01
4.104965397965774088e-01 1.942379907360312075e-01
4.115370886932427918e-01 2.133869196767257392e-01
4.125776375899081749e-01 3.578375711477619348e-01
4.136181864865735580e-01 3.335643347966410488e-01
4.146587353832389411e-01 3.266432669526331267e-01
4.156992842799043242e-01 2.772423321126531448e-01
4.167398331765697073e-01 2.821252825998392666e-01
4.177803820732350903e-01 2.121978070740091482e-01
4.188209309699004734e-01 3.867003523501111317e-01
4.198614798665658565e-01 3.311355238269015899e-01
4.209020287632312396e-01 3.538354890449575407e-01
4.219425776598966227e-01 3.912183613966284668e-01
4.229831265565620058e-01 3.836202695512369587e-01
4.240236754532273888e-01 2.975265693676689693e-01
4.250642243498927719e-01 4.075665338532914461e-01
4.261047732465581550e-01 3.863353960214830352e-01
4.271453221432235381e-01 2.401384914811508509e-01
4.281858710398889212e-01 3.786980280516161201e-01
4.292264199365543043e-01 4.584598283999170576e-01
4.302669688332196873e-01 4.007848074530393490e-01
4.313075177298850704e-01 4.120375672662142108e-01
4.323480666265504535e-01 4.894930147195282188e-01
4.333886155232158366e-01 4.571329916282245165e-01
4.344291644198812197e-01 4.861220945449744590e-01
