# q (1/Angstrom), Intensity (arb)
2.029070354705860696e-02 3.172496003178840738e+02
2.133125244372399004e-02 3.090255118680923374e+02
2.237180134038937659e-02 3.085378272531938819e+02
2.341235023705475968e-02 3.055448159433979640e+02
2.445289913372014276e-02 3.009054298260994074e+02
2.549344803038552584e-02 2.981814008579010533e+02
2.653399692705091240e-02 2.949892363604846537e+02
2.757454582371629548e-02 2.906701279835808691e+02
2.861509472038167856e-02 2.877636172068195606e+02
2.965564361704706164e-02 2.832393699060369272e+02
3.069619251371244473e-02 2.805137054309232667e+02
3.173674141037782781e-02 2.807937294807563831e+02
3.277729030704321089e-02 2.737985038974325107e+02
3.381783920370859398e-02 2.694790305646538400e+02
3.485838810037397706e-02 2.648283946516262972e+02
3.589893699703936014e-02 2.590062023651801155e+02
3.693948589370474322e-02 2.562375819625707436e+02
3.798003479037012631e-02 2.510608299365038647e+02
3.902058368703550939e-02 2.458236284024312113e+02
4.006113258370089247e-02 2.429986421789374731e+02
4.110168148036627556e-02 2.381582049707541842e+02
4.214223037703165864e-02 2.332189752480683183e+02
4.318277927369704866e-02 2.280694605483651571e+02
4.422332817036243174e-02 2.233182678931916030e+02
4.526387706702781483e-02 2.198096386984516641e+02
4.630442596369319791e-02 2.152464809398434795e+02
4.734497486035858099e-02 2.085625585772992281e+02
4.838552375702396408e-02 2.049600732407008650e+02
4.942607265368934716e-02 1.994548043389787324e+02
5.046662155035473024e-02 1.944815844429452909e+02
5.150717044702011332e-02 1.899179229000385476e+02
5.254771934368549641e-02 1.860140764971142175e+02
5.358826824035087949e-02 1.813904909501461304e+02
5.462881713701626257e-02 1.756360370216891056e+02
5.566936603368164566e-02 1.711066757216945575e+02
5.670991493034702874e-02 1.674564824217168564e+02
5.775046382701241182e-02 1.625538026618453955e+02
5.879101272367779490e-02 1.578491630300326847e+02
5.983156162034317799e-02 1.525035143469469290e+02
6.087211051700856107e-02 1.458292352766730176e+02
6.191265941367394415e-02 1.410599097141820835e+02
6.295320831033933417e-02 1.378924825623003017e+02
6.399375720700471726e-02 1.347455442035404189e+02
6.503430610367010034e-02 1.306439543718664709e+02
6.607485500033548342e-02 1.259769097770194861e+02
6.711540389700086651e-02 1.217515313328763824e+02
6.815595279366624959e-02 1.183588048423034991e+02
6.919650169033163267e-02 1.140829696739267831e+02
7.023705058699701576e-02 1.100196510209955250e+02
7.127759948366239884e-02 1.051768008652416313e+02
7.231814838032778192e-02 1.015522446339183062e+02
7.335869727699316500e-02 9.788846281880410061e+01
7.439924617365854809e-02 9.471881385011818111e+01
7.543979507032393117e-02 9.191596119574846568e+01
7.648034396698931425e-02 8.835170272198669750e+01
7.752089286365469734e-02 8.478469035389380792e+01
7.856144176032008042e-02 8.250751439219258998e+01
7.960199065698546350e-02 8.046368977323226090e+01
8.064253955365084658e-02 7.936262060525447737e+01
8.168308845031622967e-02 7.977169723797672418e+01
8.272363734698161275e-02 8.493628729126812971e+01
8.376418624364699583e-02 1.102160560026162841e+02
8.480473514031239279e-02 1.658497329434070480e+02
8.584528403697777588e-02 2.168011049853880365e+02
8.688583293364315896e-02 2.473063224471848969e+02
8.792638183030854204e-02 3.279390535205608330e+02
8.896693072697392513e-02 5.757424294874249426e+02
9.000747962363930821e-02 8.848235461467709229e+02
9.104802852030469129e-02 8.356191885158337982e+02
9.208857741697007437e-02 5.119410480043842995e+02
9.312912631363545746e-02 3.016546434467577456e+02
9.416967521030084054e-02 2.237352693263562742e+02
9.521022410696622362e-02 1.879849745658700328e+02
9.625077300363160671e-02 1.643907301243569350e+02
9.729132190029698979e-02 1.438789262344522513e+02
9.833187079696237287e-02 1.261605310445530961e+02
9.937241969362775595e-02 1.113904849403503476e+02
1.004129685902931390e-01 1.016814126564432286e+02
1.014535174869585221e-01 9.926255831428322551e+01
1.024940663836239052e-01 1.103354659315103845e+02
1.035346152802892883e-01 1.310814372940426722e+02
1.045751641769546714e-01 1.271998291305294799e+02
1.056157130736200545e-01 8.966190299733955271e+01
1.066562619702854375e-01 5.235977905054284065e+01
1.076968108669508206e-01 3.310535898980111114e+01
1.087373597636162037e-01 2.362964663821261979e+01
1.097779086602815868e-01 1.877222006723509651e+01
1.108184575569469699e-01 1.522084512695229108e+01
1.118590064536123529e-01 1.287461907073073064e+01
1.128995553502777360e-01 1.135651158962729568e+01
1.139401042469431191e-01 9.561906690936787356e+00
1.149806531436085022e-01 8.217450380378608088e+00
1.160212020402738853e-01 7.555953406736293232e+00
1.170617509369392684e-01 6.857826145166420417e+00
1.181022998336046514e-01 5.684897082767200516e+00
1.191428487302700345e-01 4.794047987364599805e+00
1.201833976269354176e-01 4.125548208074555134e+00
1.212239465236008007e-01 3.277640039498223246e+00
1.222644954202661838e-01 2.753414838103758200e+00
1.233050443169315669e-01 2.337909729187806818e+00
1.243455932135969499e-01 2.272258818667623359e+00
1.253861421102623330e-01 2.085455839088403707e+00
1.264266910069277161e-01 1.823081070905246293e+00
1.274672399035930992e-01 1.994735958047421320e+00
1.285077888002584823e-01 1.977961601144492931e+00
1.295483376969238654e-01 1.860727889708400085e+00
1.305888865935892484e-01 1.533275292990133210e+00
1.316294354902546315e-01 8.542222396093350767e-01
1.326699843869200146e-01 1.256587195557735015e+00
1.337105332835853977e-01 1.383293478671916432e+00
1.347510821802507808e-01 1.245479771990424922e+00
1.357916310769161639e-01 1.162830364627161828e+00
1.368321799735815469e-01 7.640040276622173110e-01
1.378727288702469300e-01 1.198839220212178702e+00
1.389132777669123131e-01 1.253462166301467562e+00
1.399538266635776962e-01 1.522888840228532104e+00
1.409943755602430793e-01 1.870306532047628423e+00
1.420349244569084624e-01 1.791420234928068567e+00
1.430754733535738454e-01 2.026325126467348525e+00
1.441160222502392285e-01 3.086525527757252974e+00
1.451565711469046116e-01 5.866512778182709553e+00
1.461971200435699947e-01 1.184965125631798344e+01
1.472376689402353778e-01 1.648113746925574929e+01
1.482782178369007609e-01 1.445117575543947908e+01
1.493187667335661439e-01 9.242817557518698379e+00
1.503593156302315270e-01 6.092396259606779552e+00
1.513998645268969101e-01 4.912810507013965378e+00
1.524404134235622932e-01 4.560494782137332948e+00
1.534809623202276763e-01 4.811097727231299359e+00
1.545215112168930593e-01 4.746885944591504369e+00
1.555620601135584424e-01 4.447641050979264321e+00
1.566026090102238255e-01 4.498253001986768140e+00
1.576431579068892086e-01 4.961985551767106983e+00
1.586837068035545917e-01 4.775281652909598051e+00
1.597242557002199748e-01 4.790520067341809352e+00
1.607648045968853578e-01 5.111143177010355032e+00
1.618053534935507409e-01 5.048938540422454935e+00
1.628459023902161240e-01 5.445866464507744809e+00
1.638864512868815071e-01 5.100370437725686656e+00
1.649270001835468902e-01 5.680099475286411348e+00
1.659675490802122733e-01 5.952231211000821531e+00
1.670080979768776563e-01 6.493654394740438818e+00
1.680486468735430672e-01 7.019887200800248195e+00
1.690891957702084503e-01 9.639239514866204672e+00
1.701297446668738333e-01 1.587034105242594961e+01
1.711702935635392164e-01 2.834911533714851117e+01
1.722108424602045995e-01 4.259623260749256701e+01
1.732513913568699826e-01 4.563820524537436540e+01
1.742919402535353657e-01 3.539946045272167652e+01
1.753324891502007488e-01 2.383958983149789645e+01
1.763730380468661318e-01 1.675414189944700638e+01
1.774135869435315149e-01 1.287952617702791258e+01
1.784541358401968980e-01 1.227322361220939939e+01
1.794946847368622811e-01 1.337559792601070541e+01
1.805352336335276642e-01 1.338338968747660829e+01
1.815757825301930473e-01 1.113988058762322453e+01
1.826163314268584303e-01 8.567362164548370629e+00
1.836568803235238134e-01 6.141805248142702567e+00
1.846974292201891965e-01 4.664944406426144496e+00
1.857379781168545796e-01 4.114387433290779938e+00
1.867785270135199627e-01 3.801046660407237709e+00
1.878190759101853458e-01 3.210082841043039537e+00
1.888596248068507288e-01 2.768657029461515151e+00
1.899001737035161119e-01 2.882674532502505826e+00
1.909407226001814950e-01 2.925888355041376343e+00
1.919812714968468781e-01 2.641635116922337545e+00
1.930218203935122612e-01 2.549747171257060074e+00
1.940623692901776443e-01 2.225876066584007162e+00
1.951029181868430273e-01 1.974758529774451432e+00
1.961434670835084104e-01 1.877065745154300913e+00
1.971840159801737935e-01 2.027419044168752293e+00
1.982245648768391766e-01 1.949729136855751221e+00
1.992651137735045597e-01 1.781150736463860795e+00
2.003056626701699428e-01 2.083243772758414991e+00
2.013462115668353813e-01 2.004575092242429690e+00
2.023867604635007644e-01 1.333215358319463917e+00
2.034273093601661475e-01 1.480402062554745157e+00
2.044678582568315306e-01 1.001281776699961767e+00
2.055084071534969137e-01 9.530076204276056728e-01
2.065489560501622968e-01 1.494028874811352381e+00
2.075895049468276798e-01 1.395686526110647918e+00
2.086300538434930629e-01 1.344245225980419178e+00
2.096706027401584460e-01 1.179759802450263351e+00
2.107111516368238291e-01 1.138292509774448291e+00
2.117517005334892122e-01 1.159314782382381281e+00
2.127922494301545953e-01 8.621628415091784348e-01
2.138327983268199783e-01 4.790433257804522782e-01
2.148733472234853614e-01 7.047636499211371586e-01
2.159138961201507445e-01 6.619409970588598924e-01
2.169544450168161276e-01 3.709874486891848733e-01
2.179949939134815107e-01 3.941710511187004329e-01
2.190355428101468938e-01 2.960748279791012294e-01
2.200760917068122768e-01 3.325932879064268377e-01
2.211166406034776599e-01 4.993707475934527906e-01
2.221571895001430430e-01 7.654684704687078067e-01
2.231977383968084261e-01 4.696285387696903513e-01
2.242382872934738092e-01 2.145924206461380379e-01
2.252788361901391923e-01 3.154967408501718751e-01
2.263193850868045753e-01 2.413975777398427169e-01
2.273599339834699584e-01 2.544467425501473201e-01
2.284004828801353415e-01 3.055816530532453612e-01
2.294410317768007246e-01 2.624316122804231100e-01
2.304815806734661077e-01 3.356246445216122254e-01
2.315221295701314908e-01 5.015467438797109878e-01
2.325626784667968738e-01 6.843202968132686692e-01
2.336032273634622569e-01 9.620148904323286843e-01
2.346437762601276400e-01 5.459575793978395097e-01
2.356843251567930231e-01 2.961829185204578607e-02
2.367248740534584062e-01 -3.552713678800500929e-15
2.377654229501237892e-01 1.833941454134340177e-01
2.388059718467891723e-01 4.268142672366899149e-01
2.398465207434545554e-01 2.883848156737762736e-01
2.408870696401199385e-01 6.280956276283227169e-01
2.419276185367853216e-01 4.608071309826051731e-01
2.429681674334507047e-01 4.281722907087583962e-01
2.440087163301160877e-01 5.503350710242109756e-01
2.450492652267814708e-01 5.714485654568264295e-01
2.460898141234468539e-01 7.348477618671260814e-01
2.471303630201122370e-01 7.833021113336400276e-01
2.481709119167776201e-01 7.828999177930349163e-01
2.492114608134430032e-01 1.025364330196417484e+00
2.502520097101083585e-01 9.276763803205376746e-01
2.512925586067737416e-01 9.783458789422141422e-01
2.523331075034391247e-01 1.480994103460375300e+00
2.533736564001045077e-01 1.701242915190409377e+00
2.544142052967698908e-01 2.152667282732913634e+00
2.554547541934352739e-01 2.211469390490901077e+00
2.564953030901006570e-01 2.128655853772443152e+00
2.575358519867660401e-01 1.853749730772488391e+00
2.585764008834314231e-01 1.532087275243164015e+00
2.596169497800968062e-01 1.105166903460350625e+00
2.606574986767621893e-01 1.217341197811101949e+00
2.616980475734275724e-01 1.480855810906259507e+00
2.627385964700929555e-01 1.611218348408385737e+00
2.637791453667583386e-01 1.490661498496901771e+00
2.648196942634237216e-01 1.203248273710169514e+00
2.658602431600891047e-01 1.331045189655110761e+00
2.669007920567544878e-01 1.643249871330958456e+00
2.679413409534198709e-01 1.795878964144350221e+00
2.689818898500852540e-01 2.248159224662686029e+00
2.700224387467506371e-01 2.912350327401991734e+00
2.710629876434160201e-01 2.818243729302768230e+00
2.721035365400814032e-01 2.180249607592482874e+00
2.731440854367467863e-01 2.192833956716601307e+00
2.741846343334121694e-01 2.016315111375092783e+00
2.752251832300775525e-01 1.392565766055096077e+00
2.762657321267429356e-01 1.070021464104261355e+00
2.773062810234083186e-01 6.735594202244499229e-01
2.783468299200737017e-01 5.773395404642300832e-01
2.793873788167390848e-01 6.330750105660847282e-01
2.804279277134044679e-01 7.970582532926755448e-01
2.814684766100698510e-01 8.864949138190638678e-01
2.825090255067352341e-01 8.789055867479298456e-01
2.835495744034006171e-01 7.946646319557544302e-01
2.845901233000660002e-01 8.970035533372637815e-01
2.856306721967313833e-01 7.143073383509985774e-01
2.866712210933967664e-01 8.258797083215405621e-01
2.877117699900621495e-01 7.464077148237322490e-01
2.887523188867275326e-01 6.713977045215884232e-01
2.897928677833929156e-01 7.117833843537475502e-01
2.908334166800582987e-01 8.082956711849043074e-01
2.918739655767236818e-01 6.161645727398123995e-01
2.929145144733890649e-01 5.267570338027098842e-01
2.939550633700544480e-01 5.438761155302884731e-01
2.949956122667198311e-01 8.030778305078740686e-01
2.960361611633852141e-01 9.257337426895517751e-01
2.970767100600505972e-01 7.301750836586364812e-01
2.981172589567159803e-01 8.238870582794817210e-01
2.991578078533813634e-01 6.188326516245652442e-01
3.001983567500468020e-01 5.959238693642738838e-01
3.012389056467121851e-01 7.788191148820580167e-01
3.022794545433775681e-01 8.785758689988227843e-01
3.033200034400429512e-01 8.009305278452814036e-01
3.043605523367083343e-01 2.871734209735414822e-01
3.054011012333737174e-01 3.853274294991635429e-01
3.064416501300391005e-01 7.118403138557489740e-01
3.074821990267044836e-01 6.209505168392404073e-01
3.085227479233698666e-01 9.336408699303717640e-01
3.095632968200352497e-01 9.599934997513841495e-01
3.106038457167006328e-01 7.603107643061193244e-01
3.116443946133660159e-01 7.604219072270694824e-01
3.126849435100313990e-01 6.394154481714195981e-01
3.137254924066967821e-01 6.254580777573615080e-01
3.147660413033621651e-01 2.781425555971033248e-01
3.158065902000275482e-01 2.691972983888639703e-01
3.168471390966929313e-01 4.175498820258454202e-01
3.178876879933583144e-01 3.521762030700834600e-01
3.189282368900236975e-01 2.373535864226781200e-01
3.199687857866890806e-01 2.306219381335985474e-01
3.210093346833544636e-01 2.359561048387277538e-01
3.220498835800198467e-01 2.471355445210754453e-01
3.230904324766852298e-01 3.786849966574266091e-01
3.241309813733506129e-01 1.637459334181308179e-01
3.251715302700159960e-01 2.212111931587656954e-02
3.262120791666813790e-01 2.403752454899397151e-01
3.272526280633467621e-01 7.765796321380022960e-01
3.282931769600121452e-01 6.346860575688388906e-01
3.293337258566775283e-01 1.085651500567692551e-01
3.303742747533429114e-01 1.723557602998369020e-01
3.314148236500082945e-01 3.188698361910340395e-01
3.324553725466736775e-01 4.188287978329476857e-01
3.334959214433390606e-01 3.644387455455877500e-01
3.345364703400044437e-01 4.466374870901326233e-01
3.355770192366698268e-01 5.560738000598135500e-01
3.366175681333352099e-01 8.053347464588220816e-01
3.376581170300005930e-01 6.505004073852234114e-01
3.386986659266659760e-01 3.042089819770268377e-01
3.397392148233313591e-01 4.048543481527389076e-01
3.407797637199967422e-01 8.975896884264464859e-01
3.418203126166621253e-01 5.981203319027059706e-01
3.428608615133275084e-01 5.771786438801029817e-01
3.439014104099928915e-01 6.067678106843850117e-01
3.449419593066582745e-01 6.903034729878854137e-01
3.459825082033236576e-01 9.047223100625920722e-01
3.470230570999890407e-01 8.294710821212163410e-01
3.480636059966544238e-01 7.669499816702547434e-01
3.491041548933198069e-01 3.846996613309379143e-01
3.501447037899851900e-01 4.152109498009686206e-01
3.511852526866505730e-01 3.672146571507504120e-01
3.522258015833159561e-01 5.348504591301406208e-01
3.532663504799813392e-01 5.611448781812953257e-01
3.543068993766467223e-01 6.950333563121304792e-01
3.553474482733121054e-01 6.054880299702212199e-01
3.563879971699774885e-01 2.679384924088665798e-01
3.574285460666428715e-01 2.918232871834938180e-01
3.584690949633082546e-01 3.828058974049959318e-01
3.595096438599736377e-01 5.838276896044796160e-01
3.605501927566390208e-01 6.752405173166806662e-01
3.615907416533044039e-01 7.475892188324735343e-01
3.626312905499697870e-01 7.833423831743573373e-01
3.636718394466351700e-01 6.207858831339372330e-01
3.647123883433005531e-01 7.112888027045478623e-01
3.657529372399659362e-01 6.587233922891613247e-01
3.667934861366313193e-01 8.028655296490647686e-01
3.678340350332967024e-01 7.496713247360418109e-01
3.688745839299620854e-01 7.907330697063166269e-01
3.699151328266274685e-01 8.158114580304705044e-01
3.709556817232928516e-01 1.058985342339759939e+00
3.719962306199582347e-01 1.233189142418780193e+00
3.730367795166236178e-01 1.191897601482882152e+00
3.740773284132890009e-01 9.028170327220159663e-01
3.751178773099543839e-01 1.038423483937307878e+00
3.761584262066197670e-01 9.900005605534971664e-01
3.771989751032851501e-01 8.061313937691494402e-01
3.782395239999505332e-01 7.145642678906405365e-01
3.792800728966159163e-01 5.679067766776952908e-01
3.803206217932812994e-01 5.487983227584862789e-01
3.813611706899466824e-01 6.086424706530628725e-01
3.824017195866120655e-01 5.303336281862200963e-01
3.834422684832774486e-01 5.369282475211996086e-01
3.844828173799428317e-01 5.641545086704589096e-01
3.855233662766082148e-01 6.256909225949129905e-01
3.865639151732735979e-01 5.565213703365650133e-01
3.876044640699389809e-01 6.254792904449750779e-01
3.886450129666043640e-01 6.474023631934109346e-01
3.896855618632697471e-01 7.465598184664017367e-01
3.907261107599351302e-01 6.174685247912599095e-01
3.917666596566005133e-01 4.241758462992670786e-01
3.928072085532658964e-01 5.185869676558034769e-01
3.938477574499312794e-01 6.627355737447757633e-01
3.948883063465966625e-01 4.389941609276135637e-01
3.959288552432620456e-01 3.606150455521976994e-01
3.969694041399274287e-01 5.756065377424413043e-01
3.980099530365928118e-01 5.212521704830699321e-01
3.990505019332581949e-01 6.193715049024923758e-01
4.000910508299235779e-01 5.104732013722532713e-01
4.011315997265889610e-01 3.223011427338811075e-01
4.021721486232543441e-01 2.779530682983128997e-01
4.032126975199197272e-01 3.900844913643091161e-01
4.042532464165851103e-01 3.824749290103035548e-01
4.052937953132504934e-01 5.967633145245905268e-01
4.063343442099158764e-01 5.074853670053585120e-01
4.073748931065812595e-01 4.563815883841719767e-01
4.084154420032466426e-01 5.580898350973733102e-01
4.094559908999120257e-01 4.663827137675582435e-01
4.104965397965774088e-01 4.272076950790619776e-01
4.115370886932427918e-01 5.107984292834153450e-01
4.125776375899081749e-01 5.361868778105893796e-01
4.136181864865735580e-01 5.662680237236941139e-01
4.146587353832389411e-01 4.512893776479458552e-01
4.156992842799043242e-01 3.887148975871212997e-01
4.167398331765697073e-01 5.571107909279326975e-01
4.177803820732350903e-01 5.559282841476189674e-01
4.188209309699004734e-01 5.228341930924251812e-01
4.198614798665658565e-01 5.709493951831170477e-01
4.209020287632312396e-01 2.984403667969814933e-01
4.219425776598966227e-01 3.058648821270573137e-01
4.229831265565620058e-01 2.641900866050512775e-01
4.240236754532273888e-01 3.264022575373921597e-01
4.250642243498927719e-01 5.120455640428964728e-01
4.261047732465581550e-01 5.829687504492682137e-01
4.271453221432235381e-01 5.182727465309291404e-01
4.281858710398889212e-01 2.899353283127332759e-01
4.292264199365543043e-01 2.631757123517175501e-01
4.302669688332196873e-01 2.730663959289501008e-01
4.313075177298850704e-01 3.692439823492073003e-01
4.323480666265504535e-01 3.099793914767232650e-01
4.333886155232158366e-01 5.623336192459298388e-01
4.344291644198812197e-01 5.206937879312327766e-01
