# q (1/Angstrom), Intensity (arb)
2.029070354705860696e-02 5.295365713653764033e+02
2.133125244372399004e-02 5.223707441556446156e+02
2.237180134038937659e-02 5.158070851895922715e+02
2.341235023705475968e-02 5.135620201324127265e+02
2.445289913372014276e-02 5.049893967581733705e+02
2.549344803038552584e-02 5.001471652480187231e+02
2.653399692705091240e-02 4.963528402701906543e+02
2.757454582371629548e-02 4.932622140514125704e+02
2.861509472038167856e-02 4.869008041276950394e+02
2.965564361704706164e-02 4.801416947743582000e+02
3.069619251371244473e-02 4.743482456403449419e+02
3.173674141037782781e-02 4.664028599048218666e+02
3.277729030704321089e-02 4.577972165964279725e+02
3.381783920370859398e-02 4.530214093234579309e+02
3.485838810037397706e-02 4.478603429412490300e+02
3.589893699703936014e-02 4.392004049714536791e+02
3.693948589370474322e-02 4.313699013328261458e+02
3.798003479037012631e-02 4.231458979078929588e+02
3.902058368703550939e-02 4.183327508114855391e+02
4.006113258370089247e-02 4.080458882343128835e+02
4.110168148036627556e-02 3.984179655948073560e+02
4.214223037703165864e-02 3.903088197495333134e+02
4.318277927369704866e-02 3.811968260031990212e+02
4.422332817036243174e-02 3.747885604609158463e+02
4.526387706702781483e-02 3.694830314992272520e+02
4.630442596369319791e-02 3.607979130158184944e+02
4.734497486035858099e-02 3.527174742371271350e+02
4.838552375702396408e-02 3.441929788216034467e+02
4.942607265368934716e-02 3.351100785264340516e+02
5.046662155035473024e-02 3.270145678892025103e+02
5.150717044702011332e-02 3.178546548588586802e+02
5.254771934368549641e-02 3.103160098301254948e+02
5.358826824035087949e-02 3.021823825306503295e+02
5.462881713701626257e-02 2.942317476211320013e+02
5.566936603368164566e-02 2.849916873226849248e+02
5.670991493034702874e-02 2.755271683635322688e+02
5.775046382701241182e-02 2.685681044578619776e+02
5.879101272367779490e-02 2.602144137048889547e+02
5.983156162034317799e-02 2.515032720542528750e+02
6.087211051700856107e-02 2.434465045549146680e+02
6.191265941367394415e-02 2.361806287773575832e+02
6.295320831033933417e-02 2.283935403689147279e+02
6.399375720700471726e-02 2.199443498375886747e+02
6.503430610367010034e-02 2.124789813877602569e+02
6.607485500033548342e-02 2.052721664480967263e+02
6.711540389700086651e-02 1.973003595856637844e+02
6.815595279366624959e-02 1.898059574737274602e+02
6.919650169033163267e-02 1.835292265894427999e+02
7.023705058699701576e-02 1.773140853894849442e+02
7.127759948366239884e-02 1.703990158061135389e+02
7.231814838032778192e-02 1.635402168902991207e+02
7.335869727699316500e-02 1.586952139637357391e+02
7.439924617365854809e-02 1.531909738092124940e+02
7.543979507032393117e-02 1.450174525830804555e+02
7.648034396698931425e-02 1.396251188820736786e+02
7.752089286365469734e-02 1.347643187195351686e+02
7.856144176032008042e-02 1.290217586210051195e+02
7.960199065698546350e-02 1.244715364891939799e+02
8.064253955365084658e-02 1.199818232071238810e+02
8.168308845031622967e-02 1.168007055971604586e+02
8.272363734698161275e-02 1.205786206269457921e+02
8.376418624364699583e-02 1.428117827080967004e+02
8.480473514031239279e-02 1.884076192019532243e+02
8.584528403697777588e-02 2.244667427511629398e+02
8.688583293364315896e-02 2.459727365891623379e+02
8.792638183030854204e-02 3.249041494782108543e+02
8.896693072697392513e-02 5.591303455424696267e+02
9.000747962363930821e-02 8.004201460206178353e+02
9.104802852030469129e-02 6.827650446685711358e+02
9.208857741697007437e-02 3.958653609532714199e+02
9.312912631363545746e-02 2.493202951548859119e+02
9.416967521030084054e-02 1.984198042321276603e+02
9.521022410696622362e-02 1.738498866996113463e+02
9.625077300363160671e-02 1.548404753545812014e+02
9.729132190029698979e-02 1.369619449063312402e+02
9.833187079696237287e-02 1.196738281429497022e+02
9.937241969362775595e-02 1.068122026168520051e+02
1.004129685902931390e-01 9.713692047156712306e+01
1.014535174869585221e-01 9.586036887929807904e+01
1.024940663836239052e-01 1.092211637248613840e+02
1.035346152802892883e-01 1.258346128416863081e+02
1.045751641769546714e-01 1.139395465286525848e+02
1.056157130736200545e-01 7.611992954440268022e+01
1.066562619702854375e-01 4.642985694260119089e+01
1.076968108669508206e-01 3.258694543860227810e+01
1.087373597636162037e-01 2.592322884218784651e+01
1.097779086602815868e-01 2.129927425644298467e+01
1.108184575569469699e-01 1.878755161510622429e+01
1.118590064536123529e-01 1.550738726044487947e+01
1.128995553502777360e-01 1.331412064202360312e+01
1.139401042469431191e-01 1.220553159533409371e+01
1.149806531436085022e-01 1.031973638656613446e+01
1.160212020402738853e-01 8.860199393966965431e+00
1.170617509369392684e-01 8.091200682276316059e+00
1.181022998336046514e-01 6.682895507118047362e+00
1.191428487302700345e-01 6.110502590445541671e+00
1.201833976269354176e-01 5.694916366903690630e+00
1.212239465236008007e-01 4.623971520593414652e+00
1.222644954202661838e-01 3.618967689884087235e+00
1.233050443169315669e-01 3.010490616584171164e+00
1.243455932135969499e-01 2.545053935165697112e+00
1.253861421102623330e-01 2.334042882209871550e+00
1.264266910069277161e-01 1.957844992974209219e+00
1.274672399035930992e-01 1.829851681100734595e+00
1.285077888002584823e-01 1.752872470832237184e+00
1.295483376969238654e-01 1.481433000103216102e+00
1.305888865935892484e-01 1.612049277500346989e+00
1.316294354902546315e-01 1.235568737469350253e+00
1.326699843869200146e-01 1.352318406001678852e+00
1.337105332835853977e-01 1.397923214643483902e+00
1.347510821802507808e-01 1.391491737448191657e+00
1.357916310769161639e-01 1.718719526325614311e+00
1.368321799735815469e-01 1.532257771717262074e+00
1.378727288702469300e-01 1.060566392688237158e+00
1.389132777669123131e-01 1.519513362669002277e+00
1.399538266635776962e-01 1.851949597732613029e+00
1.409943755602430793e-01 2.160241253105638748e+00
1.420349244569084624e-01 2.301578291653605390e+00
1.430754733535738454e-01 2.784718985723159790e+00
1.441160222502392285e-01 3.500858065764326454e+00
1.451565711469046116e-01 6.554240114666242789e+00
1.461971200435699947e-01 1.204232015035699277e+01
1.472376689402353778e-01 1.546203599693696162e+01
1.482782178369007609e-01 1.319483597026460586e+01
1.493187667335661439e-01 8.540267567334694832e+00
1.503593156302315270e-01 6.456317863826825487e+00
1.513998645268969101e-01 5.955853929258040580e+00
1.524404134235622932e-01 5.367628030880474910e+00
1.534809623202276763e-01 5.530827585157886972e+00
1.545215112168930593e-01 6.077027830112037066e+00
1.555620601135584424e-01 6.041274551317364683e+00
1.566026090102238255e-01 5.358083330347270135e+00
1.576431579068892086e-01 5.701733232987564293e+00
1.586837068035545917e-01 5.833366498678479672e+00
1.597242557002199748e-01 6.134517496246331802e+00
1.607648045968853578e-01 6.457593546528684669e+00
1.618053534935507409e-01 6.817905178533628430e+00
1.628459023902161240e-01 6.631925463997752956e+00
1.638864512868815071e-01 6.590599450229618128e+00
1.649270001835468902e-01 6.492607498478470518e+00
1.659675490802122733e-01 7.075202796304644437e+00
1.670080979768776563e-01 7.549168419752305681e+00
1.680486468735430672e-01 8.718624314601441938e+00
1.690891957702084503e-01 1.114195233598413637e+01
1.701297446668738333e-01 1.697931623071985285e+01
1.711702935635392164e-01 2.883520810814752622e+01
1.722108424602045995e-01 4.037168173805841320e+01
1.732513913568699826e-01 3.968898175202843248e+01
1.742919402535353657e-01 2.836676987414310247e+01
1.753324891502007488e-01 1.828086554376289996e+01
1.763730380468661318e-01 1.324622068974326083e+01
1.774135869435315149e-01 1.119289344489267535e+01
1.784541358401968980e-01 1.198169400397070916e+01
1.794946847368622811e-01 1.366168943153441973e+01
1.805352336335276642e-01 1.313642599371969055e+01
1.815757825301930473e-01 1.014760299244901631e+01
1.826163314268584303e-01 7.514338228475267556e+00
1.836568803235238134e-01 6.080107315930440848e+00
1.846974292201891965e-01 4.983212050214888222e+00
1.857379781168545796e-01 4.757391694991063957e+00
1.867785270135199627e-01 4.378264825896494017e+00
1.878190759101853458e-01 3.962471534957209940e+00
1.888596248068507288e-01 3.797080818178010020e+00
1.899001737035161119e-01 3.540010490505828500e+00
1.909407226001814950e-01 3.104616575662738853e+00
1.919812714968468781e-01 3.029185408318213035e+00
1.930218203935122612e-01 3.125597248625730629e+00
1.940623692901776443e-01 3.009634405475232199e+00
1.951029181868430273e-01 2.701103055821818089e+00
1.961434670835084104e-01 2.521259754226711891e+00
1.971840159801737935e-01 2.478645168891461026e+00
1.982245648768391766e-01 2.495683301011393240e+00
1.992651137735045597e-01 2.032291707470399444e+00
2.003056626701699428e-01 2.133037062803857964e+00
2.013462115668353813e-01 2.323627810237486102e+00
2.023867604635007644e-01 1.957803907849417158e+00
2.034273093601661475e-01 1.824611790921856880e+00
2.044678582568315306e-01 1.899609501983054116e+00
2.055084071534969137e-01 1.649857545273995640e+00
2.065489560501622968e-01 1.845546512238481540e+00
2.075895049468276798e-01 1.798058417777969709e+00
2.086300538434930629e-01 1.862512892170112622e+00
2.096706027401584460e-01 1.564262669000044070e+00
2.107111516368238291e-01 1.421780936968566778e+00
2.117517005334892122e-01 1.202690400272135918e+00
2.127922494301545953e-01 8.464124494658236131e-01
2.138327983268199783e-01 9.548819696237451637e-01
2.148733472234853614e-01 8.471928033436206817e-01
2.159138961201507445e-01 8.709258405967865713e-01
2.169544450168161276e-01 5.155247600375574279e-01
2.179949939134815107e-01 8.026944167892331450e-01
2.190355428101468938e-01 6.248961270965018855e-01
2.200760917068122768e-01 5.606523558011211605e-01
2.211166406034776599e-01 5.583379006034725478e-01
2.221571895001430430e-01 6.600494601572215458e-01
2.231977383968084261e-01 3.569203624072478931e-01
2.242382872934738092e-01 1.524032746359971213e-01
2.252788361901391923e-01 2.102515328785514725e-01
2.263193850868045753e-01 2.968334557963672182e-01
2.273599339834699584e-01 2.337646143865796944e-01
2.284004828801353415e-01 3.421508535218080738e-01
2.294410317768007246e-01 4.094372528097594000e-01
2.304815806734661077e-01 7.486226388924279718e-01
2.315221295701314908e-01 7.312150924245948147e-01
2.325626784667968738e-01 9.378632847966379416e-01
2.336032273634622569e-01 6.538408486094304806e-01
2.346437762601276400e-01 6.337827422408750522e-01
2.356843251567930231e-01 6.942179330122897341e-01
2.367248740534584062e-01 7.971509283967179726e-01
2.377654229501237892e-01 7.443781922341621282e-01
2.388059718467891723e-01 6.273533851185177923e-01
2.398465207434545554e-01 7.539885979148941431e-01
2.408870696401199385e-01 1.069224168815090081e+00
2.419276185367853216e-01 9.835428428819490421e-01
2.429681674334507047e-01 6.760390545704630938e-01
2.440087163301160877e-01 6.203774491132030278e-01
2.450492652267814708e-01 9.092111934984892230e-01
2.460898141234468539e-01 1.037807792835629073e+00
2.471303630201122370e-01 9.631017850783791800e-01
2.481709119167776201e-01 7.575454249565360954e-01
2.492114608134430032e-01 4.924127286104571510e-01
2.502520097101083585e-01 8.010102367450500083e-01
2.512925586067737416e-01 1.125483562487048061e+00
2.523331075034391247e-01 1.268436029563751788e+00
2.533736564001045077e-01 1.775018389774793093e+00
2.544142052967698908e-01 2.148762039503612442e+00
2.554547541934352739e-01 2.157059361336269632e+00
2.564953030901006570e-01 1.832124469224929442e+00
2.575358519867660401e-01 1.696547015622872578e+00
2.585764008834314231e-01 1.799983383001883652e+00
2.596169497800968062e-01 1.386402659851373897e+00
2.606574986767621893e-01 1.435649940447230932e+00
2.616980475734275724e-01 1.507936642655078430e+00
2.627385964700929555e-01 1.317458013630034230e+00
2.637791453667583386e-01 1.304635453423216518e+00
2.648196942634237216e-01 1.164463247881450059e+00
2.658602431600891047e-01 1.303307459921171585e+00
2.669007920567544878e-01 1.827118347800389841e+00
2.679413409534198709e-01 2.093519774962906865e+00
2.689818898500852540e-01 2.493094506142099931e+00
2.700224387467506371e-01 2.638973207759839568e+00
2.710629876434160201e-01 2.510810908358504179e+00
2.721035365400814032e-01 2.085341721088184386e+00
2.731440854367467863e-01 1.783814298527147457e+00
2.741846343334121694e-01 1.491035835863186776e+00
2.752251832300775525e-01 1.465547779305431675e+00
2.762657321267429356e-01 1.568058811339845704e+00
2.773062810234083186e-01 1.064787523711061112e+00
2.783468299200737017e-01 6.752453347354858693e-01
2.793873788167390848e-01 1.001563816691827924e+00
2.804279277134044679e-01 9.008978388715966901e-01
2.814684766100698510e-01 8.542081382894863850e-01
2.825090255067352341e-01 9.204880243278203977e-01
2.835495744034006171e-01 1.202996149299128348e+00
2.845901233000660002e-01 1.144033674029639513e+00
2.856306721967313833e-01 8.421696248320955647e-01
2.866712210933967664e-01 5.408328158013802067e-01
2.877117699900621495e-01 8.629712600010570611e-01
2.887523188867275326e-01 9.798635612380550697e-01
2.897928677833929156e-01 8.802134765037372688e-01
2.908334166800582987e-01 8.107437354932152118e-01
2.918739655767236818e-01 9.624734804438297431e-01
2.929145144733890649e-01 1.057612881153158213e+00
2.939550633700544480e-01 8.188039029036389138e-01
2.949956122667198311e-01 8.143670155280773315e-01
2.960361611633852141e-01 6.618903853017101824e-01
2.970767100600505972e-01 7.872316538851649170e-01
2.981172589567159803e-01 3.494454537641971115e-01
2.991578078533813634e-01 4.712226395388405820e-01
3.001983567500468020e-01 4.207685961344509451e-01
3.012389056467121851e-01 4.804635723880394949e-01
3.022794545433775681e-01 9.141226696889361847e-01
3.033200034400429512e-01 7.956889005475069609e-01
3.043605523367083343e-01 5.006018814753758761e-01
3.054011012333737174e-01 6.017596965946125920e-01
3.064416501300391005e-01 7.595186009021226425e-01
3.074821990267044836e-01 8.007043542470704267e-01
3.085227479233698666e-01 8.319515893077422675e-01
3.095632968200352497e-01 9.736818515289371589e-01
3.106038457167006328e-01 7.534083335140024928e-01
3.116443946133660159e-01 6.955699101222378999e-01
3.126849435100313990e-01 6.614877420379379203e-01
3.137254924066967821e-01 4.316517415464780072e-01
3.147660413033621651e-01 2.563736767982938147e-01
3.158065902000275482e-01 3.215932845864841738e-01
3.168471390966929313e-01 6.029512084459689447e-01
3.178876879933583144e-01 4.982294124994339768e-01
3.189282368900236975e-01 2.756544384457519925e-01
3.199687857866890806e-01 1.507006805893169599e-01
3.210093346833544636e-01 2.420497599280722056e-01
3.220498835800198467e-01 2.710134873066891714e-01
3.230904324766852298e-01 3.432789554184765279e-01
3.241309813733506129e-01 3.620736349121145281e-01
3.251715302700159960e-01 5.063997451565889207e-01
3.262120791666813790e-01 2.723343575793357729e-01
3.272526280633467621e-01 3.395872969406674713e-01
3.282931769600121452e-01 4.133716151936646099e-01
3.293337258566775283e-01 2.969260777644855409e-01
3.303742747533429114e-01 3.622116592307058625e-01
3.314148236500082945e-01 3.655805930687314742e-01
3.324553725466736775e-01 2.643557363079196421e-01
3.334959214433390606e-01 3.857727765693859112e-01
3.345364703400044437e-01 4.449445779918477228e-01
3.355770192366698268e-01 5.430586880303920339e-01
3.366175681333352099e-01 5.696906619850459208e-01
3.376581170300005930e-01 4.834336195267816549e-01
3.386986659266659760e-01 6.771037057560960193e-01
3.397392148233313591e-01 7.386639868681896814e-01
3.407797637199967422e-01 6.995796577668009775e-01
3.418203126166621253e-01 5.227040351626577319e-01
3.428608615133275084e-01 6.137169088507263837e-01
3.439014104099928915e-01 5.948359303740780035e-01
3.449419593066582745e-01 8.025559504343640072e-01
3.459825082033236576e-01 6.090706303615291972e-01
3.470230570999890407e-01 6.852664024154080380e-01
3.480636059966544238e-01 7.696761752755492125e-01
3.491041548933198069e-01 6.377933700579632159e-01
3.501447037899851900e-01 5.317258709224148561e-01
3.511852526866505730e-01 4.310839538783781677e-01
3.522258015833159561e-01 6.839967367921531149e-01
3.532663504799813392e-01 7.915422974780526033e-01
3.543068993766467223e-01 7.184506682545865885e-01
3.553474482733121054e-01 7.426654331524424890e-01
3.563879971699774885e-01 5.969563531142227930e-01
3.574285460666428715e-01 6.525800322813033461e-01
3.584690949633082546e-01 6.455816563493215199e-01
3.595096438599736377e-01 6.429516386893148194e-01
3.605501927566390208e-01 4.768832622507552799e-01
3.615907416533044039e-01 6.145635468244066146e-01
3.626312905499697870e-01 4.081498233827893785e-01
3.636718394466351700e-01 6.406640213488117297e-01
3.647123883433005531e-01 8.399072782581633589e-01
3.657529372399659362e-01 6.456703777305463632e-01
3.667934861366313193e-01 5.616418927891011492e-01
3.678340350332967024e-01 6.902438809304243250e-01
3.688745839299620854e-01 7.743319552661986904e-01
3.699151328266274685e-01 8.527529996885050423e-01
3.709556817232928516e-01 9.666196144230525533e-01
3.719962306199582347e-01 1.207795916891893029e+00
3.730367795166236178e-01 1.186449860934658318e+00
3.740773284132890009e-01 9.169133779101699133e-01
3.751178773099543839e-01 7.822099207442896329e-01
3.761584262066197670e-01 7.876718005988223581e-01
3.771989751032851501e-01 5.815643334896591909e-01
3.782395239999505332e-01 6.837076028780444403e-01
3.792800728966159163e-01 6.567213227101369455e-01
3.803206217932812994e-01 5.751156162897927970e-01
3.813611706899466824e-01 6.789994985079772505e-01
3.824017195866120655e-01 7.428371772589557054e-01
3.834422684832774486e-01 6.564475688558708555e-01
3.844828173799428317e-01 4.867344935722037746e-01
3.855233662766082148e-01 3.478411871701716507e-01
3.865639151732735979e-01 5.591349322767840135e-01
3.876044640699389809e-01 5.460345778276298745e-01
3.886450129666043640e-01 5.330327326059922655e-01
3.896855618632697471e-01 6.378914006234452927e-01
3.907261107599351302e-01 6.112364385229440700e-01
3.917666596566005133e-01 6.580972951635146728e-01
3.928072085532658964e-01 7.524808430711935614e-01
3.938477574499312794e-01 5.920093664483481177e-01
3.948883063465966625e-01 3.606563692336308691e-01
3.959288552432620456e-01 4.422267903599355066e-01
3.969694041399274287e-01 4.330379953750700395e-01
3.980099530365928118e-01 3.485957846620948430e-01
3.990505019332581949e-01 3.072605321290353686e-01
4.000910508299235779e-01 3.971830726747462847e-01
4.011315997265889610e-01 4.332504821640341675e-01
4.021721486232543441e-01 7.715409373517765346e-01
4.032126975199197272e-01 4.942961020493790159e-01
4.042532464165851103e-01 5.615855774397502387e-01
4.052937953132504934e-01 7.542845289554769295e-01
4.063343442099158764e-01 6.647210591159691262e-01
4.073748931065812595e-01 4.450323609501012356e-01
4.084154420032466426e-01 4.534069575353782966e-01
4.094559908999120257e-01 3.821930860031166333e-01
4.104965397965774088e-01 6.142442290448038023e-01
4.115370886932427918e-01 7.102764163426265043e-01
4.125776375899081749e-01 4.238053055350441412e-01
4.136181864865735580e-01 2.674642318664126606e-01
4.146587353832389411e-01 2.013489844430047526e-01
4.156992842799043242e-01 3.403816168371278650e-01
4.167398331765697073e-01 3.525462346598793317e-01
4.177803820732350903e-01 4.233686238516582989e-01
4.188209309699004734e-01 4.262169395095867230e-01
4.198614798665658565e-01 3.999682835399802627e-01
4.209020287632312396e-01 3.917483400457619780e-01
4.219425776598966227e-01 4.817087252637257677e-01
4.229831265565620058e-01 5.480888539632182699e-01
4.240236754532273888e-01 4.671608861850522487e-01
4.250642243498927719e-01 4.565016380773698756e-01
4.261047732465581550e-01 5.725707739736414226e-01
4.271453221432235381e-01 5.101724112212124851e-01
4.281858710398889212e-01 4.550211830290926684e-01
4.292264199365543043e-01 3.447423856417444199e-01
4.302669688332196873e-01 4.177868356398981575e-01
4.313075177298850704e-01 4.547083694708682344e-01
4.323480666265504535e-01 4.915774157910774989e-01
4.333886155232158366e-01 5.157888094617355534e-01
4.344291644198812197e-01 6.603545294561392609e-01
