# q (1/Angstrom), Intensity (arb)
2.029070354705860696e-02 2.739281078849449500e+02
2.133125244372399004e-02 2.661464575259365120e+02
2.237180134038937659e-02 2.626150819221676329e+02
2.341235023705475968e-02 2.602411226049889592e+02
2.445289913372014276e-02 2.584722616471926813e+02
2.549344803038552584e-02 2.541219937476760151e+02
2.653399692705091240e-02 2.488180237799687404e+02
2.757454582371629548e-02 2.443994633434709272e+02
2.861509472038167856e-02 2.415043836143753992e+02
2.965564361704706164e-02 2.399026568880104833e+02
3.069619251371244473e-02 2.374179436163342984e+02
3.173674141037782781e-02 2.335843728349973105e+02
3.277729030704321089e-02 2.311963282733997289e+02
3.381783920370859398e-02 2.295238041547516445e+02
3.485838810037397706e-02 2.252828551823951670e+02
3.589893699703936014e-02 2.215496049623243380e+02
3.693948589370474322e-02 2.169273184979820996e+02
3.798003479037012631e-02 2.127205341257246687e+02
3.902058368703550939e-02 2.096640956398446463e+02
4.006113258370089247e-02 2.060914888175234410e+02
4.110168148036627556e-02 2.033539791694269070e+02
4.214223037703165864e-02 1.976103662449423268e+02
4.318277927369704866e-02 1.950366650630641345e+02
4.422332817036243174e-02 1.909701783779904929e+02
4.526387706702781483e-02 1.869225146057183622e+02
4.630442596369319791e-02 1.842223037572805993e+02
4.734497486035858099e-02 1.791919367883396887e+02
4.838552375702396408e-02 1.730620711957017193e+02
4.942607265368934716e-02 1.694838944717298830e+02
5.046662155035473024e-02 1.664422173364472997e+02
5.150717044702011332e-02 1.609159283315085247e+02
5.254771934368549641e-02 1.579543873072247209e+02
5.358826824035087949e-02 1.545147116432298446e+02
5.462881713701626257e-02 1.493423483892959780e+02
5.566936603368164566e-02 1.457012165230818255e+02
5.670991493034702874e-02 1.426902615387347169e+02
5.775046382701241182e-02 1.385762046822362663e+02
5.879101272367779490e-02 1.339477225490566923e+02
5.983156162034317799e-02 1.291042599170463347e+02
6.087211051700856107e-02 1.259377886891248295e+02
6.191265941367394415e-02 1.233234645507165936e+02
6.295320831033933417e-02 1.194410131401654667e+02
6.399375720700471726e-02 1.149081328410437663e+02
6.503430610367010034e-02 1.123198512113208949e+02
6.607485500033548342e-02 1.084298189223614770e+02
6.711540389700086651e-02 1.048808922682321452e+02
6.815595279366624959e-02 1.018837478341060034e+02
6.919650169033163267e-02 9.730921455043542778e+01
7.023705058699701576e-02 9.269686389379128855e+01
7.127759948366239884e-02 9.057196863616526628e+01
7.231814838032778192e-02 8.723381318447223975e+01
7.335869727699316500e-02 8.429723273332584199e+01
7.439924617365854809e-02 8.183652844569735407e+01
7.543979507032393117e-02 7.901365860043108569e+01
7.648034396698931425e-02 7.644296782474921770e+01
7.752089286365469734e-02 7.445879773020641323e+01
7.856144176032008042e-02 7.301094927281371838e+01
7.960199065698546350e-02 7.205494098752546961e+01
8.064253955365084658e-02 7.078173856405298636e+01
8.168308845031622967e-02 7.137544902384999546e+01
8.272363734698161275e-02 7.768140278138972121e+01
8.376418624364699583e-02 1.040620009930225081e+02
8.480473514031239279e-02 1.626167358827668181e+02
8.584528403697777588e-02 2.168804933273544293e+02
8.688583293364315896e-02 2.488569908035053118e+02
8.792638183030854204e-02 3.323919332907497619e+02
8.896693072697392513e-02 5.848165871559031075e+02
9.000747962363930821e-02 9.142666161506450635e+02
9.104802852030469129e-02 8.881377834726056335e+02
9.208857741697007437e-02 5.565630550102005145e+02
9.312912631363545746e-02 3.254597986968699956e+02
9.416967521030084054e-02 2.359590998896235021e+02
9.521022410696622362e-02 1.968468483653022645e+02
9.625077300363160671e-02 1.714909048083145819e+02
9.729132190029698979e-02 1.503919785062349206e+02
9.833187079696237287e-02 1.310567863078343862e+02
9.937241969362775595e-02 1.150727278088038190e+02
1.004129685902931390e-01 1.045714630784874259e+02
1.014535174869585221e-01 1.011773186801909077e+02
1.024940663836239052e-01 1.127931430419544938e+02
1.035346152802892883e-01 1.344929761113108384e+02
1.045751641769546714e-01 1.329425809441451349e+02
1.056157130736200545e-01 9.508433833760447840e+01
1.066562619702854375e-01 5.473151327197529525e+01
1.076968108669508206e-01 3.371728082762305689e+01
1.087373597636162037e-01 2.381990558698798566e+01
1.097779086602815868e-01 1.833856859171483933e+01
1.108184575569469699e-01 1.525986414490204623e+01
1.118590064536123529e-01 1.267875665523670392e+01
1.128995553502777360e-01 1.045615546263960738e+01
1.139401042469431191e-01 9.252504308360300911e+00
1.149806531436085022e-01 8.515884534127671657e+00
1.160212020402738853e-01 7.772033347307086615e+00
1.170617509369392684e-01 6.659003241267214435e+00
1.181022998336046514e-01 5.490921297141788671e+00
1.191428487302700345e-01 4.785826048495295026e+00
1.201833976269354176e-01 4.091197769502180392e+00
1.212239465236008007e-01 3.339894870451537656e+00
1.222644954202661838e-01 3.105337361232365367e+00
1.233050443169315669e-01 2.791687186626162998e+00
1.243455932135969499e-01 2.714798488050355729e+00
1.253861421102623330e-01 2.497767593451584389e+00
1.264266910069277161e-01 2.470345760233861654e+00
1.274672399035930992e-01 2.320510873341881108e+00
1.285077888002584823e-01 1.921492874252031413e+00
1.295483376969238654e-01 1.892638191793139413e+00
1.305888865935892484e-01 1.465072252872431591e+00
1.316294354902546315e-01 6.188106453838173593e-01
1.326699843869200146e-01 9.386891525198279851e-01
1.337105332835853977e-01 1.288000969943475127e+00
1.347510821802507808e-01 1.197578699667573687e+00
1.357916310769161639e-01 1.372786336908923488e+00
1.368321799735815469e-01 1.211734310762892619e+00
1.378727288702469300e-01 1.167485354017777865e+00
1.389132777669123131e-01 1.386087102932116011e+00
1.399538266635776962e-01 1.547843994153559777e+00
1.409943755602430793e-01 1.787281507073082309e+00
1.420349244569084624e-01 1.931436188688358868e+00
1.430754733535738454e-01 2.148595293578374310e+00
1.441160222502392285e-01 3.249985035390899668e+00
1.451565711469046116e-01 5.836050305536275573e+00
1.461971200435699947e-01 1.174389970797311378e+01
1.472376689402353778e-01 1.711627219486576479e+01
1.482782178369007609e-01 1.617447781530475481e+01
1.493187667335661439e-01 1.074863666529023476e+01
1.503593156302315270e-01 6.824495283104376142e+00
1.513998645268969101e-01 5.012096723437700518e+00
1.524404134235622932e-01 4.710797483132267871e+00
1.534809623202276763e-01 4.528822860017854168e+00
1.545215112168930593e-01 4.518692114715477715e+00
1.555620601135584424e-01 4.795575443115389191e+00
1.566026090102238255e-01 4.679377129828694137e+00
1.576431579068892086e-01 5.167202800071649449e+00
1.586837068035545917e-01 5.417165632784737284e+00
1.597242557002199748e-01 5.170733185056484160e+00
1.607648045968853578e-01 5.342759095312075601e+00
1.618053534935507409e-01 5.459923789090318280e+00
1.628459023902161240e-01 5.611876982601827990e+00
1.638864512868815071e-01 5.621717697250907975e+00
1.649270001835468902e-01 5.622332411330241086e+00
1.659675490802122733e-01 5.742814034598097805e+00
1.670080979768776563e-01 6.605192175437068158e+00
1.680486468735430672e-01 7.268818637813183159e+00
1.690891957702084503e-01 9.859172269062177918e+00
1.701297446668738333e-01 1.585558845397977024e+01
1.711702935635392164e-01 2.818303603821823344e+01
1.722108424602045995e-01 4.360087948017670811e+01
1.732513913568699826e-01 4.775093128615856841e+01
1.742919402535353657e-01 3.817954099791749911e+01
1.753324891502007488e-01 2.566264763119883696e+01
1.763730380468661318e-01 1.793233464351713025e+01
1.774135869435315149e-01 1.410796443511971177e+01
1.784541358401968980e-01 1.287344792226947732e+01
1.794946847368622811e-01 1.388358914458382998e+01
1.805352336335276642e-01 1.428054811099583787e+01
1.815757825301930473e-01 1.254464060634068190e+01
1.826163314268584303e-01 9.352824173733480961e+00
1.836568803235238134e-01 6.604601499477041671e+00
1.846974292201891965e-01 4.821710637981805547e+00
1.857379781168545796e-01 3.993882750290637773e+00
1.867785270135199627e-01 3.515842092912858874e+00
1.878190759101853458e-01 3.143749793970570749e+00
1.888596248068507288e-01 2.783496316856091113e+00
1.899001737035161119e-01 2.976538731288091100e+00
1.909407226001814950e-01 2.805264612058493867e+00
1.919812714968468781e-01 2.707215502858975498e+00
1.930218203935122612e-01 2.874280004079082573e+00
1.940623692901776443e-01 2.443861668453045866e+00
1.951029181868430273e-01 2.338466257808647697e+00
1.961434670835084104e-01 2.297412129027961214e+00
1.971840159801737935e-01 2.249001046271089876e+00
1.982245648768391766e-01 1.977133926234401429e+00
1.992651137735045597e-01 1.970005831375992500e+00
2.003056626701699428e-01 2.251692207674306445e+00
2.013462115668353813e-01 2.263483551580300457e+00
2.023867604635007644e-01 1.474672858689313415e+00
2.034273093601661475e-01 1.416722335240372388e+00
2.044678582568315306e-01 1.374980258271904177e+00
2.055084071534969137e-01 1.282252289637067832e+00
2.065489560501622968e-01 1.608481002428458595e+00
2.075895049468276798e-01 1.675484622201061313e+00
2.086300538434930629e-01 1.697306546721925713e+00
2.096706027401584460e-01 1.342027433264405545e+00
2.107111516368238291e-01 1.493283701725037105e+00
2.117517005334892122e-01 1.366954253497546290e+00
2.127922494301545953e-01 9.624607862142511294e-01
2.138327983268199783e-01 9.585178192659995489e-01
2.148733472234853614e-01 1.210305985585552691e+00
2.159138961201507445e-01 8.991086739942097950e-01
2.169544450168161276e-01 4.466968281359449122e-01
2.179949939134815107e-01 4.870291363723637801e-01
2.190355428101468938e-01 7.698781286426026327e-01
2.200760917068122768e-01 6.534241362324806346e-01
2.211166406034776599e-01 6.713481051996410542e-01
2.221571895001430430e-01 1.001291274291013167e+00
2.231977383968084261e-01 8.405791295338715940e-01
2.242382872934738092e-01 8.284469848960753779e-01
2.252788361901391923e-01 5.732195203340637590e-01
2.263193850868045753e-01 0.000000000000000000e+00
2.273599339834699584e-01 1.263641878586447831e-01
2.284004828801353415e-01 3.082281329526672664e-01
2.294410317768007246e-01 3.656130184730059796e-01
2.304815806734661077e-01 7.375374824655409611e-01
2.315221295701314908e-01 9.998640400294931396e-01
2.325626784667968738e-01 9.147699413672469859e-01
2.336032273634622569e-01 1.011190051426741121e+00
2.346437762601276400e-01 7.089656337710046330e-01
2.356843251567930231e-01 3.439092812703208324e-01
2.367248740534584062e-01 4.454876496163144850e-01
2.377654229501237892e-01 4.971156365482762851e-01
2.388059718467891723e-01 6.748331473849269457e-01
2.398465207434545554e-01 6.408867918211988979e-01
2.408870696401199385e-01 6.814982668361899698e-01
2.419276185367853216e-01 6.933857389864783727e-01
2.429681674334507047e-01 6.488493378092528019e-01
2.440087163301160877e-01 7.061503636351105229e-01
2.450492652267814708e-01 8.514664335550961027e-01
2.460898141234468539e-01 7.114459993189150566e-01
2.471303630201122370e-01 8.845196638847845350e-01
2.481709119167776201e-01 8.787886898218211229e-01
2.492114608134430032e-01 1.146452041610206862e+00
2.502520097101083585e-01 1.284673103893180013e+00
2.512925586067737416e-01 1.231863825488211717e+00
2.523331075034391247e-01 1.667067417866089585e+00
2.533736564001045077e-01 1.842499978046884479e+00
2.544142052967698908e-01 2.325989236045010955e+00
2.554547541934352739e-01 2.499275111288675078e+00
2.564953030901006570e-01 2.313398575247777700e+00
2.575358519867660401e-01 2.070888427761655493e+00
2.585764008834314231e-01 1.849725597266203891e+00
2.596169497800968062e-01 1.724413307705578546e+00
2.606574986767621893e-01 1.453560470432190499e+00
2.616980475734275724e-01 1.533707100286427760e+00
2.627385964700929555e-01 1.493421466391112062e+00
2.637791453667583386e-01 1.787549829593313433e+00
2.648196942634237216e-01 1.608112191191924722e+00
2.658602431600891047e-01 1.710226564001231964e+00
2.669007920567544878e-01 1.848241773547083966e+00
2.679413409534198709e-01 2.195562663812733462e+00
2.689818898500852540e-01 2.720197116300600015e+00
2.700224387467506371e-01 3.281216684256218485e+00
2.710629876434160201e-01 3.251043543614407838e+00
2.721035365400814032e-01 2.931428085776637715e+00
2.731440854367467863e-01 2.367588553102152105e+00
2.741846343334121694e-01 1.743132218820399260e+00
2.752251832300775525e-01 1.428533815046918676e+00
2.762657321267429356e-01 1.224397216584833359e+00
2.773062810234083186e-01 1.104178643848630514e+00
2.783468299200737017e-01 9.590412223128126357e-01
2.793873788167390848e-01 9.361863085783106442e-01
2.804279277134044679e-01 1.000793978677300800e+00
2.814684766100698510e-01 1.115705245141157320e+00
2.825090255067352341e-01 1.054037907624373105e+00
2.835495744034006171e-01 1.102463434493948569e+00
2.845901233000660002e-01 1.155496340919530240e+00
2.856306721967313833e-01 1.133361066343315571e+00
2.866712210933967664e-01 1.168173702719020213e+00
2.877117699900621495e-01 9.947118027324428624e-01
2.887523188867275326e-01 8.443165083075996336e-01
2.897928677833929156e-01 8.482207416541420741e-01
2.908334166800582987e-01 8.497403973863981719e-01
2.918739655767236818e-01 6.939224765920783966e-01
2.929145144733890649e-01 6.280135790715135613e-01
2.939550633700544480e-01 7.772943514874164350e-01
2.949956122667198311e-01 1.164348440675041729e+00
2.960361611633852141e-01 1.079917112957314629e+00
2.970767100600505972e-01 1.036904262115751152e+00
2.981172589567159803e-01 9.096600226773077225e-01
2.991578078533813634e-01 8.167093617547180884e-01
3.001983567500468020e-01 8.466085506909344360e-01
3.012389056467121851e-01 9.733908072773331810e-01
3.022794545433775681e-01 1.097313808210486741e+00
3.033200034400429512e-01 9.989883971074604574e-01
3.043605523367083343e-01 7.414065833774472480e-01
3.054011012333737174e-01 6.338019779123484909e-01
3.064416501300391005e-01 6.243575411365078764e-01
3.074821990267044836e-01 7.311303692632300510e-01
3.085227479233698666e-01 1.146808640365307497e+00
3.095632968200352497e-01 1.123051965680048170e+00
3.106038457167006328e-01 9.788974847288010039e-01
3.116443946133660159e-01 8.456489716102133514e-01
3.126849435100313990e-01 4.760977614332126961e-01
3.137254924066967821e-01 5.082644896549197711e-01
3.147660413033621651e-01 6.792739677693475642e-01
3.158065902000275482e-01 6.420464311630276200e-01
3.168471390966929313e-01 6.687322519944096655e-01
3.178876879933583144e-01 5.012286289642773340e-01
3.189282368900236975e-01 3.293850037233880812e-01
3.199687857866890806e-01 5.777806791076862680e-01
3.210093346833544636e-01 5.305281493939837389e-01
3.220498835800198467e-01 4.447033519766740994e-01
3.230904324766852298e-01 6.507869949268467735e-01
3.241309813733506129e-01 7.598560990235689871e-01
3.251715302700159960e-01 5.872233102294899254e-01
3.262120791666813790e-01 4.658683760923985062e-01
3.272526280633467621e-01 7.657000246961302992e-01
3.282931769600121452e-01 7.018643924414220692e-01
3.293337258566775283e-01 3.979890012303108904e-01
3.303742747533429114e-01 6.205296607775423468e-01
3.314148236500082945e-01 7.901162650295603385e-01
3.324553725466736775e-01 7.770554753184448771e-01
3.334959214433390606e-01 6.015150258132813121e-01
3.345364703400044437e-01 7.107384078535936567e-01
3.355770192366698268e-01 6.347830760152355367e-01
3.366175681333352099e-01 7.683718176564973135e-01
3.376581170300005930e-01 8.131408807762454671e-01
3.386986659266659760e-01 5.848017354542101032e-01
3.397392148233313591e-01 8.629648689540339035e-01
3.407797637199967422e-01 1.244470767781514553e+00
3.418203126166621253e-01 9.294076238926010092e-01
3.428608615133275084e-01 1.044713735030313728e+00
3.439014104099928915e-01 1.017107119462352216e+00
3.449419593066582745e-01 9.015354177245491485e-01
3.459825082033236576e-01 9.243939497194055832e-01
3.470230570999890407e-01 9.725210271453796906e-01
3.480636059966544238e-01 9.553233890447927479e-01
3.491041548933198069e-01 6.464267095484395043e-01
3.501447037899851900e-01 7.243842191582210432e-01
3.511852526866505730e-01 5.950448449551402064e-01
3.522258015833159561e-01 8.107081287205666342e-01
3.532663504799813392e-01 8.154919169003527202e-01
3.543068993766467223e-01 7.762837514754501456e-01
3.553474482733121054e-01 8.405383131108798977e-01
3.563879971699774885e-01 6.936061765130254742e-01
3.574285460666428715e-01 7.610751362233294515e-01
3.584690949633082546e-01 6.404195791840443519e-01
3.595096438599736377e-01 7.658754014367694651e-01
3.605501927566390208e-01 7.519538554101004024e-01
3.615907416533044039e-01 7.474589001387492715e-01
3.626312905499697870e-01 8.091869971768801406e-01
3.636718394466351700e-01 7.678028499398301676e-01
3.647123883433005531e-01 6.805153565796828730e-01
3.657529372399659362e-01 5.817895286113632380e-01
3.667934861366313193e-01 7.104945550128825005e-01
3.678340350332967024e-01 8.317904163857647859e-01
3.688745839299620854e-01 9.139728366497799072e-01
3.699151328266274685e-01 8.743408762576656557e-01
3.709556817232928516e-01 1.117404934239868197e+00
3.719962306199582347e-01 1.371086775910423938e+00
3.730367795166236178e-01 1.263674997317217219e+00
3.740773284132890009e-01 1.074352346818830739e+00
3.751178773099543839e-01 1.182449536733226836e+00
3.761584262066197670e-01 1.292282227335512346e+00
3.771989751032851501e-01 1.109104675973558329e+00
3.782395239999505332e-01 9.286367199179537124e-01
3.792800728966159163e-01 7.767512948510173487e-01
3.803206217932812994e-01 8.042662655836849694e-01
3.813611706899466824e-01 9.092574321603130727e-01
3.824017195866120655e-01 9.956076645370366407e-01
3.834422684832774486e-01 9.323434331571789357e-01
3.844828173799428317e-01 7.681682953794144453e-01
3.855233662766082148e-01 7.553806616802738461e-01
3.865639151732735979e-01 7.436487175702595209e-01
3.876044640699389809e-01 8.722762073453154130e-01
3.886450129666043640e-01 9.187132985476047509e-01
3.896855618632697471e-01 1.030688091545851393e+00
3.907261107599351302e-01 8.275072613503446917e-01
3.917666596566005133e-01 7.589415504307446270e-01
3.928072085532658964e-01 7.938386866631113037e-01
3.938477574499312794e-01 9.142271473384617764e-01
3.948883063465966625e-01 8.398952202490974628e-01
3.959288552432620456e-01 8.787188847960081262e-01
3.969694041399274287e-01 8.827061663826505367e-01
3.980099530365928118e-01 7.750782158893194662e-01
3.990505019332581949e-01 8.098335096654274423e-01
4.000910508299235779e-01 7.707709780281746248e-01
4.011315997265889610e-01 7.007162094127075136e-01
4.021721486232543441e-01 5.418326165067064437e-01
4.032126975199197272e-01 5.420690331962738640e-01
4.042532464165851103e-01 5.512392875493681288e-01
4.052937953132504934e-01 8.793812767127633379e-01
4.063343442099158764e-01 6.674032456948175707e-01
4.073748931065812595e-01 5.370356052696401150e-01
4.084154420032466426e-01 5.002645764406850049e-01
4.094559908999120257e-01 4.454732978289648315e-01
4.104965397965774088e-01 5.032741937613955940e-01
4.115370886932427918e-01 6.424005063253162007e-01
4.125776375899081749e-01 7.068662197682336057e-01
4.136181864865735580e-01 7.546355805380429160e-01
4.146587353832389411e-01 7.954114997241816809e-01
4.156992842799043242e-01 4.811730680742947186e-01
4.167398331765697073e-01 6.788361110865572812e-01
4.177803820732350903e-01 7.806936050003407956e-01
4.188209309699004734e-01 7.784576284045066075e-01
4.198614798665658565e-01 7.646903855348732293e-01
4.209020287632312396e-01 5.835559281318758451e-01
4.219425776598966227e-01 3.991664192723050064e-01
4.229831265565620058e-01 5.304244204287549280e-01
4.240236754532273888e-01 7.062817219336920971e-01
4.250642243498927719e-01 6.492801118492650403e-01
4.261047732465581550e-01 7.644373411902236626e-01
4.271453221432235381e-01 6.609393312570084333e-01
4.281858710398889212e-01 6.357939198685187421e-01
4.292264199365543043e-01 5.005988167202097827e-01
4.302669688332196873e-01 4.581125147047799828e-01
4.313075177298850704e-01 5.153261178020791533e-01
4.323480666265504535e-01 5.698610221049271729e-01
4.333886155232158366e-01 8.392080166835249599e-01
4.344291644198812197e-01 8.583642025120852281e-01
