# q (1/Angstrom), Intensity (arb)
2.029070354705860696e-02 1.458618957257828242e+03
2.133125244372399004e-02 1.455514898382286901e+03
2.237180134038937659e-02 1.448822970130340536e+03
2.341235023705475968e-02 1.438359672727349107e+03
2.445289913372014276e-02 1.428259669175093222e+03
2.549344803038552584e-02 1.416206739798152057e+03
2.653399692705091240e-02 1.394173730564352127e+03
2.757454582371629548e-02 1.376118839603490187e+03
2.861509472038167856e-02 1.364872973821311689e+03
2.965564361704706164e-02 1.346776990814446435e+03
3.069619251371244473e-02 1.328899330948463330e+03
3.173674141037782781e-02 1.312452113075182297e+03
3.277729030704321089e-02 1.291482683338565948e+03
3.381783920370859398e-02 1.270687116713037540e+03
3.485838810037397706e-02 1.250699931549665052e+03
3.589893699703936014e-02 1.231212300791716416e+03
3.693948589370474322e-02 1.207004984016101162e+03
3.798003479037012631e-02 1.187765692167328098e+03
3.902058368703550939e-02 1.164291142407931829e+03
4.006113258370089247e-02 1.137666374010579830e+03
4.110168148036627556e-02 1.113977765096822168e+03
4.214223037703165864e-02 1.089760137729294911e+03
4.318277927369704866e-02 1.066857592094722349e+03
4.422332817036243174e-02 1.043821619945903649e+03
4.526387706702781483e-02 1.021025758598347579e+03
4.630442596369319791e-02 9.975894622557062803e+02
4.734497486035858099e-02 9.748069381228729071e+02
4.838552375702396408e-02 9.485729779010332550e+02
4.942607265368934716e-02 9.249453990051182473e+02
5.046662155035473024e-02 9.017820101245855540e+02
5.150717044702011332e-02 8.772115208223897298e+02
5.254771934368549641e-02 8.535715297597687368e+02
5.358826824035087949e-02 8.320719291829371969e+02
5.462881713701626257e-02 8.095274160100310610e+02
5.566936603368164566e-02 7.875690307362503972e+02
5.670991493034702874e-02 7.603222247173210917e+02
5.775046382701241182e-02 7.344594299541699911e+02
5.879101272367779490e-02 7.143155125987741485e+02
5.983156162034317799e-02 6.906356145230109860e+02
6.087211051700856107e-02 6.687722322849144803e+02
6.191265941367394415e-02 6.445769279262337932e+02
6.295320831033933417e-02 6.210249553951882717e+02
6.399375720700471726e-02 5.995331026015960560e+02
6.503430610367010034e-02 5.760485270292109590e+02
6.607485500033548342e-02 5.548550869587053285e+02
6.711540389700086651e-02 5.351309021497729645e+02
6.815595279366624959e-02 5.147685623277312743e+02
6.919650169033163267e-02 4.947401471492822225e+02
7.023705058699701576e-02 4.764156348014795981e+02
7.127759948366239884e-02 4.573804178024285534e+02
7.231814838032778192e-02 4.364877553547523803e+02
7.335869727699316500e-02 4.175940433287562428e+02
7.439924617365854809e-02 4.014363817879870453e+02
7.543979507032393117e-02 3.827858088127485985e+02
7.648034396698931425e-02 3.663968736819956575e+02
7.752089286365469734e-02 3.489876486018392256e+02
7.856144176032008042e-02 3.317192353458072489e+02
7.960199065698546350e-02 3.143684315771204183e+02
8.064253955365084658e-02 3.000983112103724579e+02
8.168308845031622967e-02 2.820970732102623515e+02
8.272363734698161275e-02 2.670877774040705503e+02
8.376418624364699583e-02 2.544463301439774625e+02
8.480473514031239279e-02 2.399353878277166814e+02
8.584528403697777588e-02 2.265353453618446338e+02
8.688583293364315896e-02 2.136144660827120276e+02
8.792638183030854204e-02 2.040261712628843611e+02
8.896693072697392513e-02 1.949215944504202298e+02
9.000747962363930821e-02 1.835523127033256969e+02
9.104802852030469129e-02 1.687775065167261346e+02
9.208857741697007437e-02 1.563059599845826710e+02
9.312912631363545746e-02 1.453643912270867418e+02
9.416967521030084054e-02 1.351369024236664984e+02
9.521022410696622362e-02 1.261094391300375150e+02
9.625077300363160671e-02 1.166769587948872413e+02
9.729132190029698979e-02 1.079074957904687295e+02
9.833187079696237287e-02 1.006713641609881620e+02
9.937241969362775595e-02 9.285217684143665906e+01
1.004129685902931390e-01 8.615670986133648057e+01
1.014535174869585221e-01 7.867004089509859455e+01
1.024940663836239052e-01 7.229492067176050796e+01
1.035346152802892883e-01 6.636780903202603099e+01
1.045751641769546714e-01 5.963413835356376325e+01
1.056157130736200545e-01 5.404786006699646350e+01
1.066562619702854375e-01 4.899696890600402810e+01
1.076968108669508206e-01 4.324842567326895448e+01
1.087373597636162037e-01 3.972034968855651726e+01
1.097779086602815868e-01 3.618578921453903519e+01
1.108184575569469699e-01 3.215306456230172216e+01
1.118590064536123529e-01 2.833210479847073771e+01
1.128995553502777360e-01 2.471159182996365899e+01
1.139401042469431191e-01 2.181728672154747528e+01
1.149806531436085022e-01 1.874164397162167717e+01
1.160212020402738853e-01 1.578805549367886840e+01
1.170617509369392684e-01 1.364433617356827710e+01
1.181022998336046514e-01 1.222349790120708946e+01
1.191428487302700345e-01 1.020381836317826441e+01
1.201833976269354176e-01 7.882477139082020301e+00
1.212239465236008007e-01 6.911067904062747402e+00
1.222644954202661838e-01 5.833196921746086616e+00
1.233050443169315669e-01 4.662865795119081724e+00
1.243455932135969499e-01 3.925117163687993127e+00
1.253861421102623330e-01 3.051576495286631996e+00
1.264266910069277161e-01 2.388715811741640493e+00
1.274672399035930992e-01 1.826990388139819288e+00
1.285077888002584823e-01 1.507993931267662902e+00
1.295483376969238654e-01 1.513923667156291231e+00
1.305888865935892484e-01 1.410582053977968542e+00
1.316294354902546315e-01 6.464231710553178800e-01
1.326699843869200146e-01 5.866774127333798106e-01
1.337105332835853977e-01 1.082517029789364926e+00
1.347510821802507808e-01 8.840738888815948826e-01
1.357916310769161639e-01 1.220774561645718848e+00
1.368321799735815469e-01 1.698667412858512193e+00
1.378727288702469300e-01 1.910835976447451401e+00
1.389132777669123131e-01 2.006245013247188069e+00
1.399538266635776962e-01 2.852022540565940290e+00
1.409943755602430793e-01 3.218569629803745613e+00
1.420349244569084624e-01 3.573422173724267736e+00
1.430754733535738454e-01 4.015260522840350177e+00
1.441160222502392285e-01 4.317804393201953417e+00
1.451565711469046116e-01 4.640261028626738948e+00
1.461971200435699947e-01 5.335326386156197032e+00
1.472376689402353778e-01 6.150230244446042605e+00
1.482782178369007609e-01 6.853825132840071888e+00
1.493187667335661439e-01 6.938114570221060262e+00
1.503593156302315270e-01 7.512748170748878351e+00
1.513998645268969101e-01 8.003085589272671996e+00
1.524404134235622932e-01 8.132813444608238740e+00
1.534809623202276763e-01 8.672746828218400594e+00
1.545215112168930593e-01 9.444300484790979056e+00
1.555620601135584424e-01 9.877032455337790395e+00
1.566026090102238255e-01 1.012090877889565377e+01
1.576431579068892086e-01 1.025786384730668743e+01
1.586837068035545917e-01 1.046400567061785125e+01
1.597242557002199748e-01 1.094730132500357200e+01
1.607648045968853578e-01 1.115283656115838085e+01
1.618053534935507409e-01 1.092748287802171347e+01
1.628459023902161240e-01 1.127744836546077067e+01
1.638864512868815071e-01 1.151276279964641702e+01
1.649270001835468902e-01 1.181403443767149497e+01
1.659675490802122733e-01 1.151652162229116527e+01
1.670080979768776563e-01 1.177890998084329510e+01
1.680486468735430672e-01 1.169020915824267348e+01
1.690891957702084503e-01 1.161478610152866509e+01
1.701297446668738333e-01 1.165556756744217637e+01
1.711702935635392164e-01 1.189225303693902447e+01
1.722108424602045995e-01 1.205917161042635399e+01
1.732513913568699826e-01 1.180227151486374737e+01
1.742919402535353657e-01 1.158473898968095028e+01
1.753324891502007488e-01 1.146377164770044033e+01
1.763730380468661318e-01 1.095528483295813515e+01
1.774135869435315149e-01 1.088278947916206363e+01
1.784541358401968980e-01 1.033268194445212629e+01
1.794946847368622811e-01 1.012422736925506683e+01
1.805352336335276642e-01 9.928743470350994471e+00
1.815757825301930473e-01 9.723009916602165958e+00
1.826163314268584303e-01 9.339282644665850341e+00
1.836568803235238134e-01 9.009245777478987804e+00
1.846974292201891965e-01 8.373323506360790702e+00
1.857379781168545796e-01 8.159914088738723592e+00
1.867785270135199627e-01 8.281695718003582840e+00
1.878190759101853458e-01 7.989720162085987454e+00
1.888596248068507288e-01 7.360111678444468453e+00
1.899001737035161119e-01 7.134102150709630052e+00
1.909407226001814950e-01 7.128026627779981084e+00
1.919812714968468781e-01 6.619331157698766788e+00
1.930218203935122612e-01 5.971558842749544738e+00
1.940623692901776443e-01 5.676550989294717908e+00
1.951029181868430273e-01 5.366211238238712156e+00
1.961434670835084104e-01 5.005925289818272006e+00
1.971840159801737935e-01 4.496562670624584257e+00
1.982245648768391766e-01 4.440655894921718527e+00
1.992651137735045597e-01 4.036711673354531627e+00
2.003056626701699428e-01 3.440351532356302755e+00
2.013462115668353813e-01 3.539047877981886359e+00
2.023867604635007644e-01 3.265485900727490787e+00
2.034273093601661475e-01 3.108129999876325655e+00
2.044678582568315306e-01 2.719889718104532506e+00
2.055084071534969137e-01 2.537274537601213353e+00
2.065489560501622968e-01 2.134565925782915485e+00
2.075895049468276798e-01 2.156123380802405620e+00
2.086300538434930629e-01 2.173161387692530866e+00
2.096706027401584460e-01 1.905082950961265453e+00
2.107111516368238291e-01 1.629287421637847899e+00
2.117517005334892122e-01 1.010828691532161372e+00
2.127922494301545953e-01 6.374694257173985079e-01
2.138327983268199783e-01 4.825216839311750050e-01
2.148733472234853614e-01 6.815775114573980886e-01
2.159138961201507445e-01 6.749802465837504428e-01
2.169544450168161276e-01 5.426526811115195414e-01
2.179949939134815107e-01 4.209189390480077009e-01
2.190355428101468938e-01 2.985431127726272393e-01
2.200760917068122768e-01 2.407080125017628802e-01
2.211166406034776599e-01 2.102304174677200876e-01
2.221571895001430430e-01 3.352795707079430088e-01
2.231977383968084261e-01 1.192673466598179743e-01
2.242382872934738092e-01 3.580522785168582800e-01
2.252788361901391923e-01 2.871286224815037258e-01
2.263193850868045753e-01 2.958050894740047454e-01
2.273599339834699584e-01 2.255525166517422520e-01
2.284004828801353415e-01 1.377541180324257653e-01
2.294410317768007246e-01 2.496900131135006973e-01
2.304815806734661077e-01 3.949553766086211226e-01
2.315221295701314908e-01 6.901393344135264840e-01
2.325626784667968738e-01 5.926927781789785854e-01
2.336032273634622569e-01 4.391726399164781469e-01
2.346437762601276400e-01 4.675613059701682062e-01
2.356843251567930231e-01 5.453999723002844746e-01
2.367248740534584062e-01 5.053753487535779243e-01
2.377654229501237892e-01 5.219671316237111114e-01
2.388059718467891723e-01 8.521019029700340752e-01
2.398465207434545554e-01 7.683392910767103956e-01
2.408870696401199385e-01 1.140468330809348174e+00
2.419276185367853216e-01 1.270653218362074455e+00
2.429681674334507047e-01 9.435414604284240170e-01
2.440087163301160877e-01 8.639252188253792042e-01
2.450492652267814708e-01 1.034444897866166002e+00
2.460898141234468539e-01 1.185321723331327348e+00
2.471303630201122370e-01 8.716524687133002658e-01
2.481709119167776201e-01 1.080935709955863189e+00
2.492114608134430032e-01 1.248679895788072258e+00
2.502520097101083585e-01 1.251059228658235156e+00
2.512925586067737416e-01 1.516100194683957625e+00
2.523331075034391247e-01 1.387929592693936343e+00
2.533736564001045077e-01 1.336535411341298385e+00
2.544142052967698908e-01 1.473290652027941405e+00
2.554547541934352739e-01 1.627055501772858292e+00
2.564953030901006570e-01 1.612692144282149798e+00
2.575358519867660401e-01 1.800486809106153885e+00
2.585764008834314231e-01 1.833142754034799538e+00
2.596169497800968062e-01 1.649524145879922798e+00
2.606574986767621893e-01 1.640689487115629674e+00
2.616980475734275724e-01 1.793792809909152908e+00
2.627385964700929555e-01 1.591604067160545810e+00
2.637791453667583386e-01 1.598102816770499146e+00
2.648196942634237216e-01 1.680729367354203418e+00
2.658602431600891047e-01 2.106995332682338073e+00
2.669007920567544878e-01 2.147285214810157328e+00
2.679413409534198709e-01 1.895054420773753634e+00
2.689818898500852540e-01 1.569672135102589294e+00
2.700224387467506371e-01 1.546591032801224230e+00
2.710629876434160201e-01 1.655850324186921796e+00
2.721035365400814032e-01 1.951961123311168222e+00
2.731440854367467863e-01 1.793114395691535634e+00
2.741846343334121694e-01 1.681825618556409552e+00
2.752251832300775525e-01 1.753882305435169542e+00
2.762657321267429356e-01 1.206350810620079983e+00
2.773062810234083186e-01 1.290102919318197650e+00
2.783468299200737017e-01 1.503767821962266993e+00
2.793873788167390848e-01 1.553963862081140235e+00
2.804279277134044679e-01 1.465734508131923519e+00
2.814684766100698510e-01 1.651923455269937335e+00
2.825090255067352341e-01 1.500644629365186944e+00
2.835495744034006171e-01 1.163041856624893455e+00
2.845901233000660002e-01 1.263136797831990066e+00
2.856306721967313833e-01 1.199936622222434579e+00
2.866712210933967664e-01 1.329650103163398711e+00
2.877117699900621495e-01 1.105561830928650124e+00
2.887523188867275326e-01 1.168388641131425487e+00
2.897928677833929156e-01 1.151087060033635368e+00
2.908334166800582987e-01 1.115588114080182436e+00
2.918739655767236818e-01 1.037194865199097649e+00
2.929145144733890649e-01 1.090348304401377533e+00
2.939550633700544480e-01 1.143283791207768019e+00
2.949956122667198311e-01 7.196429125437653340e-01
2.960361611633852141e-01 7.155167553912811229e-01
2.970767100600505972e-01 8.284150838790083071e-01
2.981172589567159803e-01 4.574876348365322087e-01
2.991578078533813634e-01 3.557495410711410955e-01
3.001983567500468020e-01 6.742766388277523504e-01
3.012389056467121851e-01 7.278043339955324598e-01
3.022794545433775681e-01 4.731989874184847622e-01
3.033200034400429512e-01 3.369643638251709206e-01
3.043605523367083343e-01 2.213384566655172137e-01
3.054011012333737174e-01 1.955299782097341676e-01
3.064416501300391005e-01 4.004846861876316666e-01
3.074821990267044836e-01 5.668322761723842973e-01
3.085227479233698666e-01 5.813949300536123133e-01
3.095632968200352497e-01 3.935429938029884056e-01
3.106038457167006328e-01 4.191342723194999564e-01
3.116443946133660159e-01 5.136476951782249500e-01
3.126849435100313990e-01 3.975375168430943518e-01
3.137254924066967821e-01 1.774697184447795451e-01
3.147660413033621651e-01 2.727513684155979945e-01
3.158065902000275482e-01 2.256172726763239211e-01
3.168471390966929313e-01 8.838916021207765539e-02
3.178876879933583144e-01 1.259282677554516283e-01
3.189282368900236975e-01 2.151658202035449108e-01
3.199687857866890806e-01 6.681946934448035336e-02
3.210093346833544636e-01 3.381491359972379485e-01
3.220498835800198467e-01 2.589797754589504564e-01
3.230904324766852298e-01 1.868760545659284844e-01
3.241309813733506129e-01 1.422694002316085005e-01
3.251715302700159960e-01 2.572581535913656126e-01
3.262120791666813790e-01 9.282487348336232458e-02
3.272526280633467621e-01 3.986718883124282797e-01
3.282931769600121452e-01 4.410070008406883346e-01
3.293337258566775283e-01 2.068510397137721668e-01
3.303742747533429114e-01 1.596391990214662826e-01
3.314148236500082945e-01 4.047584278374820599e-01
3.324553725466736775e-01 4.531517578040507033e-01
3.334959214433390606e-01 4.854875912333227461e-01
3.345364703400044437e-01 3.824524443272530050e-01
3.355770192366698268e-01 4.746531058726048968e-01
3.366175681333352099e-01 3.898838827894799408e-01
3.376581170300005930e-01 5.244815997804899155e-01
3.386986659266659760e-01 6.227578852098147877e-01
3.397392148233313591e-01 5.028272311883661416e-01
3.407797637199967422e-01 2.858575412724277953e-01
3.418203126166621253e-01 4.968463309828479169e-01
3.428608615133275084e-01 7.191358915604233459e-01
3.439014104099928915e-01 7.765016901520667147e-01
3.449419593066582745e-01 6.755438774512185773e-01
3.459825082033236576e-01 5.413887970022841500e-01
3.470230570999890407e-01 5.149996287624816205e-01
3.480636059966544238e-01 7.305123826323125513e-01
3.491041548933198069e-01 7.289457934424348196e-01
3.501447037899851900e-01 5.078469105473928380e-01
3.511852526866505730e-01 5.340665809918725415e-01
3.522258015833159561e-01 7.269310882210007208e-01
3.532663504799813392e-01 8.422389320460474949e-01
3.543068993766467223e-01 9.421038216696615564e-01
3.553474482733121054e-01 8.428991685144104906e-01
3.563879971699774885e-01 5.220987410064665823e-01
3.574285460666428715e-01 5.542901939373123810e-01
3.584690949633082546e-01 6.560003235941955779e-01
3.595096438599736377e-01 6.490226304728210494e-01
3.605501927566390208e-01 8.055398774662769767e-01
3.615907416533044039e-01 8.954758921657060000e-01
3.626312905499697870e-01 6.181422244685137457e-01
3.636718394466351700e-01 4.264558683732388999e-01
3.647123883433005531e-01 5.466294869516872268e-01
3.657529372399659362e-01 6.652015933506554290e-01
3.667934861366313193e-01 4.866000394489482517e-01
3.678340350332967024e-01 5.616215978824321553e-01
3.688745839299620854e-01 5.982704434368031343e-01
3.699151328266274685e-01 7.474403182968245574e-01
3.709556817232928516e-01 5.979672753963960474e-01
3.719962306199582347e-01 7.151221759977630654e-01
3.730367795166236178e-01 4.347977244712204481e-01
3.740773284132890009e-01 1.739033235250815324e-01
3.751178773099543839e-01 3.209391771728640208e-01
3.761584262066197670e-01 7.863310318894818352e-01
3.771989751032851501e-01 7.554907330593998438e-01
3.782395239999505332e-01 5.287440195952228805e-01
3.792800728966159163e-01 3.923701695880517093e-01
3.803206217932812994e-01 6.378312644008481413e-01
3.813611706899466824e-01 5.136441543591487857e-01
3.824017195866120655e-01 3.450582005267506247e-01
3.834422684832774486e-01 4.435677601486887056e-01
3.844828173799428317e-01 5.989602389703847507e-01
3.855233662766082148e-01 6.124232184588045413e-01
3.865639151732735979e-01 4.322961175871462558e-01
3.876044640699389809e-01 3.471921206493640000e-01
3.886450129666043640e-01 4.939840074844248363e-01
3.896855618632697471e-01 5.763504985908447509e-01
3.907261107599351302e-01 5.105438507445541063e-01
3.917666596566005133e-01 3.888300420171582061e-01
3.928072085532658964e-01 4.190688658164560820e-01
3.938477574499312794e-01 2.488505320440737023e-01
3.948883063465966625e-01 5.819190460856624725e-01
3.959288552432620456e-01 5.044372538379242599e-01
3.969694041399274287e-01 3.156734082403644948e-01
3.980099530365928118e-01 2.704905717602734683e-01
3.990505019332581949e-01 2.356097994101737925e-01
4.000910508299235779e-01 1.899424920864341004e-01
4.011315997265889610e-01 2.948579842910845628e-01
4.021721486232543441e-01 2.643887356347924822e-01
4.032126975199197272e-01 4.202212122210724488e-01
4.042532464165851103e-01 6.258045843317283641e-01
4.052937953132504934e-01 4.760075435854993486e-01
4.063343442099158764e-01 3.322829269217137949e-01
4.073748931065812595e-01 3.921056585001174710e-01
4.084154420032466426e-01 2.813592018398693995e-01
4.094559908999120257e-01 3.131963349946573771e-01
4.104965397965774088e-01 5.321209389930210421e-01
4.115370886932427918e-01 3.905032750605883507e-01
4.125776375899081749e-01 2.700663368758711158e-01
4.136181864865735580e-01 2.372612811019827461e-01
4.146587353832389411e-01 1.826887234477787558e-01
4.156992842799043242e-01 2.624335818025222977e-01
4.167398331765697073e-01 2.595853454354255518e-01
4.177803820732350903e-01 2.479073068014763237e-01
4.188209309699004734e-01 3.789539580007570407e-01
4.198614798665658565e-01 5.458437502280055753e-01
4.209020287632312396e-01 3.744714861155600261e-01
4.219425776598966227e-01 2.522039921600907064e-01
4.229831265565620058e-01 7.665166806019385604e-02
4.240236754532273888e-01 2.257464848798882429e-01
4.250642243498927719e-01 5.355461778152168506e-01
4.261047732465581550e-01 4.634749075058870460e-01
4.271453221432235381e-01 3.912326606184919342e-01
4.281858710398889212e-01 4.011923104740411361e-01
4.292264199365543043e-01 3.582494178154469466e-01
4.302669688332196873e-01 3.639592953464045877e-01
4.313075177298850704e-01 1.563327776742795550e-01
4.323480666265504535e-01 3.273652366543302605e-01
4.333886155232158366e-01 4.100875302682283063e-01
4.344291644198812197e-01 2.820075615456758555e-01
