# q (1/Angstrom), Intensity (arb)
2.029070354705860696e-02 8.931020373701226163e+02
2.133125244372399004e-02 8.848572691283525273e+02
2.237180134038937659e-02 8.785831928568127296e+02
2.341235023705475968e-02 8.721909585078113878e+02
2.445289913372014276e-02 8.630306311000031201e+02
2.549344803038552584e-02 8.539713057928040598e+02
2.653399692705091240e-02 8.450358435044572616e+02
2.757454582371629548e-02 8.399538652268942087e+02
2.861509472038167856e-02 8.326718116097032407e+02
2.965564361704706164e-02 8.166021086746359288e+02
3.069619251371244473e-02 8.038813321750311616e+02
3.173674141037782781e-02 7.922403684829298527e+02
3.277729030704321089e-02 7.839011794468033258e+02
3.381783920370859398e-02 7.706779636668221656e+02
3.485838810037397706e-02 7.592487687463780048e+02
3.589893699703936014e-02 7.446287303666175603e+02
3.693948589370474322e-02 7.319194142187332091e+02
3.798003479037012631e-02 7.205754868086423812e+02
3.902058368703550939e-02 7.066018636942635567e+02
4.006113258370089247e-02 6.926495231481287647e+02
4.110168148036627556e-02 6.806559840648079671e+02
4.214223037703165864e-02 6.663803786615235367e+02
4.318277927369704866e-02 6.536998909772906927e+02
4.422332817036243174e-02 6.391001237526122623e+02
4.526387706702781483e-02 6.224521034730233850e+02
4.630442596369319791e-02 6.079545981393554257e+02
4.734497486035858099e-02 5.941823258351190589e+02
4.838552375702396408e-02 5.795214802392149522e+02
4.942607265368934716e-02 5.667129187703272919e+02
5.046662155035473024e-02 5.524262664361606312e+02
5.150717044702011332e-02 5.379072306702641981e+02
5.254771934368549641e-02 5.239353654828264553e+02
5.358826824035087949e-02 5.105180310691553132e+02
5.462881713701626257e-02 4.961841314135066909e+02
5.566936603368164566e-02 4.803955912085573914e+02
5.670991493034702874e-02 4.660475701655662419e+02
5.775046382701241182e-02 4.519389738505656169e+02
5.879101272367779490e-02 4.387297271785404860e+02
5.983156162034317799e-02 4.241028410272527935e+02
6.087211051700856107e-02 4.104010933023820371e+02
6.191265941367394415e-02 3.964512193946951015e+02
6.295320831033933417e-02 3.824602095503204851e+02
6.399375720700471726e-02 3.698219835493204641e+02
6.503430610367010034e-02 3.575759202732028825e+02
6.607485500033548342e-02 3.444022658205039420e+02
6.711540389700086651e-02 3.307924577122968230e+02
6.815595279366624959e-02 3.185200993763868951e+02
6.919650169033163267e-02 3.071992960032164319e+02
7.023705058699701576e-02 2.953361495080765735e+02
7.127759948366239884e-02 2.843513900421314702e+02
7.231814838032778192e-02 2.712965331402681954e+02
7.335869727699316500e-02 2.608659349926056734e+02
7.439924617365854809e-02 2.499462616196483964e+02
7.543979507032393117e-02 2.387455039100240128e+02
7.648034396698931425e-02 2.282261242268259025e+02
7.752089286365469734e-02 2.179357396720237432e+02
7.856144176032008042e-02 2.085501854795687677e+02
7.960199065698546350e-02 1.993610599673197612e+02
8.064253955365084658e-02 1.904964958977087690e+02
8.168308845031622967e-02 1.840651835298513959e+02
8.272363734698161275e-02 1.827393948868447637e+02
8.376418624364699583e-02 1.950200424207869219e+02
8.480473514031239279e-02 2.201170289825856230e+02
8.584528403697777588e-02 2.347634067607194197e+02
8.688583293364315896e-02 2.459762082258964710e+02
8.792638183030854204e-02 3.122910636381826635e+02
8.896693072697392513e-02 4.988951229264331459e+02
9.000747962363930821e-02 6.290711607522508757e+02
9.104802852030469129e-02 4.771864460506234309e+02
9.208857741697007437e-02 2.833903465651443980e+02
9.312912631363545746e-02 2.072214082735342231e+02
9.416967521030084054e-02 1.793125230126072154e+02
9.521022410696622362e-02 1.593494179726393440e+02
9.625077300363160671e-02 1.436961572761887282e+02
9.729132190029698979e-02 1.283963644406546223e+02
9.833187079696237287e-02 1.148556623945703024e+02
9.937241969362775595e-02 1.030851512000765240e+02
1.004129685902931390e-01 9.531118162210145783e+01
1.014535174869585221e-01 9.295210552059891995e+01
1.024940663836239052e-01 1.037465880146470596e+02
1.035346152802892883e-01 1.129240343768048831e+02
1.045751641769546714e-01 9.444815299974399636e+01
1.056157130736200545e-01 6.379942851081361965e+01
1.066562619702854375e-01 4.487517651751815606e+01
1.076968108669508206e-01 3.599981686134716341e+01
1.087373597636162037e-01 3.061698252079767002e+01
1.097779086602815868e-01 2.629847901510756714e+01
1.108184575569469699e-01 2.336157543169316142e+01
1.118590064536123529e-01 2.033173699397622158e+01
1.128995553502777360e-01 1.763123330135010747e+01
1.139401042469431191e-01 1.614097192119629653e+01
1.149806531436085022e-01 1.354408985234120166e+01
1.160212020402738853e-01 1.193323590237697118e+01
1.170617509369392684e-01 1.085466989940378824e+01
1.181022998336046514e-01 8.942429028720006556e+00
1.191428487302700345e-01 7.725422044138682054e+00
1.201833976269354176e-01 6.653608362454534131e+00
1.212239465236008007e-01 5.483817405769585207e+00
1.222644954202661838e-01 4.608576239251824802e+00
1.233050443169315669e-01 3.868522490510500234e+00
1.243455932135969499e-01 3.404533802177766688e+00
1.253861421102623330e-01 3.004500717868523907e+00
1.264266910069277161e-01 2.081006198663523321e+00
1.274672399035930992e-01 1.753461613210021142e+00
1.285077888002584823e-01 1.561203684077668186e+00
1.295483376969238654e-01 1.079070941498621039e+00
1.305888865935892484e-01 7.949246059920582752e-01
1.316294354902546315e-01 4.852032075501924169e-01
1.326699843869200146e-01 8.179315813802858770e-01
1.337105332835853977e-01 6.960121716053393470e-01
1.347510821802507808e-01 7.422752279702180545e-01
1.357916310769161639e-01 1.184662454359269645e+00
1.368321799735815469e-01 1.351265158230347652e+00
1.378727288702469300e-01 1.276356933399831917e+00
1.389132777669123131e-01 1.396333929491909487e+00
1.399538266635776962e-01 1.890990653240621100e+00
1.409943755602430793e-01 2.314975405934383446e+00
1.420349244569084624e-01 2.485314711039976032e+00
1.430754733535738454e-01 3.205778450933095769e+00
1.441160222502392285e-01 4.329064965962857059e+00
1.451565711469046116e-01 6.990114891094485472e+00
1.461971200435699947e-01 1.083070147896637536e+01
1.472376689402353778e-01 1.227050201321497269e+01
1.482782178369007609e-01 9.546720922511354956e+00
1.493187667335661439e-01 6.498030434863203197e+00
1.503593156302315270e-01 6.059825379312187010e+00
1.513998645268969101e-01 6.580258887945234392e+00
1.524404134235622932e-01 6.286561361838842288e+00
1.534809623202276763e-01 6.462068495870553875e+00
1.545215112168930593e-01 6.748702049023215466e+00
1.555620601135584424e-01 6.936611583333927911e+00
1.566026090102238255e-01 7.267213740307681746e+00
1.576431579068892086e-01 7.574042841383580082e+00
1.586837068035545917e-01 7.698976856792754120e+00
1.597242557002199748e-01 7.832304392483493416e+00
1.607648045968853578e-01 7.825619349607698894e+00
1.618053534935507409e-01 8.220213307989169493e+00
1.628459023902161240e-01 8.731725945834227787e+00
1.638864512868815071e-01 8.881618636218135521e+00
1.649270001835468902e-01 8.569095248690878464e+00
1.659675490802122733e-01 8.899185947849211686e+00
1.670080979768776563e-01 8.474140740293137242e+00
1.680486468735430672e-01 9.396631706079027424e+00
1.690891957702084503e-01 1.186085368587540501e+01
1.701297446668738333e-01 1.757053371289059385e+01
1.711702935635392164e-01 2.754947735839707690e+01
1.722108424602045995e-01 3.342093498742958957e+01
1.732513913568699826e-01 2.782265653382290793e+01
1.742919402535353657e-01 1.880460399989516418e+01
1.753324891502007488e-01 1.357362867396461326e+01
1.763730380468661318e-01 1.183046348770467660e+01
1.774135869435315149e-01 1.110605919510216921e+01
1.784541358401968980e-01 1.155786926306890194e+01
1.794946847368622811e-01 1.253788409575899010e+01
1.805352336335276642e-01 1.180281028035174273e+01
1.815757825301930473e-01 9.400394404541415838e+00
1.826163314268584303e-01 7.635247620896848275e+00
1.836568803235238134e-01 6.680433455118318875e+00
1.846974292201891965e-01 5.947026721706578201e+00
1.857379781168545796e-01 5.383897641004914192e+00
1.867785270135199627e-01 5.588276719753061172e+00
1.878190759101853458e-01 5.078984573071906539e+00
1.888596248068507288e-01 4.975043653795090393e+00
1.899001737035161119e-01 5.039541281644474680e+00
1.909407226001814950e-01 4.488512853307014439e+00
1.919812714968468781e-01 4.252614270077174297e+00
1.930218203935122612e-01 4.022281498452819903e+00
1.940623692901776443e-01 3.528829620759708519e+00
1.951029181868430273e-01 3.756646382922220084e+00
1.961434670835084104e-01 3.636402719177404208e+00
1.971840159801737935e-01 3.125127982130429416e+00
1.982245648768391766e-01 3.061774621830437582e+00
1.992651137735045597e-01 2.672717475349067229e+00
2.003056626701699428e-01 2.695943580943307438e+00
2.013462115668353813e-01 2.635458622444829757e+00
2.023867604635007644e-01 2.285975428632823991e+00
2.034273093601661475e-01 2.215497560305216496e+00
2.044678582568315306e-01 2.178228773371195359e+00
2.055084071534969137e-01 1.966658707292587849e+00
2.065489560501622968e-01 1.933814440633021547e+00
2.075895049468276798e-01 1.558214956188692213e+00
2.086300538434930629e-01 1.616784850019492126e+00
2.096706027401584460e-01 1.697380179690615165e+00
2.107111516368238291e-01 1.226649461783367201e+00
2.117517005334892122e-01 8.367967376444553906e-01
2.127922494301545953e-01 5.994863161653611883e-01
2.138327983268199783e-01 6.335123789328633848e-01
2.148733472234853614e-01 8.265539509560078102e-01
2.159138961201507445e-01 9.372335097785722269e-01
2.169544450168161276e-01 1.041276915072828047e+00
2.179949939134815107e-01 7.545457467443696942e-01
2.190355428101468938e-01 5.681749821003769796e-01
2.200760917068122768e-01 3.360699064824395066e-01
2.211166406034776599e-01 4.738586929121915148e-01
2.221571895001430430e-01 6.485411711999056195e-01
2.231977383968084261e-01 2.859584553703520271e-01
2.242382872934738092e-01 1.493858547346818000e-01
2.252788361901391923e-01 1.775790179880694097e-01
2.263193850868045753e-01 4.192702073335752289e-01
2.273599339834699584e-01 3.371834982977084394e-01
2.284004828801353415e-01 1.281501734777776846e-01
2.294410317768007246e-01 1.079586324398746910e-01
2.304815806734661077e-01 3.242185853732451051e-01
2.315221295701314908e-01 2.866067445332021180e-01
2.325626784667968738e-01 5.518425997832743235e-01
2.336032273634622569e-01 2.601566446040202152e-01
2.346437762601276400e-01 1.839716764702536977e-01
2.356843251567930231e-01 4.034972171682085218e-01
2.367248740534584062e-01 3.934270172999809745e-01
2.377654229501237892e-01 4.414588702609059112e-01
2.388059718467891723e-01 7.859680093316363525e-01
2.398465207434545554e-01 8.735883240039434838e-01
2.408870696401199385e-01 7.739461752835268271e-01
2.419276185367853216e-01 8.907970809542646862e-01
2.429681674334507047e-01 7.649024261405230618e-01
2.440087163301160877e-01 6.168821719346233579e-01
2.450492652267814708e-01 6.559895642723212461e-01
2.460898141234468539e-01 8.629361222460794068e-01
2.471303630201122370e-01 1.017516831782366182e+00
2.481709119167776201e-01 9.436632964800644174e-01
2.492114608134430032e-01 1.020381584232026739e+00
2.502520097101083585e-01 1.098990248310148132e+00
2.512925586067737416e-01 1.231274199078487896e+00
2.523331075034391247e-01 1.356372540498071544e+00
2.533736564001045077e-01 1.794918966722654829e+00
2.544142052967698908e-01 1.877530573495249655e+00
2.554547541934352739e-01 2.043976618734149042e+00
2.564953030901006570e-01 2.118460709870944925e+00
2.575358519867660401e-01 1.832336240686203155e+00
2.585764008834314231e-01 1.654105673534303378e+00
2.596169497800968062e-01 1.628876688027158792e+00
2.606574986767621893e-01 1.616156032977176693e+00
2.616980475734275724e-01 1.684625811585824806e+00
2.627385964700929555e-01 1.457403899280077297e+00
2.637791453667583386e-01 1.558799947801759345e+00
2.648196942634237216e-01 1.564877422484904912e+00
2.658602431600891047e-01 1.518669008498108042e+00
2.669007920567544878e-01 1.889750304690068106e+00
2.679413409534198709e-01 2.226052098654403011e+00
2.689818898500852540e-01 2.574460739490724848e+00
2.700224387467506371e-01 2.459467815168096649e+00
2.710629876434160201e-01 1.948590876937565497e+00
2.721035365400814032e-01 1.502674694541255462e+00
2.731440854367467863e-01 1.507957443041682666e+00
2.741846343334121694e-01 1.581063654303864752e+00
2.752251832300775525e-01 1.405391060916404200e+00
2.762657321267429356e-01 1.095434837682322637e+00
2.773062810234083186e-01 1.192915474100296080e+00
2.783468299200737017e-01 1.202731656785104519e+00
2.793873788167390848e-01 1.005698828739536310e+00
2.804279277134044679e-01 9.968246524995834079e-01
2.814684766100698510e-01 9.616018699280246551e-01
2.825090255067352341e-01 1.185034178658003867e+00
2.835495744034006171e-01 1.205938010153108308e+00
2.845901233000660002e-01 1.076940312035453928e+00
2.856306721967313833e-01 8.689076461171829635e-01
2.866712210933967664e-01 1.006174421180521250e+00
2.877117699900621495e-01 9.235049257763492392e-01
2.887523188867275326e-01 6.963774168024272626e-01
2.897928677833929156e-01 9.725248954549989833e-01
2.908334166800582987e-01 1.098434720991612323e+00
2.918739655767236818e-01 1.049200931216848431e+00
2.929145144733890649e-01 9.188573342533423727e-01
2.939550633700544480e-01 7.105268392732924099e-01
2.949956122667198311e-01 7.713421486732023880e-01
2.960361611633852141e-01 7.889076956753662273e-01
2.970767100600505972e-01 6.716098792286295804e-01
2.981172589567159803e-01 6.520389718503771803e-01
2.991578078533813634e-01 8.609257235933007735e-01
3.001983567500468020e-01 5.917746351949837447e-01
3.012389056467121851e-01 5.490662971092419298e-01
3.022794545433775681e-01 6.223370733931510301e-01
3.033200034400429512e-01 5.565547328794480109e-01
3.043605523367083343e-01 3.052671118366276914e-01
3.054011012333737174e-01 2.233099977059218588e-01
3.064416501300391005e-01 1.976985163762776665e-01
3.074821990267044836e-01 1.721203940853719416e-01
3.085227479233698666e-01 2.308578075646359196e-01
3.095632968200352497e-01 3.771622084548482690e-01
3.106038457167006328e-01 2.547184766369596787e-01
3.116443946133660159e-01 2.584475149854164044e-01
3.126849435100313990e-01 4.673526412816570996e-01
3.137254924066967821e-01 4.811119597763600098e-01
3.147660413033621651e-01 2.785289277347438031e-01
3.158065902000275482e-01 1.222547562432367840e-01
3.168471390966929313e-01 1.049759177196278870e-01
3.178876879933583144e-01 3.420029839329252752e-01
3.189282368900236975e-01 2.839423846296149634e-01
3.199687857866890806e-01 4.123187663954368531e-01
3.210093346833544636e-01 2.791834403911082063e-01
3.220498835800198467e-01 1.981638384629071936e-01
3.230904324766852298e-01 2.030202205718758535e-01
3.241309813733506129e-01 3.658543994978487035e-01
3.251715302700159960e-01 2.539336867268318088e-01
3.262120791666813790e-01 3.651624032389406693e-01
3.272526280633467621e-01 5.338346405054714694e-01
3.282931769600121452e-01 4.778104832533927038e-01
3.293337258566775283e-01 4.319940279759535429e-01
3.303742747533429114e-01 6.290601121647760863e-01
3.314148236500082945e-01 5.213213271228092083e-01
3.324553725466736775e-01 2.486010777729319443e-01
3.334959214433390606e-01 2.595930657305878242e-01
3.345364703400044437e-01 2.010827023500532107e-01
3.355770192366698268e-01 3.121420550680014117e-01
3.366175681333352099e-01 4.482124761734809226e-01
3.376581170300005930e-01 7.973944765236069543e-01
3.386986659266659760e-01 5.775523002724831656e-01
3.397392148233313591e-01 4.861767470128910418e-01
3.407797637199967422e-01 4.465102081510679000e-01
3.418203126166621253e-01 4.374033030938129230e-01
3.428608615133275084e-01 6.213477582885182926e-01
3.439014104099928915e-01 5.618685440569564093e-01
3.449419593066582745e-01 4.979667750953247207e-01
3.459825082033236576e-01 2.693004050438325692e-01
3.470230570999890407e-01 4.240930687485402473e-01
3.480636059966544238e-01 3.376552508651364803e-01
3.491041548933198069e-01 4.682635962458405743e-01
3.501447037899851900e-01 8.044402959136185416e-01
3.511852526866505730e-01 7.997724680578457424e-01
3.522258015833159561e-01 4.813749930864332782e-01
3.532663504799813392e-01 3.572123384974403848e-01
3.543068993766467223e-01 6.117946569304955062e-01
3.553474482733121054e-01 4.735444950131082464e-01
3.563879971699774885e-01 3.110785266545192940e-01
3.574285460666428715e-01 3.194456422519884597e-01
3.584690949633082546e-01 4.027207345318117859e-01
3.595096438599736377e-01 4.815339102158553430e-01
3.605501927566390208e-01 5.695430799578176106e-01
3.615907416533044039e-01 8.647784360047694463e-01
3.626312905499697870e-01 6.259171752089613960e-01
3.636718394466351700e-01 3.835329269168781252e-01
3.647123883433005531e-01 2.924483673618780699e-01
3.657529372399659362e-01 6.008225580551886935e-01
3.667934861366313193e-01 5.171082899015395640e-01
3.678340350332967024e-01 5.704050919159300292e-01
3.688745839299620854e-01 6.012388731282527488e-01
3.699151328266274685e-01 6.817587150293178411e-01
3.709556817232928516e-01 6.351881239050598538e-01
3.719962306199582347e-01 4.035276465255286382e-01
3.730367795166236178e-01 5.780908945035285740e-01
3.740773284132890009e-01 8.294460498125175718e-01
3.751178773099543839e-01 7.048394187500903740e-01
3.761584262066197670e-01 6.476425108379331164e-01
3.771989751032851501e-01 6.259397779077708890e-01
3.782395239999505332e-01 5.113143107573385748e-01
3.792800728966159163e-01 3.184107756546019630e-01
3.803206217932812994e-01 4.345879982769105254e-01
3.813611706899466824e-01 5.388647625248665918e-01
3.824017195866120655e-01 7.705128099431810540e-01
3.834422684832774486e-01 7.450005519915876562e-01
3.844828173799428317e-01 2.492296165370504468e-01
3.855233662766082148e-01 2.665216431804111608e-01
3.865639151732735979e-01 3.288914532994802187e-01
3.876044640699389809e-01 6.359512801460844855e-01
3.886450129666043640e-01 7.491960697834691985e-01
3.896855618632697471e-01 6.725839224399692284e-01
3.907261107599351302e-01 5.982343986985512174e-01
3.917666596566005133e-01 5.203492726665714940e-01
3.928072085532658964e-01 5.051631460360042070e-01
3.938477574499312794e-01 1.800114304803663856e-01
3.948883063465966625e-01 3.900245718707040510e-01
3.959288552432620456e-01 2.189157764765994330e-01
3.969694041399274287e-01 3.033760132541125643e-01
3.980099530365928118e-01 3.686064356714844337e-01
3.990505019332581949e-01 2.783794111615485178e-01
4.000910508299235779e-01 3.590439309155399883e-01
4.011315997265889610e-01 4.483223682757326856e-01
4.021721486232543441e-01 4.532663555971900848e-01
4.032126975199197272e-01 3.165010733543596189e-01
4.042532464165851103e-01 4.764192344319972960e-01
4.052937953132504934e-01 4.318587463449006236e-01
4.063343442099158764e-01 3.087040775734735121e-01
4.073748931065812595e-01 3.161442579907038919e-01
4.084154420032466426e-01 3.068956125559516579e-01
4.094559908999120257e-01 1.869919417577108334e-01
4.104965397965774088e-01 1.419311243879946005e-01
4.115370886932427918e-01 2.709788770669412372e-01
4.125776375899081749e-01 2.263916377716164163e-01
4.136181864865735580e-01 3.833985500355687748e-01
4.146587353832389411e-01 1.770288057689697325e-01
4.156992842799043242e-01 2.411341275560019426e-02
4.167398331765697073e-01 3.823312627851755963e-01
4.177803820732350903e-01 2.951402562348945935e-01
4.188209309699004734e-01 3.105974026024860279e-01
4.198614798665658565e-01 3.214815639634807098e-01
4.209020287632312396e-01 1.738474759680883608e-01
4.219425776598966227e-01 3.747693464683869990e-01
4.229831265565620058e-01 3.583658059171277444e-01
4.240236754532273888e-01 2.488558418029995778e-01
4.250642243498927719e-01 2.089281680423660248e-01
4.261047732465581550e-01 2.119510461900659948e-01
4.271453221432235381e-01 3.448544250193101846e-01
4.281858710398889212e-01 2.361742933140966727e-01
4.292264199365543043e-01 2.487225936282193572e-01
4.302669688332196873e-01 2.146258954486626180e-01
4.313075177298850704e-01 2.956156460783034845e-01
4.323480666265504535e-01 4.799321832693657086e-01
4.333886155232158366e-01 4.554248979034198896e-01
4.344291644198812197e-01 5.609070870273349385e-01
