# q (1/Angstrom), Intensity (arb)
2.029070354705860696e-02 4.506440170720920264e+02
2.133125244372399004e-02 4.425544008985366418e+02
2.237180134038937659e-02 4.372837909813237616e+02
2.341235023705475968e-02 4.347243328590888041e+02
2.445289913372014276e-02 4.278693654023733188e+02
2.549344803038552584e-02 4.247701668938444755e+02
2.653399692705091240e-02 4.219904287132695799e+02
2.757454582371629548e-02 4.127781810315670441e+02
2.861509472038167856e-02 4.076926466912551064e+02
2.965564361704706164e-02 4.044744176863513303e+02
3.069619251371244473e-02 3.973303973339658910e+02
3.173674141037782781e-02 3.931661394446373379e+02
3.277729030704321089e-02 3.881601871792456677e+02
3.381783920370859398e-02 3.836466799956820068e+02
3.485838810037397706e-02 3.782042961013474383e+02
3.589893699703936014e-02 3.702667699004647943e+02
3.693948589370474322e-02 3.669985321726381358e+02
3.798003479037012631e-02 3.597153249850377392e+02
3.902058368703550939e-02 3.512554607260274224e+02
4.006113258370089247e-02 3.440098122492652806e+02
4.110168148036627556e-02 3.371661696206554097e+02
4.214223037703165864e-02 3.320625336266542718e+02
4.318277927369704866e-02 3.239209086686912542e+02
4.422332817036243174e-02 3.155476424419595673e+02
4.526387706702781483e-02 3.109802505094721141e+02
4.630442596369319791e-02 3.052604335517274308e+02
4.734497486035858099e-02 2.978882997987903991e+02
4.838552375702396408e-02 2.909833582732225068e+02
4.942607265368934716e-02 2.840707503206560318e+02
5.046662155035473024e-02 2.750451972020863423e+02
5.150717044702011332e-02 2.689967882789687224e+02
5.254771934368549641e-02 2.630204516683073734e+02
5.358826824035087949e-02 2.553856849531948683e+02
5.462881713701626257e-02 2.481879792020552600e+02
5.566936603368164566e-02 2.396821620408739477e+02
5.670991493034702874e-02 2.327917594764796831e+02
5.775046382701241182e-02 2.263564361415860162e+02
5.879101272367779490e-02 2.204955827976370415e+02
5.983156162034317799e-02 2.147707711527658319e+02
6.087211051700856107e-02 2.083185987415578495e+02
6.191265941367394415e-02 2.022393265793420198e+02
6.295320831033933417e-02 1.957665969512803201e+02
6.399375720700471726e-02 1.893919802085950437e+02
6.503430610367010034e-02 1.815470662728952789e+02
6.607485500033548342e-02 1.745546633032557224e+02
6.711540389700086651e-02 1.698826731681854767e+02
6.815595279366624959e-02 1.645136415594720631e+02
6.919650169033163267e-02 1.574190543613080706e+02
7.023705058699701576e-02 1.505345185443921139e+02
7.127759948366239884e-02 1.454293767358798846e+02
7.231814838032778192e-02 1.395652946982785068e+02
7.335869727699316500e-02 1.334511860300863475e+02
7.439924617365854809e-02 1.295583242052696846e+02
7.543979507032393117e-02 1.251394419559663334e+02
7.648034396698931425e-02 1.203153768180272607e+02
7.752089286365469734e-02 1.161689778953132475e+02
7.856144176032008042e-02 1.114392905484290281e+02
7.960199065698546350e-02 1.083950877376264543e+02
8.064253955365084658e-02 1.048441437601069026e+02
8.168308845031622967e-02 1.031643128142125079e+02
8.272363734698161275e-02 1.077026273474972839e+02
8.376418624364699583e-02 1.316735031914427907e+02
8.480473514031239279e-02 1.815463336420439191e+02
8.584528403697777588e-02 2.223891963033375418e+02
8.688583293364315896e-02 2.484418386244157659e+02
8.792638183030854204e-02 3.307006328092797389e+02
8.896693072697392513e-02 5.738832931083353515e+02
9.000747962363930821e-02 8.477256490690764394e+02
9.104802852030469129e-02 7.523518518491134728e+02
9.208857741697007437e-02 4.411378008125487895e+02
9.312912631363545746e-02 2.683858644139471039e+02
9.416967521030084054e-02 2.091276294387367614e+02
9.521022410696622362e-02 1.809584216235706720e+02
9.625077300363160671e-02 1.599409081664297787e+02
9.729132190029698979e-02 1.407802474974587312e+02
9.833187079696237287e-02 1.229370340661990326e+02
9.937241969362775595e-02 1.093991086090861558e+02
1.004129685902931390e-01 9.976621870346345133e+01
1.014535174869585221e-01 9.753345037010154783e+01
1.024940663836239052e-01 1.098502934005375096e+02
1.035346152802892883e-01 1.289841971115389470e+02
1.045751641769546714e-01 1.203534017502913400e+02
1.056157130736200545e-01 8.206074499505743347e+01
1.066562619702854375e-01 4.920774349006291715e+01
1.076968108669508206e-01 3.273763011350942520e+01
1.087373597636162037e-01 2.474871311767268622e+01
1.097779086602815868e-01 2.071761675979982442e+01
1.108184575569469699e-01 1.767788172395544422e+01
1.118590064536123529e-01 1.472606243131397719e+01
1.128995553502777360e-01 1.227330130639030870e+01
1.139401042469431191e-01 1.103019643249641746e+01
1.149806531436085022e-01 9.081251389092919624e+00
1.160212020402738853e-01 7.521065605195367709e+00
1.170617509369392684e-01 7.355763647443652076e+00
1.181022998336046514e-01 6.596837284592425021e+00
1.191428487302700345e-01 5.684417526725411562e+00
1.201833976269354176e-01 5.322529660066230406e+00
1.212239465236008007e-01 4.549798369029581124e+00
1.222644954202661838e-01 3.464126713306768579e+00
1.233050443169315669e-01 2.798517733762260207e+00
1.243455932135969499e-01 2.633714546464865691e+00
1.253861421102623330e-01 2.271032369320550970e+00
1.264266910069277161e-01 1.879970684661969926e+00
1.274672399035930992e-01 1.933641878190613284e+00
1.285077888002584823e-01 1.650259789045342984e+00
1.295483376969238654e-01 1.418009148285186427e+00
1.305888865935892484e-01 1.188784854334272723e+00
1.316294354902546315e-01 7.265873389631423152e-01
1.326699843869200146e-01 9.814534427165071406e-01
1.337105332835853977e-01 1.053902896395428002e+00
1.347510821802507808e-01 1.751074938390701163e+00
1.357916310769161639e-01 1.432860391813839840e+00
1.368321799735815469e-01 1.421972179688104632e+00
1.378727288702469300e-01 1.311906559378300585e+00
1.389132777669123131e-01 1.551126589757373608e+00
1.399538266635776962e-01 1.715421573794195353e+00
1.409943755602430793e-01 1.803481270665976410e+00
1.420349244569084624e-01 2.408875643518889831e+00
1.430754733535738454e-01 2.835344191040256590e+00
1.441160222502392285e-01 3.620618671373989628e+00
1.451565711469046116e-01 6.557677518774326586e+00
1.461971200435699947e-01 1.229954569581300206e+01
1.472376689402353778e-01 1.577376142846165408e+01
1.482782178369007609e-01 1.397389276822008242e+01
1.493187667335661439e-01 8.944587549424255712e+00
1.503593156302315270e-01 6.444460941699873047e+00
1.513998645268969101e-01 5.875662435553081764e+00
1.524404134235622932e-01 5.281144422316806697e+00
1.534809623202276763e-01 5.071440381967796895e+00
1.545215112168930593e-01 5.282978203255098038e+00
1.555620601135584424e-01 5.232820147680214973e+00
1.566026090102238255e-01 4.992729800955210351e+00
1.576431579068892086e-01 5.582986977785154181e+00
1.586837068035545917e-01 5.958111171795835048e+00
1.597242557002199748e-01 5.902674067823035386e+00
1.607648045968853578e-01 5.773899595748893887e+00
1.618053534935507409e-01 5.983838808971718493e+00
1.628459023902161240e-01 5.849424721021058815e+00
1.638864512868815071e-01 6.260712181286663736e+00
1.649270001835468902e-01 6.573968784888869266e+00
1.659675490802122733e-01 6.669768977974150914e+00
1.670080979768776563e-01 6.936140821101623999e+00
1.680486468735430672e-01 7.961066094926160019e+00
1.690891957702084503e-01 1.058755594213363338e+01
1.701297446668738333e-01 1.683727007047374258e+01
1.711702935635392164e-01 2.930822572606606258e+01
1.722108424602045995e-01 4.208832785800141352e+01
1.732513913568699826e-01 4.234972074518548624e+01
1.742919402535353657e-01 3.104932346190348369e+01
1.753324891502007488e-01 2.014230100860495298e+01
1.763730380468661318e-01 1.422603330046717218e+01
1.774135869435315149e-01 1.174878837219575445e+01
1.784541358401968980e-01 1.221015137343795232e+01
1.794946847368622811e-01 1.339369095084071404e+01
1.805352336335276642e-01 1.336380718595651729e+01
1.815757825301930473e-01 1.079790081813941072e+01
1.826163314268584303e-01 7.889009923010192438e+00
1.836568803235238134e-01 5.987943992238491830e+00
1.846974292201891965e-01 4.652687270667051678e+00
1.857379781168545796e-01 4.256822413627155299e+00
1.867785270135199627e-01 3.942437602697069110e+00
1.878190759101853458e-01 3.744038244355415657e+00
1.888596248068507288e-01 3.698179345644007299e+00
1.899001737035161119e-01 3.543741857586049093e+00
1.909407226001814950e-01 3.055998950603175501e+00
1.919812714968468781e-01 2.979419081572515893e+00
1.930218203935122612e-01 2.673848807473341083e+00
1.940623692901776443e-01 2.545322756092705418e+00
1.951029181868430273e-01 2.163656438071171806e+00
1.961434670835084104e-01 2.204977171987536622e+00
1.971840159801737935e-01 2.078968721589980362e+00
1.982245648768391766e-01 2.074794872191553452e+00
1.992651137735045597e-01 1.858245190206620379e+00
2.003056626701699428e-01 2.035304068204478511e+00
2.013462115668353813e-01 2.225643886023217277e+00
2.023867604635007644e-01 2.133732380489647085e+00
2.034273093601661475e-01 1.689592562157010036e+00
2.044678582568315306e-01 1.812101101265525926e+00
2.055084071534969137e-01 1.706274317320630729e+00
2.065489560501622968e-01 1.762320609128884996e+00
2.075895049468276798e-01 1.814211369476129931e+00
2.086300538434930629e-01 1.526995648443509879e+00
2.096706027401584460e-01 1.202693964824842254e+00
2.107111516368238291e-01 1.091502910959277983e+00
2.117517005334892122e-01 1.132205732329929049e+00
2.127922494301545953e-01 6.467790261721049205e-01
2.138327983268199783e-01 6.687809114034735103e-01
2.148733472234853614e-01 7.613958134325642391e-01
2.159138961201507445e-01 7.197114104343462770e-01
2.169544450168161276e-01 6.483770758560538638e-01
2.179949939134815107e-01 7.279641477218916634e-01
2.190355428101468938e-01 7.130204862311941838e-01
2.200760917068122768e-01 7.001387515913357618e-01
2.211166406034776599e-01 6.591922087014374654e-01
2.221571895001430430e-01 6.350175524853263198e-01
2.231977383968084261e-01 4.284001903803620337e-01
2.242382872934738092e-01 1.704848416634270336e-01
2.252788361901391923e-01 3.519731438313655758e-01
2.263193850868045753e-01 4.229168789047861310e-01
2.273599339834699584e-01 2.513243152523969570e-01
2.284004828801353415e-01 3.682427125567038217e-01
2.294410317768007246e-01 5.219067561339123529e-01
2.304815806734661077e-01 9.226059017470689128e-01
2.315221295701314908e-01 8.703705380293342841e-01
2.325626784667968738e-01 9.573039929180886531e-01
2.336032273634622569e-01 6.903543123877682319e-01
2.346437762601276400e-01 5.515638308901102960e-01
2.356843251567930231e-01 6.110577727287669347e-01
2.367248740534584062e-01 5.411135712407002529e-01
2.377654229501237892e-01 3.706692426492743664e-01
2.388059718467891723e-01 2.573824946767118149e-01
2.398465207434545554e-01 3.662277782171052820e-01
2.408870696401199385e-01 7.600111645589251452e-01
2.419276185367853216e-01 7.338734911377216008e-01
2.429681674334507047e-01 5.434061965821612716e-01
2.440087163301160877e-01 6.800927114845798371e-01
2.450492652267814708e-01 7.080079585423852961e-01
2.460898141234468539e-01 6.298619730253172122e-01
2.471303630201122370e-01 8.053987360718082300e-01
2.481709119167776201e-01 7.179951907452100102e-01
2.492114608134430032e-01 6.797524780904105057e-01
2.502520097101083585e-01 8.106149614005140336e-01
2.512925586067737416e-01 1.019096696166197802e+00
2.523331075034391247e-01 1.203122189976657097e+00
2.533736564001045077e-01 1.772431838934064530e+00
2.544142052967698908e-01 2.204204353956384921e+00
2.554547541934352739e-01 2.289113426602327195e+00
2.564953030901006570e-01 2.138427743962111549e+00
2.575358519867660401e-01 1.911850240346264940e+00
2.585764008834314231e-01 1.584933912650161147e+00
2.596169497800968062e-01 1.336004769676897297e+00
2.606574986767621893e-01 1.383369637971846089e+00
2.616980475734275724e-01 1.303552724614871039e+00
2.627385964700929555e-01 1.366794050802194960e+00
2.637791453667583386e-01 1.259989969279594391e+00
2.648196942634237216e-01 1.176509465532983967e+00
2.658602431600891047e-01 1.271887518074088064e+00
2.669007920567544878e-01 1.732446380098881633e+00
2.679413409534198709e-01 1.865771958837704858e+00
2.689818898500852540e-01 2.162909080487001034e+00
2.700224387467506371e-01 2.816547147768357462e+00
2.710629876434160201e-01 2.870924711868944712e+00
2.721035365400814032e-01 2.161093149073206376e+00
2.731440854367467863e-01 1.746293574033046525e+00
2.741846343334121694e-01 1.763004538817504852e+00
2.752251832300775525e-01 1.593600654730888522e+00
2.762657321267429356e-01 1.319655963183780756e+00
2.773062810234083186e-01 1.064639516536246333e+00
2.783468299200737017e-01 8.546271688051696458e-01
2.793873788167390848e-01 1.081204267805709662e+00
2.804279277134044679e-01 8.483538649418882471e-01
2.814684766100698510e-01 7.454435118258615489e-01
2.825090255067352341e-01 9.080372193412671322e-01
2.835495744034006171e-01 1.255589798466679952e+00
2.845901233000660002e-01 1.158835538752974514e+00
2.856306721967313833e-01 9.017266037521665112e-01
2.866712210933967664e-01 6.010345820827431851e-01
2.877117699900621495e-01 8.894371365336901647e-01
2.887523188867275326e-01 1.145606695873624403e+00
2.897928677833929156e-01 1.006893857451778729e+00
2.908334166800582987e-01 6.974408294032592437e-01
2.918739655767236818e-01 7.060435785106129458e-01
2.929145144733890649e-01 9.488726499714204010e-01
2.939550633700544480e-01 8.546834421258218129e-01
2.949956122667198311e-01 6.450936709616783560e-01
2.960361611633852141e-01 7.370935386584811511e-01
2.970767100600505972e-01 8.036281659433726077e-01
2.981172589567159803e-01 5.506599404403758058e-01
2.991578078533813634e-01 6.755030294112316369e-01
3.001983567500468020e-01 5.172389305406568383e-01
3.012389056467121851e-01 6.066053969446016936e-01
3.022794545433775681e-01 8.818268392664130317e-01
3.033200034400429512e-01 7.240386554410669362e-01
3.043605523367083343e-01 4.187447699659152534e-01
3.054011012333737174e-01 4.588241634313305894e-01
3.064416501300391005e-01 5.545170553743368203e-01
3.074821990267044836e-01 5.753709824538688622e-01
3.085227479233698666e-01 5.533939870198629762e-01
3.095632968200352497e-01 5.539943357246421840e-01
3.106038457167006328e-01 4.831524635259789591e-01
3.116443946133660159e-01 5.584755593961290288e-01
3.126849435100313990e-01 2.562496017590696340e-01
3.137254924066967821e-01 2.031899081749948266e-01
3.147660413033621651e-01 4.168933902845850525e-01
3.158065902000275482e-01 4.340946427005434316e-01
3.168471390966929313e-01 6.341772503166431818e-01
3.178876879933583144e-01 4.398308961590124966e-01
3.189282368900236975e-01 2.451135252527905095e-01
3.199687857866890806e-01 1.932334162651834220e-01
3.210093346833544636e-01 3.820644218041735485e-01
3.220498835800198467e-01 4.449478257073060661e-01
3.230904324766852298e-01 2.901901788858509690e-01
3.241309813733506129e-01 1.833031161890517069e-01
3.251715302700159960e-01 4.368533578493867253e-01
3.262120791666813790e-01 3.653907299132583830e-01
3.272526280633467621e-01 4.160033668338023460e-01
3.282931769600121452e-01 5.156395860228002448e-01
3.293337258566775283e-01 4.425485685982515349e-01
3.303742747533429114e-01 4.266710471735528643e-01
3.314148236500082945e-01 4.812851687358872255e-01
3.324553725466736775e-01 3.504293960821804887e-01
3.334959214433390606e-01 4.854726873066965709e-01
3.345364703400044437e-01 3.074844174952886533e-01
3.355770192366698268e-01 2.363971134177624833e-01
3.366175681333352099e-01 5.636923525633257270e-01
3.376581170300005930e-01 4.843822546579303889e-01
3.386986659266659760e-01 6.632308364410093304e-01
3.397392148233313591e-01 6.218996046183491444e-01
3.407797637199967422e-01 7.203970999987774348e-01
3.418203126166621253e-01 7.137382848317450623e-01
3.428608615133275084e-01 5.975520483338421229e-01
3.439014104099928915e-01 5.850059082426746215e-01
3.449419593066582745e-01 7.807628093455996066e-01
3.459825082033236576e-01 6.917272852352027712e-01
3.470230570999890407e-01 6.787450031622626057e-01
3.480636059966544238e-01 6.559661531981895166e-01
3.491041548933198069e-01 5.474104833273933934e-01
3.501447037899851900e-01 4.401348283615114099e-01
3.511852526866505730e-01 4.298037401007945846e-01
3.522258015833159561e-01 7.236564535629632644e-01
3.532663504799813392e-01 6.743152607945752663e-01
3.543068993766467223e-01 5.542118308326529075e-01
3.553474482733121054e-01 7.076300875902070686e-01
3.563879971699774885e-01 5.538604226728836011e-01
3.574285460666428715e-01 6.611004968676610360e-01
3.584690949633082546e-01 8.570324056491038789e-01
3.595096438599736377e-01 6.697160777688964117e-01
3.605501927566390208e-01 6.968682068821934195e-01
3.615907416533044039e-01 6.210671323068233107e-01
3.626312905499697870e-01 5.779195696370145185e-01
3.636718394466351700e-01 6.562186937014473642e-01
3.647123883433005531e-01 7.526765833022395213e-01
3.657529372399659362e-01 6.996029153007938817e-01
3.667934861366313193e-01 6.193967701866576192e-01
3.678340350332967024e-01 5.263974688557553350e-01
3.688745839299620854e-01 4.311454518984731976e-01
3.699151328266274685e-01 5.981314389689238453e-01
3.709556817232928516e-01 6.066988090360858621e-01
3.719962306199582347e-01 8.938860700416064731e-01
3.730367795166236178e-01 9.681533767641319344e-01
3.740773284132890009e-01 7.847037067085125273e-01
3.751178773099543839e-01 5.725085843490838045e-01
3.761584262066197670e-01 7.631366227527180968e-01
3.771989751032851501e-01 6.788566160581517295e-01
3.782395239999505332e-01 6.349372851811345697e-01
3.792800728966159163e-01 5.105863933390537568e-01
3.803206217932812994e-01 2.837582631089894392e-01
3.813611706899466824e-01 5.426505256484119855e-01
3.824017195866120655e-01 6.396378096963033499e-01
3.834422684832774486e-01 4.784412319102671063e-01
3.844828173799428317e-01 3.921426485784849092e-01
3.855233662766082148e-01 3.128743683007542131e-01
3.865639151732735979e-01 4.345614030829665353e-01
3.876044640699389809e-01 6.058966926642028739e-01
3.886450129666043640e-01 6.390318888660466712e-01
3.896855618632697471e-01 7.502559861667776886e-01
3.907261107599351302e-01 6.912467023248609621e-01
3.917666596566005133e-01 6.650650783032894253e-01
3.928072085532658964e-01 6.063448269167786009e-01
3.938477574499312794e-01 4.320785982768597933e-01
3.948883063465966625e-01 3.764711273123388935e-01
3.959288552432620456e-01 3.766015725633522493e-01
3.969694041399274287e-01 3.506175512101208369e-01
3.980099530365928118e-01 4.576905028965789768e-01
3.990505019332581949e-01 4.476264709815147569e-01
4.000910508299235779e-01 5.521558882880590602e-01
4.011315997265889610e-01 6.682810668558403222e-01
4.021721486232543441e-01 8.386279388476474139e-01
4.032126975199197272e-01 6.638586703307929326e-01
4.042532464165851103e-01 4.982910866723742060e-01
4.052937953132504934e-01 6.685149039277433758e-01
4.063343442099158764e-01 5.146167160086463355e-01
4.073748931065812595e-01 5.541573421266541288e-01
4.084154420032466426e-01 4.716309249841295070e-01
4.094559908999120257e-01 2.704816673505767710e-01
4.104965397965774088e-01 4.082793169480147810e-01
4.115370886932427918e-01 3.635000725585655346e-01
4.125776375899081749e-01 2.151644947710060762e-01
4.136181864865735580e-01 2.878512797745429452e-01
4.146587353832389411e-01 2.619326913088180220e-01
4.156992842799043242e-01 3.925514725585053100e-01
4.167398331765697073e-01 4.989057264115004386e-01
4.177803820732350903e-01 4.260433092189863657e-01
4.188209309699004734e-01 5.814942892341825598e-01
4.198614798665658565e-01 5.069711145462321156e-01
4.209020287632312396e-01 3.964365389075474866e-01
4.219425776598966227e-01 5.298370922026158780e-01
4.229831265565620058e-01 5.731942816889663561e-01
4.240236754532273888e-01 6.987922660811918263e-01
4.250642243498927719e-01 5.828641120348336813e-01
4.261047732465581550e-01 5.007472027164077133e-01
4.271453221432235381e-01 4.679388276824809623e-01
4.281858710398889212e-01 5.648146161255773734e-01
4.292264199365543043e-01 4.731244638219784804e-01
4.302669688332196873e-01 4.107811267906313901e-01
4.313075177298850704e-01 5.571269217754100112e-01
4.323480666265504535e-01 6.461139633673766980e-01
4.333886155232158366e-01 6.278601660095262105e-01
4.344291644198812197e-01 6.448349405673781121e-01
