# q (1/Angstrom), Intensity (arb)
2.067508526570814575e-02 5.905632433171052753e+02
2.163671713586316769e-02 6.171087256962783840e+02
2.259834900601819310e-02 6.420272412126424797e+02
2.355998087617321851e-02 6.490803258656249000e+02
2.452161274632824739e-02 6.517344977637230841e+02
2.548324461648326933e-02 6.512430896796143998e+02
2.644487648663829821e-02 6.525030872791318188e+02
2.740650835679332709e-02 6.521441993096109400e+02
2.836814022694834903e-02 6.485173865344529531e+02
2.932977209710337443e-02 6.443374563506800996e+02
3.029140396725839637e-02 6.430043514178330497e+02
3.125303583741342178e-02 6.408513152861937670e+02
3.221466770756845066e-02 6.324951030275940411e+02
3.317629957772347260e-02 6.245830917011777501e+02
3.413793144787850148e-02 6.208669160379713503e+02
3.509956331803352342e-02 6.166151257121038043e+02
3.606119518818855230e-02 6.135807660439882056e+02
3.702282705834358117e-02 6.102468802921486031e+02
3.798445892849860311e-02 6.026958728497583024e+02
3.894609079865363199e-02 5.962964601647748850e+02
3.990772266880865393e-02 5.916059865512249871e+02
4.086935453896367587e-02 5.853529653336622687e+02
4.183098640911870475e-02 5.778979939527755505e+02
4.279261827927372669e-02 5.694076740027282995e+02
4.375425014942875557e-02 5.603411673862246971e+02
4.471588201958377751e-02 5.513088990840457200e+02
4.567751388973880639e-02 5.444991788220997933e+02
4.663914575989382832e-02 5.353766819291123511e+02
4.760077763004885720e-02 5.283070146802485851e+02
4.856240950020387914e-02 5.221819924674323374e+02
4.952404137035890108e-02 5.127966979110072998e+02
5.048567324051392302e-02 5.049731110082465193e+02
5.144730511066895190e-02 4.954118112165110119e+02
5.240893698082397384e-02 4.860238586510795926e+02
5.337056885097899578e-02 4.755968220725288234e+02
5.433220072113403160e-02 4.638470475865854041e+02
5.529383259128905354e-02 4.540736936480619761e+02
5.625546446144407547e-02 4.436996496757611226e+02
5.721709633159910435e-02 4.337262146006664807e+02
5.817872820175412629e-02 4.230647543712215679e+02
5.914036007190914823e-02 4.131982274880845125e+02
6.010199194206417017e-02 4.014673614920972682e+02
6.106362381221920599e-02 3.910264917660987862e+02
6.202525568237422793e-02 3.829558228869505001e+02
6.298688755252924987e-02 3.702277427475458467e+02
6.394851942268428568e-02 3.594823623956145298e+02
6.491015129283930762e-02 3.507058049490364624e+02
6.587178316299432956e-02 3.405904415149337296e+02
6.683341503314935150e-02 3.310305578342468493e+02
6.779504690330438732e-02 3.227433722515978616e+02
6.875667877345940926e-02 3.120694632641476005e+02
6.971831064361443120e-02 3.013175771113288874e+02
7.067994251376945314e-02 2.911238779137925121e+02
7.164157438392447508e-02 2.841836810721254665e+02
7.260320625407949702e-02 2.750167016286620765e+02
7.356483812423453283e-02 2.652147224752134775e+02
7.452646999438955477e-02 2.571690191156901051e+02
7.548810186454457671e-02 2.479303414647822024e+02
7.644973373469959865e-02 2.389697816668432324e+02
7.741136560485463447e-02 2.309977978111210462e+02
7.837299747500965641e-02 2.232599887993932271e+02
7.933462934516467835e-02 2.153262330167526102e+02
8.029626121531971417e-02 2.075142209175530752e+02
8.125789308547473611e-02 1.982714419903575731e+02
8.221952495562975805e-02 1.905258322976025056e+02
8.318115682578479386e-02 1.843489924781230798e+02
8.414278869593981580e-02 1.781661314878927271e+02
8.510442056609483774e-02 1.696889917843197964e+02
8.606605243624985968e-02 1.615688615877693337e+02
8.702768430640489550e-02 1.548545879388195772e+02
8.798931617655991744e-02 1.489360859089572386e+02
8.895094804671493938e-02 1.424930002208262181e+02
8.991257991686996132e-02 1.360838523590322779e+02
9.087421178702498326e-02 1.296299161586295838e+02
9.183584365718000520e-02 1.230293546320135789e+02
9.279747552733502713e-02 1.174544885150996549e+02
9.375910739749006295e-02 1.113262590452598602e+02
9.472073926764508489e-02 1.057482726831774187e+02
9.568237113780010683e-02 1.010378390526832675e+02
9.664400300795514265e-02 9.612017674370133591e+01
9.760563487811016459e-02 9.097370349399560041e+01
9.856726674826518653e-02 8.595504059733093527e+01
9.952889861842022234e-02 8.207594983350567475e+01
1.004905304885752443e-01 7.710810680240038550e+01
1.014521623587302801e-01 7.255128759246301229e+01
1.024137942288853020e-01 6.832803012482199279e+01
1.033754260990403240e-01 6.489367550920312055e+01
1.043370579691953459e-01 6.079193132838067015e+01
1.052986898393503817e-01 5.686547777077827703e+01
1.062603217095053898e-01 5.372537783062757910e+01
1.072219535796604256e-01 5.078820003535017236e+01
1.081835854498154614e-01 4.760403497629928893e+01
1.091452173199704695e-01 4.410224834890460244e+01
1.101068491901255053e-01 4.132433415891075157e+01
1.110684810602805411e-01 3.817220494339818515e+01
1.120301129304355492e-01 3.481596830557153055e+01
1.129917448005905850e-01 3.213518991384326284e+01
1.139533766707456208e-01 3.022554478006183132e+01
1.149150085409006289e-01 2.818337613986004797e+01
1.158766404110556647e-01 2.620658222725705855e+01
1.168382722812106728e-01 2.361645722989601381e+01
1.177999041513657086e-01 2.138616655591494364e+01
1.187615360215207305e-01 1.974471914018801755e+01
1.197231678916757525e-01 1.803213349372644103e+01
1.206847997618307744e-01 1.658324346083938750e+01
1.216464316319858102e-01 1.487814916606542681e+01
1.226080635021408183e-01 1.307966385980287782e+01
1.235696953722958541e-01 1.182801722029003599e+01
1.245313272424508899e-01 1.073831339550468300e+01
1.254929591126059119e-01 9.477505780360804266e+00
1.264545909827609338e-01 8.795851101722188758e+00
1.274162228529159557e-01 8.063493438891732978e+00
1.283778547230709777e-01 7.064209506156164053e+00
1.293394865932259996e-01 6.347345730406235731e+00
1.303011184633810493e-01 5.369754890036496420e+00
1.312627503335360435e-01 4.956278390681958967e+00
1.322243822036910932e-01 4.502640350277477665e+00
1.331860140738460874e-01 3.648989121048710871e+00
1.341476459440011371e-01 3.592401301488884258e+00
1.351092778141561590e-01 3.166759899254078192e+00
1.360709096843111809e-01 2.619959948790508975e+00
1.370325415544662029e-01 1.689195962203545065e+00
1.379941734246212526e-01 1.658367918931286766e+00
1.389558052947762468e-01 1.430692713019222850e+00
1.399174371649312965e-01 1.041833974276073604e+00
1.408790690350863184e-01 1.132179342997591931e+00
1.418407009052413403e-01 1.100369356034295976e+00
1.428023327753963623e-01 1.040396042875531890e+00
1.437639646455513842e-01 1.079585719674476252e+00
1.447255965157064062e-01 1.226872092910809897e+00
1.456872283858614281e-01 1.253691375181400502e+00
1.466488602560164778e-01 1.266709203507755177e+00
1.476104921261714720e-01 9.435237291262517090e-01
1.485721239963265217e-01 1.135983115361529627e+00
1.495337558664815436e-01 1.334732244776485999e+00
1.504953877366365655e-01 1.435694436753362169e+00
1.514570196067915875e-01 1.770724207889081470e+00
1.524186514769466094e-01 1.833132255225731200e+00
1.533802833471016314e-01 1.937092759551610754e+00
1.543419152172566811e-01 2.236242610070188874e+00
1.553035470874116752e-01 2.324706030538500556e+00
1.562651789575667249e-01 2.483329816792142708e+00
1.572268108277217469e-01 2.782659585491284560e+00
1.581884426978767688e-01 2.620174769315191554e+00
1.591500745680317908e-01 2.525833663574633903e+00
1.601117064381868405e-01 3.070253942674774805e+00
1.610733383083418346e-01 3.129007020093446556e+00
1.620349701784968843e-01 3.068991959705762440e+00
1.629966020486519063e-01 3.359298413632842539e+00
1.639582339188069282e-01 3.964186789082919660e+00
1.649198657889619501e-01 4.044007432417672021e+00
1.658814976591169721e-01 4.139384633189710172e+00
1.668431295292719940e-01 4.100389609399748281e+00
1.678047613994270160e-01 4.383373564880947981e+00
1.687663932695820379e-01 4.336692906734235464e+00
1.697280251397370598e-01 4.278852565107577277e+00
1.706896570098921095e-01 4.656028996133318998e+00
1.716512888800471037e-01 4.724088140900075672e+00
1.726129207502021534e-01 5.111487929666207464e+00
1.735745526203571754e-01 5.349772218012290637e+00
1.745361844905121973e-01 5.252062043011463288e+00
1.754978163606672192e-01 5.240772242477284237e+00
1.764594482308222689e-01 5.293751408599142394e+00
1.774210801009772631e-01 5.181536911331566131e+00
1.783827119711323128e-01 5.324144118551316751e+00
1.793443438412873348e-01 5.531124701242497110e+00
1.803059757114423567e-01 5.484338507435563059e+00
1.812676075815973786e-01 5.415119732047223522e+00
1.822292394517524006e-01 5.590093158707965415e+00
1.831908713219074225e-01 5.635413466528405024e+00
1.841525031920624444e-01 5.486319888431616221e+00
1.851141350622174664e-01 5.595949956532976444e+00
1.860757669323724883e-01 5.480815394902592175e+00
1.870373988025275380e-01 5.416352144461285434e+00
1.879990306726825322e-01 5.358672143570505142e+00
1.889606625428375819e-01 5.207314370341471488e+00
1.899222944129926038e-01 5.130410242230414752e+00
1.908839262831476258e-01 5.122354328499845622e+00
1.918455581533026477e-01 5.130599728339426235e+00
1.928071900234576974e-01 4.976002023827412302e+00
1.937688218936126916e-01 4.850260149052964209e+00
1.947304537637677413e-01 4.896253098823141414e+00
1.956920856339227632e-01 4.671971239776301132e+00
1.966537175040777852e-01 4.821786202031464796e+00
1.976153493742328071e-01 4.886229386078191794e+00
1.985769812443878291e-01 4.423763725957574167e+00
1.995386131145428510e-01 4.186795805070595122e+00
2.005002449846978729e-01 3.887238390580773029e+00
2.014618768548528949e-01 3.788688512175870216e+00
2.024235087250079168e-01 4.027313632855786807e+00
2.033851405951629665e-01 3.829943798891633833e+00
2.043467724653179884e-01 3.717775502741755389e+00
2.053084043354730381e-01 3.631123351172885094e+00
2.062700362056280046e-01 3.516339649813971846e+00
2.072316680757830543e-01 3.343815115409011440e+00
2.081932999459380762e-01 2.993386132441148817e+00
2.091549318160931259e-01 2.825167404147979511e+00
2.101165636862481478e-01 2.820898810407150847e+00
2.110781955564031698e-01 2.629527785454069289e+00
2.120398274265581640e-01 2.455541483151385762e+00
2.130014592967132137e-01 2.319595904781607487e+00
2.139630911668682356e-01 2.282573157948782239e+00
2.149247230370232575e-01 2.265856716181378516e+00
2.158863549071783072e-01 2.383853878083019850e+00
2.168479867773333014e-01 2.201074008421112893e+00
2.178096186474883234e-01 2.093878245967442098e+00
2.187712505176433453e-01 1.822218615933287822e+00
2.197328823877983950e-01 1.947526925295356648e+00
2.206945142579534169e-01 1.560724460733130314e+00
2.216561461281084666e-01 1.137402798364554712e+00
2.226177779982634330e-01 1.163020253854575969e+00
2.235794098684184827e-01 1.364696692271550660e+00
2.245410417385735047e-01 1.020207493136087606e+00
2.255026736087285544e-01 1.211356318193285375e+00
2.264643054788835763e-01 1.141035097946424770e+00
2.274259373490385983e-01 1.050771473373732334e+00
2.283875692191935924e-01 8.284272641459438091e-01
2.293492010893486421e-01 7.509814348523917715e-01
2.303108329595036641e-01 8.631176106626590183e-01
2.312724648296586860e-01 7.683816830242307105e-01
2.322340966998137357e-01 5.445126455422482081e-01
2.331957285699687299e-01 2.665969814881812283e-01
2.341573604401237518e-01 2.545217640592625230e-01
2.351189923102787738e-01 2.054539012792382380e-01
2.360806241804338235e-01 1.781080411558448873e-01
2.370422560505888454e-01 3.723284361092176198e-01
2.380038879207438951e-01 3.379936940315069194e-01
2.389655197908988615e-01 1.085876477733087597e-01
2.399271516610539112e-01 2.406630826623512576e-01
2.408887835312089332e-01 7.678540118849745966e-01
2.418504154013639829e-01 5.028561805166127385e-01
2.428120472715190048e-01 3.623336606539915294e-01
2.437736791416740267e-01 3.024196969147681102e-01
2.447353110118290209e-01 2.308305664074374874e-01
2.456969428819840706e-01 1.334483501126868532e-01
2.466585747521390926e-01 3.355406645408436361e-01
2.476202066222941145e-01 3.759433372660723194e-01
2.485818384924491642e-01 3.320931554426564958e-01
2.495434703626041584e-01 1.338085196164158219e-01
2.505051022327591803e-01 9.302981112118757778e-02
2.514667341029142023e-01 2.536712545683563746e-01
2.524283659730692242e-01 3.148550388921442789e-01
2.533899978432243016e-01 2.800962852943946757e-01
2.543516297133793236e-01 3.787025049671939314e-01
2.553132615835342900e-01 1.618006454684106643e-01
2.562748934536893120e-01 2.429808286359893543e-01
2.572365253238443894e-01 3.278601333098229986e-01
2.581981571939994113e-01 3.145051479059688404e-01
2.591597890641544333e-01 3.512156468740101900e-01
2.601214209343094552e-01 4.170505591638047349e-01
2.610830528044644772e-01 3.683852374584972722e-01
2.620446846746194991e-01 4.761672825555010036e-01
2.630063165447745210e-01 5.315620296963068370e-01
2.639679484149295430e-01 3.955732802769631462e-01
2.649295802850845649e-01 4.826433620927161883e-01
2.658912121552395869e-01 7.275157204723221582e-01
2.668528440253946088e-01 8.355701210115817901e-01
2.678144758955496307e-01 9.784757739948091171e-01
2.687761077657046527e-01 9.546361974427881592e-01
2.697377396358597301e-01 6.948363835623077023e-01
2.706993715060147521e-01 6.172004134336894765e-01
2.716610033761697185e-01 6.765901803959799565e-01
2.726226352463247404e-01 5.829279335333907852e-01
2.735842671164798179e-01 4.285627629372612546e-01
2.745458989866348398e-01 6.718346426818371242e-01
2.755075308567898618e-01 8.344709996529182661e-01
2.764691627269448837e-01 8.464868655981625523e-01
2.774307945970999056e-01 8.028467500773430743e-01
2.783924264672549276e-01 8.767840017018535548e-01
2.793540583374099495e-01 9.297217230168648427e-01
2.803156902075649715e-01 6.973905821112893477e-01
2.812773220777199934e-01 7.907163702200961097e-01
2.822389539478750153e-01 9.733961041123784241e-01
2.832005858180300373e-01 9.994162648295592533e-01
2.841622176881850592e-01 1.062718648903604901e+00
2.851238495583400812e-01 9.644226581948558419e-01
2.860854814284951586e-01 7.498479769706634102e-01
2.870471132986501805e-01 7.314868101427798308e-01
2.880087451688051470e-01 9.917878138660007892e-01
2.889703770389601689e-01 9.073821315342449623e-01
2.899320089091152464e-01 9.089005924105677536e-01
2.908936407792702683e-01 9.463687539819751748e-01
2.918552726494252902e-01 9.980368720737295973e-01
2.928169045195803122e-01 9.569477340047534142e-01
2.937785363897353341e-01 9.111099963013984393e-01
2.947401682598903561e-01 9.784336007584144568e-01
2.957018001300453780e-01 7.906145924214520448e-01
2.966634320002003999e-01 5.699459862704294721e-01
2.976250638703554219e-01 5.492552532178009983e-01
2.985866957405104993e-01 7.569195249298061867e-01
2.995483276106654658e-01 7.671701656165161864e-01
3.005099594808204877e-01 6.687345190248130677e-01
3.014715913509755651e-01 6.765531643717785926e-01
3.024332232211305871e-01 6.746650772269049412e-01
3.033948550912856090e-01 6.594002311288953422e-01
3.043564869614405755e-01 6.397791467140230282e-01
3.053181188315956529e-01 5.494023398487932752e-01
3.062797507017506748e-01 4.426990218238309183e-01
3.072413825719056968e-01 5.372245279720608835e-01
3.082030144420607187e-01 5.702662482513289888e-01
3.091646463122157407e-01 6.077852891046937600e-01
3.101262781823707626e-01 5.343097495197817182e-01
3.110879100525257845e-01 5.792265728506755806e-01
3.120495419226808065e-01 5.524989514996931916e-01
3.130111737928358284e-01 4.627358508759442657e-01
3.139728056629909059e-01 4.762166195810486613e-01
3.149344375331459278e-01 5.382405474839409010e-01
3.158960694033008942e-01 2.698660004706283644e-01
3.168577012734559162e-01 5.334683285209216308e-01
3.178193331436109936e-01 6.304373407371350879e-01
3.187809650137660156e-01 5.586820207894653834e-01
3.197425968839210375e-01 3.539125089406063296e-01
3.207042287540760039e-01 3.375500822753565444e-01
3.216658606242310814e-01 5.155229515578305666e-01
3.226274924943861033e-01 4.541867963347314685e-01
3.235891243645411253e-01 2.650574456060716955e-01
3.245507562346961472e-01 3.961085963878510086e-01
3.255123881048511691e-01 3.619778298293105934e-01
3.264740199750061911e-01 2.721819903342534985e-01
3.274356518451612130e-01 2.067704555226121954e-01
3.283972837153162350e-01 1.790872135081187366e-01
3.293589155854712569e-01 3.010898308007305957e-01
3.303205474556263344e-01 1.477975446178732000e-01
3.312821793257813563e-01 2.442130254377659071e-01
3.322438111959363227e-01 2.545123996452751669e-01
3.332054430660913447e-01 3.518799065387376857e-01
3.341670749362464221e-01 3.827117452949515553e-01
3.351287068064014441e-01 5.081788815147199045e-01
3.360903386765564660e-01 3.924336622638300298e-01
3.370519705467114324e-01 0.000000000000000000e+00
3.380136024168665099e-01 6.023467843897734042e-02
3.389752342870215318e-01 2.666199745326949255e-01
3.399368661571765537e-01 2.260367437626094045e-01
3.408984980273315757e-01 1.213292090157231939e-01
3.418601298974865976e-01 5.969351489556373735e-02
3.428217617676416196e-01 1.150908249214523948e-01
3.437833936377966415e-01 6.733557886704844009e-02
3.447450255079516634e-01 1.936363343555242977e-01
3.457066573781066854e-01 3.098592077380040166e-01
3.466682892482617628e-01 1.850238420999446021e-01
3.476299211184167848e-01 1.337842861103055725e-02
3.485915529885717512e-01 7.061982859097781784e-02
3.495531848587267731e-01 3.143859190420776883e-01
3.505148167288818506e-01 2.732089874978065325e-01
3.514764485990368725e-01 2.349645613161435165e-01
3.524380804691918945e-01 1.203640334966067371e-01
3.533997123393468609e-01 9.351843467521092634e-02
3.543613442095019384e-01 1.469513663906738543e-01
3.553229760796569603e-01 4.003404720863983357e-01
3.562846079498119822e-01 4.652499588878562520e-01
3.572462398199670042e-01 5.958447381193643366e-01
3.582078716901220261e-01 6.275177086352314859e-01
3.591695035602770480e-01 3.803077943143762241e-01
3.601311354304320700e-01 2.367552837760769080e-01
3.610927673005870919e-01 1.605182065513908185e-01
3.620543991707421139e-01 2.198508953211586459e-01
3.630160310408971913e-01 2.750488769535657241e-01
3.639776629110522133e-01 4.486062297842714486e-01
3.649392947812071797e-01 3.763483256124260379e-01
3.659009266513622016e-01 1.919253279238866128e-01
3.668625585215172791e-01 1.772239693186072884e-01
3.678241903916723010e-01 3.427289220424398763e-01
3.687858222618273230e-01 4.316876392471336032e-01
3.697474541319822894e-01 2.955911408281259867e-01
3.707090860021373668e-01 2.890281482085050868e-01
3.716707178722923888e-01 3.756537013082095200e-01
3.726323497424474107e-01 3.759627305038222289e-01
3.735939816126024327e-01 2.468982094801006610e-01
3.745556134827574546e-01 2.968511289474449200e-01
3.755172453529124765e-01 3.333075474166662389e-01
3.764788772230674985e-01 2.919276140481628090e-01
3.774405090932225204e-01 2.797127637445555592e-01
3.784021409633775423e-01 3.342065381968666316e-01
3.793637728335326198e-01 1.695415097000498861e-01
3.803254047036876417e-01 2.871716903525438624e-01
3.812870365738426082e-01 2.689823137985953849e-01
3.822486684439976301e-01 3.516826430868711384e-01
3.832103003141527076e-01 4.987180152911712128e-01
3.841719321843077295e-01 4.277412369970257089e-01
3.851335640544627514e-01 4.165156049736928878e-01
3.860951959246177734e-01 3.772779627667972591e-01
3.870568277947727953e-01 4.685851941891314709e-01
3.880184596649278173e-01 3.431234398698670418e-01
3.889800915350828392e-01 2.945307298079065106e-01
3.899417234052378611e-01 3.992399861769087011e-01
3.909033552753928831e-01 6.022983984877825492e-01
3.918649871455479050e-01 4.086950312482926506e-01
3.928266190157029270e-01 3.404856476558428824e-01
3.937882508858579489e-01 4.403299596007670402e-01
3.947498827560129708e-01 3.076989316579243905e-01
3.957115146261680483e-01 2.891397674046523036e-01
3.966731464963230702e-01 2.908172761787426452e-01
3.976347783664780366e-01 3.676151095775033184e-01
3.985964102366330586e-01 3.650749257420180527e-01
3.995580421067881360e-01 4.686389704130426992e-01
4.005196739769430470e-01 4.350222257181179941e-01
4.014813058470981244e-01 2.787599781661853626e-01
4.024429377172531463e-01 3.487851549048919253e-01
4.034045695874082238e-01 3.053450606488539165e-01
