# q (1/Angstrom), Intensity (arb)
2.067508526570814575e-02 5.963948504459751803e+02
2.163671713586316769e-02 6.227947087805717956e+02
2.259834900601819310e-02 6.413378355103550348e+02
2.355998087617321851e-02 6.500053467087784611e+02
2.452161274632824739e-02 6.512476782080861994e+02
2.548324461648326933e-02 6.493024601759293546e+02
2.644487648663829821e-02 6.479973475555214009e+02
2.740650835679332709e-02 6.470014539360380468e+02
2.836814022694834903e-02 6.482285891447316999e+02
2.932977209710337443e-02 6.458494865947899370e+02
3.029140396725839637e-02 6.408338872835943221e+02
3.125303583741342178e-02 6.356191250969956172e+02
3.221466770756845066e-02 6.300891214968331724e+02
3.317629957772347260e-02 6.245978894271411264e+02
3.413793144787850148e-02 6.220657689859436914e+02
3.509956331803352342e-02 6.184357098220170883e+02
3.606119518818855230e-02 6.171966384522163480e+02
3.702282705834358117e-02 6.131393272232662639e+02
3.798445892849860311e-02 6.022613906591781188e+02
3.894609079865363199e-02 5.958932277535112689e+02
3.990772266880865393e-02 5.909947040065818555e+02
4.086935453896367587e-02 5.841135343772181159e+02
4.183098640911870475e-02 5.741670121096158255e+02
4.279261827927372669e-02 5.653597246742393736e+02
4.375425014942875557e-02 5.586230672673015079e+02
4.471588201958377751e-02 5.519001352551548507e+02
4.567751388973880639e-02 5.437571615187767975e+02
4.663914575989382832e-02 5.348281177976991785e+02
4.760077763004885720e-02 5.274473965533522914e+02
4.856240950020387914e-02 5.193844058347494865e+02
4.952404137035890108e-02 5.109990888682674495e+02
5.048567324051392302e-02 5.030382865824844316e+02
5.144730511066895190e-02 4.915251383169888868e+02
5.240893698082397384e-02 4.823315224908354253e+02
5.337056885097899578e-02 4.728200444037753982e+02
5.433220072113403160e-02 4.630030917350218260e+02
5.529383259128905354e-02 4.521747157933212407e+02
5.625546446144407547e-02 4.413725764841368573e+02
5.721709633159910435e-02 4.294956141399476337e+02
5.817872820175412629e-02 4.199857314268307391e+02
5.914036007190914823e-02 4.122558608078642237e+02
6.010199194206417017e-02 4.012911710308364377e+02
6.106362381221920599e-02 3.906391860491456782e+02
6.202525568237422793e-02 3.806686285320084266e+02
6.298688755252924987e-02 3.690966325888904294e+02
6.394851942268428568e-02 3.591254891011162158e+02
6.491015129283930762e-02 3.501701650691584291e+02
6.587178316299432956e-02 3.393186505558466592e+02
6.683341503314935150e-02 3.294505859872595579e+02
6.779504690330438732e-02 3.209775256237197141e+02
6.875667877345940926e-02 3.108778967625187875e+02
6.971831064361443120e-02 3.022124063399357965e+02
7.067994251376945314e-02 2.942271431845729808e+02
7.164157438392447508e-02 2.841369127484895216e+02
7.260320625407949702e-02 2.736389239490353020e+02
7.356483812423453283e-02 2.656085938351205868e+02
7.452646999438955477e-02 2.566396469031685115e+02
7.548810186454457671e-02 2.480866968628976963e+02
7.644973373469959865e-02 2.395302729317895682e+02
7.741136560485463447e-02 2.303753976758713407e+02
7.837299747500965641e-02 2.216109936881949523e+02
7.933462934516467835e-02 2.141123083802476970e+02
8.029626121531971417e-02 2.064178975302911567e+02
8.125789308547473611e-02 1.990509079898949949e+02
8.221952495562975805e-02 1.911922239529469607e+02
8.318115682578479386e-02 1.825685829195181498e+02
8.414278869593981580e-02 1.744269247938722458e+02
8.510442056609483774e-02 1.677557022598599019e+02
8.606605243624985968e-02 1.616573296001886888e+02
8.702768430640489550e-02 1.547916799209576197e+02
8.798931617655991744e-02 1.478076314747850404e+02
8.895094804671493938e-02 1.410675256629249645e+02
8.991257991686996132e-02 1.344273530589485972e+02
9.087421178702498326e-02 1.284674227035318381e+02
9.183584365718000520e-02 1.227513983304028926e+02
9.279747552733502713e-02 1.170989183066145500e+02
9.375910739749006295e-02 1.107591058240712698e+02
9.472073926764508489e-02 1.054299220770931242e+02
9.568237113780010683e-02 1.015294421531204136e+02
9.664400300795514265e-02 9.648706408544191504e+01
9.760563487811016459e-02 9.097751257084152599e+01
9.856726674826518653e-02 8.628233616993601629e+01
9.952889861842022234e-02 8.136326231104487761e+01
1.004905304885752443e-01 7.653063704366030606e+01
1.014521623587302801e-01 7.232370548445345548e+01
1.024137942288853020e-01 6.853970989311611106e+01
1.033754260990403240e-01 6.438885232354371624e+01
1.043370579691953459e-01 6.023204074320562285e+01
1.052986898393503817e-01 5.668615959974140139e+01
1.062603217095053898e-01 5.307466249938446623e+01
1.072219535796604256e-01 4.935001440656161975e+01
1.081835854498154614e-01 4.661057864333436385e+01
1.091452173199704695e-01 4.364087331306429007e+01
1.101068491901255053e-01 4.086760992607180754e+01
1.110684810602805411e-01 3.775680732177454502e+01
1.120301129304355492e-01 3.477599762576589626e+01
1.129917448005905850e-01 3.236690409122316225e+01
1.139533766707456208e-01 2.993052238282057331e+01
1.149150085409006289e-01 2.771398790581806537e+01
1.158766404110556647e-01 2.574004902043518683e+01
1.168382722812106728e-01 2.404502455573447506e+01
1.177999041513657086e-01 2.146273269576161624e+01
1.187615360215207305e-01 1.941097509506574781e+01
1.197231678916757525e-01 1.789623724496292922e+01
1.206847997618307744e-01 1.637575030678748078e+01
1.216464316319858102e-01 1.487881989562679408e+01
1.226080635021408183e-01 1.390350348312824735e+01
1.235696953722958541e-01 1.269969916283540101e+01
1.245313272424508899e-01 1.090533096400963231e+01
1.254929591126059119e-01 9.847104084560619697e+00
1.264545909827609338e-01 9.092745951878029587e+00
1.274162228529159557e-01 7.957081951879377613e+00
1.283778547230709777e-01 6.662045800807668172e+00
1.293394865932259996e-01 5.364400419524709918e+00
1.303011184633810493e-01 5.056211373705266965e+00
1.312627503335360435e-01 4.758093868793128678e+00
1.322243822036910932e-01 4.181837097107152346e+00
1.331860140738460874e-01 3.839966817849074232e+00
1.341476459440011371e-01 3.622427248116345311e+00
1.351092778141561590e-01 3.142420530692113800e+00
1.360709096843111809e-01 2.605838327719450120e+00
1.370325415544662029e-01 2.482485916361902412e+00
1.379941734246212526e-01 2.079016078185226490e+00
1.389558052947762468e-01 1.967419711945346705e+00
1.399174371649312965e-01 1.789426437079740140e+00
1.408790690350863184e-01 1.473966476200725850e+00
1.418407009052413403e-01 1.643242629910822927e+00
1.428023327753963623e-01 1.373259347971046651e+00
1.437639646455513842e-01 1.021116425722372156e+00
1.447255965157064062e-01 1.028750644560989969e+00
1.456872283858614281e-01 1.032007341938971479e+00
1.466488602560164778e-01 7.609600866928118990e-01
1.476104921261714720e-01 9.457889671794390551e-01
1.485721239963265217e-01 1.099709734825477625e+00
1.495337558664815436e-01 1.360625742027774976e+00
1.504953877366365655e-01 1.502261703485064714e+00
1.514570196067915875e-01 1.859839951624653764e+00
1.524186514769466094e-01 2.060537789734311787e+00
1.533802833471016314e-01 1.969652064848101958e+00
1.543419152172566811e-01 2.035558001394022654e+00
1.553035470874116752e-01 2.297168271863824884e+00
1.562651789575667249e-01 2.192750484334847982e+00
1.572268108277217469e-01 2.554984885179884202e+00
1.581884426978767688e-01 2.951362699842285053e+00
1.591500745680317908e-01 3.258630654730581000e+00
1.601117064381868405e-01 2.988608788987697551e+00
1.610733383083418346e-01 3.111434328514814496e+00
1.620349701784968843e-01 3.662310592480345406e+00
1.629966020486519063e-01 3.411191446499380220e+00
1.639582339188069282e-01 3.712401123418352711e+00
1.649198657889619501e-01 3.935196616437018236e+00
1.658814976591169721e-01 3.969020428071466711e+00
1.668431295292719940e-01 4.080276295142560627e+00
1.678047613994270160e-01 4.308156018254742037e+00
1.687663932695820379e-01 4.556254757595901594e+00
1.697280251397370598e-01 4.905556242582196802e+00
1.706896570098921095e-01 4.866570655970235748e+00
1.716512888800471037e-01 4.891658699023391677e+00
1.726129207502021534e-01 5.187442808113893022e+00
1.735745526203571754e-01 5.413758203410889536e+00
1.745361844905121973e-01 5.350167350942019340e+00
1.754978163606672192e-01 5.327191419007096584e+00
1.764594482308222689e-01 5.397076030162875071e+00
1.774210801009772631e-01 5.573278565733918555e+00
1.783827119711323128e-01 5.650312947407300612e+00
1.793443438412873348e-01 5.677152599094092977e+00
1.803059757114423567e-01 5.462284109711539770e+00
1.812676075815973786e-01 5.492711403626149291e+00
1.822292394517524006e-01 5.619519464408700316e+00
1.831908713219074225e-01 5.113814702755131947e+00
1.841525031920624444e-01 5.116135641719061766e+00
1.851141350622174664e-01 5.427517221758009214e+00
1.860757669323724883e-01 5.465524385935257357e+00
1.870373988025275380e-01 5.448347498324032756e+00
1.879990306726825322e-01 5.265911001372991507e+00
1.889606625428375819e-01 5.027594629048095953e+00
1.899222944129926038e-01 5.274276999060383275e+00
1.908839262831476258e-01 5.284602619062052753e+00
1.918455581533026477e-01 5.270226416936768743e+00
1.928071900234576974e-01 4.845670871572657745e+00
1.937688218936126916e-01 5.095177211362798886e+00
1.947304537637677413e-01 5.140401503358820179e+00
1.956920856339227632e-01 5.067841887489386465e+00
1.966537175040777852e-01 4.963683489412652250e+00
1.976153493742328071e-01 4.757007373174957365e+00
1.985769812443878291e-01 4.919652574596533157e+00
1.995386131145428510e-01 4.570873226866499550e+00
2.005002449846978729e-01 4.222301669178392558e+00
2.014618768548528949e-01 4.044624658599893507e+00
2.024235087250079168e-01 4.139907409949820760e+00
2.033851405951629665e-01 3.992778095135342653e+00
2.043467724653179884e-01 3.839804282535528301e+00
2.053084043354730381e-01 3.971769933668277019e+00
2.062700362056280046e-01 3.891061336043939889e+00
2.072316680757830543e-01 3.484478989848312835e+00
2.081932999459380762e-01 3.218407504357301718e+00
2.091549318160931259e-01 3.043851807055567349e+00
2.101165636862481478e-01 2.887825822816509458e+00
2.110781955564031698e-01 3.019795690914577335e+00
2.120398274265581640e-01 2.855202307582516141e+00
2.130014592967132137e-01 2.818995745599533365e+00
2.139630911668682356e-01 2.579244853977300522e+00
2.149247230370232575e-01 2.240350707857398760e+00
2.158863549071783072e-01 1.896121446302192481e+00
2.168479867773333014e-01 2.001870974731772890e+00
2.178096186474883234e-01 1.969096620468729242e+00
2.187712505176433453e-01 1.772735565835869664e+00
2.197328823877983950e-01 1.718622899801658832e+00
2.206945142579534169e-01 1.686133379423637280e+00
2.216561461281084666e-01 1.511965957800327942e+00
2.226177779982634330e-01 1.176215058169010064e+00
2.235794098684184827e-01 1.120056656710946896e+00
2.245410417385735047e-01 1.115413043628578293e+00
2.255026736087285544e-01 1.302513461556713992e+00
2.264643054788835763e-01 1.223212757677067941e+00
2.274259373490385983e-01 9.919756952811802364e-01
2.283875692191935924e-01 7.596559507278222156e-01
2.293492010893486421e-01 8.876693484898723341e-01
2.303108329595036641e-01 8.315580956861836626e-01
2.312724648296586860e-01 8.085543284858403013e-01
2.322340966998137357e-01 8.091232924223490386e-01
2.331957285699687299e-01 6.125803113017482815e-01
2.341573604401237518e-01 2.861859067622809505e-01
2.351189923102787738e-01 4.874076868541727947e-01
2.360806241804338235e-01 5.023939747081200835e-01
2.370422560505888454e-01 3.436231593049932087e-01
2.380038879207438951e-01 3.359495758913659813e-01
2.389655197908988615e-01 4.051725005110391464e-01
2.399271516610539112e-01 4.680184795798076891e-01
2.408887835312089332e-01 4.455223783104926838e-01
2.418504154013639829e-01 3.152774935595132888e-01
2.428120472715190048e-01 4.839571648802625248e-01
2.437736791416740267e-01 2.784423158260054265e-01
2.447353110118290209e-01 5.592555112688408769e-01
2.456969428819840706e-01 5.327259406870155090e-01
2.466585747521390926e-01 2.597762368655089915e-01
2.476202066222941145e-01 1.853580766385753975e-01
2.485818384924491642e-01 4.672541162999976905e-01
2.495434703626041584e-01 3.118900955240029305e-01
2.505051022327591803e-01 3.234322126358364358e-01
2.514667341029142023e-01 3.981959854711227820e-01
2.524283659730692242e-01 2.599883035014372012e-01
2.533899978432243016e-01 2.208475683960777758e-01
2.543516297133793236e-01 3.893780042370238448e-01
2.553132615835342900e-01 4.350259799083175949e-01
2.562748934536893120e-01 5.439366301588641761e-01
2.572365253238443894e-01 5.680054329749069097e-01
2.581981571939994113e-01 3.456576012535634845e-01
2.591597890641544333e-01 4.121937255596854754e-01
2.601214209343094552e-01 5.359675983327463200e-01
2.610830528044644772e-01 5.738645681103520246e-01
2.620446846746194991e-01 6.754143988782459473e-01
2.630063165447745210e-01 9.005778791359837498e-01
2.639679484149295430e-01 8.104829814108143182e-01
2.649295802850845649e-01 7.258824158643406577e-01
2.658912121552395869e-01 7.877810650710408424e-01
2.668528440253946088e-01 6.493250492181381617e-01
2.678144758955496307e-01 6.258845807105295478e-01
2.687761077657046527e-01 7.396809752961175377e-01
2.697377396358597301e-01 1.001572408469382225e+00
2.706993715060147521e-01 8.490652884292622105e-01
2.716610033761697185e-01 9.281323947482462700e-01
2.726226352463247404e-01 9.143333041429144714e-01
2.735842671164798179e-01 9.967534724862865403e-01
2.745458989866348398e-01 1.073440889149825495e+00
2.755075308567898618e-01 1.046431571009872386e+00
2.764691627269448837e-01 9.616677203654511175e-01
2.774307945970999056e-01 8.428494904967678281e-01
2.783924264672549276e-01 7.349958603588149231e-01
2.793540583374099495e-01 7.094715677145373434e-01
2.803156902075649715e-01 8.905960129487802135e-01
2.812773220777199934e-01 9.020967261894661249e-01
2.822389539478750153e-01 9.651025021576984386e-01
2.832005858180300373e-01 1.061904301281636265e+00
2.841622176881850592e-01 9.640083326389756735e-01
2.851238495583400812e-01 8.149675275583483369e-01
2.860854814284951586e-01 8.227585687336507192e-01
2.870471132986501805e-01 8.203773929517730323e-01
2.880087451688051470e-01 9.427032055496056273e-01
2.889703770389601689e-01 9.363331116914679342e-01
2.899320089091152464e-01 9.336552581267945072e-01
2.908936407792702683e-01 9.967159555171392071e-01
2.918552726494252902e-01 7.663481993966740902e-01
2.928169045195803122e-01 7.873834370584802400e-01
2.937785363897353341e-01 7.313913205744917434e-01
2.947401682598903561e-01 9.533904112194058200e-01
2.957018001300453780e-01 8.768418678916845010e-01
2.966634320002003999e-01 9.916113290412233994e-01
2.976250638703554219e-01 1.011046821679890684e+00
2.985866957405104993e-01 8.637826053260404535e-01
2.995483276106654658e-01 8.733793101775653156e-01
3.005099594808204877e-01 8.332313095014782789e-01
3.014715913509755651e-01 8.253415126665508694e-01
3.024332232211305871e-01 8.925286570616322024e-01
3.033948550912856090e-01 7.472725190877227419e-01
3.043564869614405755e-01 8.434488573548293289e-01
3.053181188315956529e-01 1.036867882866626900e+00
3.062797507017506748e-01 6.320040238349697859e-01
3.072413825719056968e-01 6.572235715589513916e-01
3.082030144420607187e-01 8.357335011192930097e-01
3.091646463122157407e-01 8.415532663565059579e-01
3.101262781823707626e-01 7.405927182181741841e-01
3.110879100525257845e-01 4.926109381453827041e-01
3.120495419226808065e-01 4.148942242402817726e-01
3.130111737928358284e-01 5.560690701091353105e-01
3.139728056629909059e-01 5.174282440699720098e-01
3.149344375331459278e-01 3.559249428122548409e-01
3.158960694033008942e-01 4.555574996052520476e-01
3.168577012734559162e-01 6.262266917652361542e-01
3.178193331436109936e-01 6.976403442589109716e-01
3.187809650137660156e-01 6.692477515678980637e-01
3.197425968839210375e-01 4.039201794576072757e-01
3.207042287540760039e-01 5.925073328174761400e-01
3.216658606242310814e-01 5.265470219639745153e-01
3.226274924943861033e-01 4.424510935753360741e-01
3.235891243645411253e-01 4.305933733392990348e-01
3.245507562346961472e-01 4.162599053289639528e-01
3.255123881048511691e-01 1.921370549512673165e-01
3.264740199750061911e-01 3.039343985227844769e-01
3.274356518451612130e-01 5.246466769521767048e-01
3.283972837153162350e-01 4.971232201485982216e-01
3.293589155854712569e-01 3.065876383406553884e-01
3.303205474556263344e-01 3.569325862881385092e-01
3.312821793257813563e-01 4.114658692972348319e-01
3.322438111959363227e-01 3.782478724340734288e-01
3.332054430660913447e-01 3.723249760278832809e-01
3.341670749362464221e-01 3.905311266605195897e-01
3.351287068064014441e-01 3.824793341924852541e-01
3.360903386765564660e-01 3.655558456345815443e-01
3.370519705467114324e-01 4.210780388008714681e-01
3.380136024168665099e-01 1.899575470933321242e-01
3.389752342870215318e-01 2.921538803319059241e-01
3.399368661571765537e-01 3.696075974525072638e-01
3.408984980273315757e-01 3.669197992492136962e-01
3.418601298974865976e-01 4.334739153980216031e-01
3.428217617676416196e-01 5.001541213265525698e-01
3.437833936377966415e-01 4.560817324023638264e-01
3.447450255079516634e-01 2.825504690997924229e-01
3.457066573781066854e-01 2.174869580221994170e-02
3.466682892482617628e-01 8.887670844482187249e-02
3.476299211184167848e-01 1.133099628996063757e-01
3.485915529885717512e-01 0.000000000000000000e+00
3.495531848587267731e-01 2.206143396345829899e-01
3.505148167288818506e-01 3.363460737347949703e-01
3.514764485990368725e-01 4.570134955219984363e-01
3.524380804691918945e-01 4.386753061649351082e-01
3.533997123393468609e-01 3.790975609415099257e-01
3.543613442095019384e-01 2.175269163275181938e-01
3.553229760796569603e-01 2.826438504763650883e-01
3.562846079498119822e-01 4.707495696023400455e-01
3.572462398199670042e-01 3.829468608697084164e-01
3.582078716901220261e-01 3.082790021623438292e-01
3.591695035602770480e-01 3.364701717560478755e-01
3.601311354304320700e-01 5.866576704241523998e-01
3.610927673005870919e-01 4.345178839058121412e-01
3.620543991707421139e-01 4.500706110626637724e-01
3.630160310408971913e-01 7.823031978395782460e-01
3.639776629110522133e-01 6.270848959325761030e-01
3.649392947812071797e-01 4.868429530013109741e-01
3.659009266513622016e-01 4.767642273055692215e-01
3.668625585215172791e-01 4.245583609170111572e-01
3.678241903916723010e-01 4.482989223268631918e-01
3.687858222618273230e-01 6.393964830907528096e-01
3.697474541319822894e-01 6.736363263923479394e-01
3.707090860021373668e-01 5.793529507362791264e-01
3.716707178722923888e-01 6.024648708636171079e-01
3.726323497424474107e-01 7.052123527721505525e-01
3.735939816126024327e-01 7.371115835341193190e-01
3.745556134827574546e-01 6.092336824387274419e-01
3.755172453529124765e-01 6.228839820467548805e-01
3.764788772230674985e-01 2.268020877694887361e-01
3.774405090932225204e-01 3.915953286435680525e-01
3.784021409633775423e-01 4.506874530287312552e-01
3.793637728335326198e-01 3.599395252529653533e-01
3.803254047036876417e-01 5.778436361674117450e-01
3.812870365738426082e-01 4.116137339727714561e-01
3.822486684439976301e-01 3.982842632373824188e-01
3.832103003141527076e-01 5.484586221455636235e-01
3.841719321843077295e-01 6.487648406449686433e-01
3.851335640544627514e-01 4.324049825860605267e-01
3.860951959246177734e-01 5.390592707345760459e-01
3.870568277947727953e-01 7.723649155311775871e-01
3.880184596649278173e-01 6.073191892261711189e-01
3.889800915350828392e-01 6.586877215041475608e-01
3.899417234052378611e-01 6.942187341752905638e-01
3.909033552753928831e-01 7.165092529955359169e-01
3.918649871455479050e-01 5.501226479402312464e-01
3.928266190157029270e-01 4.538548489815887876e-01
3.937882508858579489e-01 3.704980620613440578e-01
3.947498827560129708e-01 3.768659560735727609e-01
3.957115146261680483e-01 4.562922662298873888e-01
3.966731464963230702e-01 5.370655881481347649e-01
3.976347783664780366e-01 4.873092925510817963e-01
3.985964102366330586e-01 3.898523966093030424e-01
3.995580421067881360e-01 3.924933807176351763e-01
4.005196739769430470e-01 4.405851114853049921e-01
4.014813058470981244e-01 3.328451314173790365e-01
4.024429377172531463e-01 4.007035352700327735e-01
4.034045695874082238e-01 4.712067540117637066e-01
