# q (1/Angstrom), Intensity (arb)
2.067508526570814575e-02 5.982738105322127922e+02
2.163671713586316769e-02 6.277923043128921563e+02
2.259834900601819310e-02 6.487388324510143320e+02
2.355998087617321851e-02 6.545963609053247865e+02
2.452161274632824739e-02 6.567579772352551117e+02
2.548324461648326933e-02 6.566114734313699728e+02
2.644487648663829821e-02 6.542908933931645379e+02
2.740650835679332709e-02 6.532691744387124118e+02
2.836814022694834903e-02 6.489387881021626754e+02
2.932977209710337443e-02 6.470810727205099511e+02
3.029140396725839637e-02 6.463290882427980932e+02
3.125303583741342178e-02 6.433622691688065061e+02
3.221466770756845066e-02 6.353180233786465578e+02
3.317629957772347260e-02 6.291120425032493131e+02
3.413793144787850148e-02 6.246598654964301431e+02
3.509956331803352342e-02 6.199322117837862152e+02
3.606119518818855230e-02 6.167339977582141728e+02
3.702282705834358117e-02 6.092834496098656700e+02
3.798445892849860311e-02 6.024595968414782874e+02
3.894609079865363199e-02 5.956927673896520901e+02
3.990772266880865393e-02 5.911513856849979902e+02
4.086935453896367587e-02 5.847803084825534370e+02
4.183098640911870475e-02 5.775733031026614981e+02
4.279261827927372669e-02 5.740013238321271274e+02
4.375425014942875557e-02 5.634509284076887070e+02
4.471588201958377751e-02 5.533905277046529818e+02
4.567751388973880639e-02 5.446870911645354454e+02
4.663914575989382832e-02 5.366274463367972203e+02
4.760077763004885720e-02 5.294571873184669357e+02
4.856240950020387914e-02 5.242812089146042354e+02
4.952404137035890108e-02 5.152277529522270925e+02
5.048567324051392302e-02 5.043730813546619629e+02
5.144730511066895190e-02 4.954972652034003886e+02
5.240893698082397384e-02 4.853885276856863698e+02
5.337056885097899578e-02 4.744534907907196271e+02
5.433220072113403160e-02 4.639804356824889737e+02
5.529383259128905354e-02 4.561171208443880687e+02
5.625546446144407547e-02 4.488487664497084211e+02
5.721709633159910435e-02 4.366662302186188072e+02
5.817872820175412629e-02 4.239741530230546687e+02
5.914036007190914823e-02 4.133573400241883746e+02
6.010199194206417017e-02 4.024795080630813686e+02
6.106362381221920599e-02 3.928699947295826291e+02
6.202525568237422793e-02 3.830399362632591647e+02
6.298688755252924987e-02 3.719782095440176022e+02
6.394851942268428568e-02 3.619891528623707018e+02
6.491015129283930762e-02 3.516075350768230123e+02
6.587178316299432956e-02 3.424344557096691233e+02
6.683341503314935150e-02 3.315286031099436173e+02
6.779504690330438732e-02 3.228563848428283336e+02
6.875667877345940926e-02 3.146508395342126505e+02
6.971831064361443120e-02 3.044022305917239919e+02
7.067994251376945314e-02 2.940797549959024764e+02
7.164157438392447508e-02 2.856553913431272349e+02
7.260320625407949702e-02 2.770164567305433820e+02
7.356483812423453283e-02 2.677605634372935697e+02
7.452646999438955477e-02 2.589470570613526093e+02
7.548810186454457671e-02 2.507366479483280841e+02
7.644973373469959865e-02 2.422275914833004151e+02
7.741136560485463447e-02 2.342392764657588771e+02
7.837299747500965641e-02 2.254293760084425458e+02
7.933462934516467835e-02 2.162741730861777683e+02
8.029626121531971417e-02 2.073226763937673240e+02
8.125789308547473611e-02 2.008057598954677019e+02
8.221952495562975805e-02 1.932842361662849839e+02
8.318115682578479386e-02 1.855493113052880005e+02
8.414278869593981580e-02 1.777530267325685145e+02
8.510442056609483774e-02 1.704879096695791816e+02
8.606605243624985968e-02 1.628290574219599876e+02
8.702768430640489550e-02 1.557958218126890131e+02
8.798931617655991744e-02 1.496710225436468988e+02
8.895094804671493938e-02 1.424588693193295512e+02
8.991257991686996132e-02 1.370655863474402736e+02
9.087421178702498326e-02 1.308082473477520296e+02
9.183584365718000520e-02 1.249115261211563563e+02
9.279747552733502713e-02 1.191306604965337357e+02
9.375910739749006295e-02 1.129596352646285595e+02
9.472073926764508489e-02 1.076174699168183224e+02
9.568237113780010683e-02 1.017445468344929651e+02
9.664400300795514265e-02 9.671430437007042258e+01
9.760563487811016459e-02 9.198307947274140872e+01
9.856726674826518653e-02 8.687364600909442913e+01
9.952889861842022234e-02 8.236157265503503311e+01
1.004905304885752443e-01 7.836403358499995875e+01
1.014521623587302801e-01 7.387393568984241199e+01
1.024137942288853020e-01 6.909219064524589271e+01
1.033754260990403240e-01 6.494485221732868752e+01
1.043370579691953459e-01 6.083710721483532780e+01
1.052986898393503817e-01 5.685343158265868624e+01
1.062603217095053898e-01 5.334148264217289181e+01
1.072219535796604256e-01 5.006075385131651245e+01
1.081835854498154614e-01 4.721755625654839150e+01
1.091452173199704695e-01 4.461398445567039062e+01
1.101068491901255053e-01 4.072411032178891332e+01
1.110684810602805411e-01 3.822530386174537398e+01
1.120301129304355492e-01 3.593935806664649135e+01
1.129917448005905850e-01 3.327021052982622962e+01
1.139533766707456208e-01 3.023475610987123829e+01
1.149150085409006289e-01 2.696273006401953864e+01
1.158766404110556647e-01 2.552652811778337139e+01
1.168382722812106728e-01 2.364259675719854670e+01
1.177999041513657086e-01 2.163274740024390752e+01
1.187615360215207305e-01 1.933992113539611069e+01
1.197231678916757525e-01 1.785548619203585474e+01
1.206847997618307744e-01 1.633866063273863745e+01
1.216464316319858102e-01 1.493338255428408701e+01
1.226080635021408183e-01 1.379569277823838291e+01
1.235696953722958541e-01 1.244069523815710099e+01
1.245313272424508899e-01 1.144245591618249591e+01
1.254929591126059119e-01 1.013111605843581842e+01
1.264545909827609338e-01 9.156190947196542140e+00
1.274162228529159557e-01 7.921261781123241974e+00
1.283778547230709777e-01 6.813579201389721618e+00
1.293394865932259996e-01 5.563547792865509933e+00
1.303011184633810493e-01 4.961941049247638347e+00
1.312627503335360435e-01 4.272007059659607364e+00
1.322243822036910932e-01 4.025795460680171800e+00
1.331860140738460874e-01 3.520865975747437204e+00
1.341476459440011371e-01 3.151183381963168273e+00
1.351092778141561590e-01 2.674603414118248423e+00
1.360709096843111809e-01 2.076098260798133310e+00
1.370325415544662029e-01 1.895150822818521874e+00
1.379941734246212526e-01 1.385906479837561989e+00
1.389558052947762468e-01 1.527204688233272378e+00
1.399174371649312965e-01 1.610028045573255184e+00
1.408790690350863184e-01 1.374082653501094597e+00
1.418407009052413403e-01 1.232761319549620538e+00
1.428023327753963623e-01 9.469614896869842369e-01
1.437639646455513842e-01 1.081227556612493146e+00
1.447255965157064062e-01 1.201311641460559798e+00
1.456872283858614281e-01 1.313992752763130767e+00
1.466488602560164778e-01 1.017593123710657466e+00
1.476104921261714720e-01 1.142051547447373139e+00
1.485721239963265217e-01 1.265271468389336462e+00
1.495337558664815436e-01 1.288455833151040508e+00
1.504953877366365655e-01 1.360978817133251084e+00
1.514570196067915875e-01 1.556437291594740202e+00
1.524186514769466094e-01 1.610139006378606297e+00
1.533802833471016314e-01 1.767044919887904797e+00
1.543419152172566811e-01 1.747338874914511564e+00
1.553035470874116752e-01 2.348435421864447648e+00
1.562651789575667249e-01 2.802528413988227385e+00
1.572268108277217469e-01 2.709273696253521990e+00
1.581884426978767688e-01 2.716246486462218002e+00
1.591500745680317908e-01 2.698549987287155005e+00
1.601117064381868405e-01 3.173435160584009651e+00
1.610733383083418346e-01 3.268112583145082795e+00
1.620349701784968843e-01 3.179620296336942431e+00
1.629966020486519063e-01 3.508863174809327745e+00
1.639582339188069282e-01 3.916113290601686003e+00
1.649198657889619501e-01 4.249326110816898705e+00
1.658814976591169721e-01 4.196624025332983621e+00
1.668431295292719940e-01 4.313455335438199256e+00
1.678047613994270160e-01 4.478220273307901067e+00
1.687663932695820379e-01 4.762412529987635423e+00
1.697280251397370598e-01 4.976768158164972533e+00
1.706896570098921095e-01 5.031122914772240051e+00
1.716512888800471037e-01 5.285216176834740764e+00
1.726129207502021534e-01 5.197822513542355694e+00
1.735745526203571754e-01 5.289090550525905599e+00
1.745361844905121973e-01 5.581150232247431120e+00
1.754978163606672192e-01 5.459821330729152322e+00
1.764594482308222689e-01 5.630905426034832573e+00
1.774210801009772631e-01 5.538866533580804941e+00
1.783827119711323128e-01 5.634176107983389414e+00
1.793443438412873348e-01 5.922271756071253890e+00
1.803059757114423567e-01 5.766352524841799720e+00
1.812676075815973786e-01 5.522318760481287114e+00
1.822292394517524006e-01 5.299713165578989305e+00
1.831908713219074225e-01 5.566548445899524467e+00
1.841525031920624444e-01 5.473463602867212785e+00
1.851141350622174664e-01 5.616698512667852583e+00
1.860757669323724883e-01 5.615100415481922624e+00
1.870373988025275380e-01 5.623885542117452729e+00
1.879990306726825322e-01 5.384192585921152130e+00
1.889606625428375819e-01 5.254812795549486992e+00
1.899222944129926038e-01 5.333056924816869326e+00
1.908839262831476258e-01 5.314420974152461952e+00
1.918455581533026477e-01 5.329616240460623544e+00
1.928071900234576974e-01 4.963642170179078050e+00
1.937688218936126916e-01 4.598803006023846507e+00
1.947304537637677413e-01 4.691203158734943202e+00
1.956920856339227632e-01 4.594725392715222512e+00
1.966537175040777852e-01 4.286263127616251722e+00
1.976153493742328071e-01 4.342745269014873344e+00
1.985769812443878291e-01 4.454476012376140659e+00
1.995386131145428510e-01 4.364434595672150863e+00
2.005002449846978729e-01 4.056316919085698913e+00
2.014618768548528949e-01 3.929097623732879185e+00
2.024235087250079168e-01 4.011714449350019862e+00
2.033851405951629665e-01 3.929851464513646420e+00
2.043467724653179884e-01 3.667437166585628461e+00
2.053084043354730381e-01 3.462501437605947530e+00
2.062700362056280046e-01 3.404599948919631913e+00
2.072316680757830543e-01 2.856612958829007454e+00
2.081932999459380762e-01 2.926826585972150951e+00
2.091549318160931259e-01 2.860763963831558954e+00
2.101165636862481478e-01 2.568868617684035627e+00
2.110781955564031698e-01 2.635420614833584807e+00
2.120398274265581640e-01 2.670085380818505882e+00
2.130014592967132137e-01 2.490857216901776638e+00
2.139630911668682356e-01 1.988342854259268933e+00
2.149247230370232575e-01 1.868400848382595569e+00
2.158863549071783072e-01 2.106294455014101175e+00
2.168479867773333014e-01 2.240446833500634227e+00
2.178096186474883234e-01 2.003626234611758150e+00
2.187712505176433453e-01 1.477544449935145110e+00
2.197328823877983950e-01 1.382194869968785156e+00
2.206945142579534169e-01 1.455593041214200412e+00
2.216561461281084666e-01 1.435423225358153587e+00
2.226177779982634330e-01 1.234852371848411678e+00
2.235794098684184827e-01 1.219532272653665927e+00
2.245410417385735047e-01 1.028870550722846389e+00
2.255026736087285544e-01 1.019222829359421212e+00
2.264643054788835763e-01 1.116658360782658121e+00
2.274259373490385983e-01 9.575775568560516149e-01
2.283875692191935924e-01 7.197914768137358976e-01
2.293492010893486421e-01 5.889033253770357135e-01
2.303108329595036641e-01 4.837894750034053004e-01
2.312724648296586860e-01 4.087569546174982804e-01
2.322340966998137357e-01 5.075116640510195509e-01
2.331957285699687299e-01 7.269664475926695957e-01
2.341573604401237518e-01 6.357599068498913653e-01
2.351189923102787738e-01 5.489382416110224483e-01
2.360806241804338235e-01 6.309741147618233015e-01
2.370422560505888454e-01 7.108983500846122183e-01
2.380038879207438951e-01 3.758364614109943602e-01
2.389655197908988615e-01 5.026832755552490539e-02
2.399271516610539112e-01 1.949414818245962522e-01
2.408887835312089332e-01 4.120595406947842321e-01
2.418504154013639829e-01 4.712858707886447007e-01
2.428120472715190048e-01 3.169949372624252248e-01
2.437736791416740267e-01 2.490888987831390011e-01
2.447353110118290209e-01 2.874348119039709104e-01
2.456969428819840706e-01 3.362694723549068954e-01
2.466585747521390926e-01 1.828129684469601557e-01
2.476202066222941145e-01 6.525222468958702393e-03
2.485818384924491642e-01 1.500578869983897334e-01
2.495434703626041584e-01 3.217000421915372499e-01
2.505051022327591803e-01 1.898994978484651597e-01
2.514667341029142023e-01 2.084352190443397035e-01
2.524283659730692242e-01 2.049336948025128891e-01
2.533899978432243016e-01 2.724901328268956036e-01
2.543516297133793236e-01 4.013087401345849514e-01
2.553132615835342900e-01 4.069351559225609094e-01
2.562748934536893120e-01 4.918522423030466939e-01
2.572365253238443894e-01 4.234588978288762462e-01
2.581981571939994113e-01 4.220751848104242754e-01
2.591597890641544333e-01 5.053308317906619607e-01
2.601214209343094552e-01 5.317738971295256079e-01
2.610830528044644772e-01 4.992653611541904013e-01
2.620446846746194991e-01 5.835792003401927275e-01
2.630063165447745210e-01 4.015123503539292926e-01
2.639679484149295430e-01 5.852206049565893409e-01
2.649295802850845649e-01 8.100498930468909009e-01
2.658912121552395869e-01 5.910733713050611016e-01
2.668528440253946088e-01 3.863633292076329440e-01
2.678144758955496307e-01 4.465849281747225064e-01
2.687761077657046527e-01 4.221185315444380137e-01
2.697377396358597301e-01 6.000130485766881350e-01
2.706993715060147521e-01 4.506924926683701926e-01
2.716610033761697185e-01 5.277175152614432818e-01
2.726226352463247404e-01 5.828228795142749163e-01
2.735842671164798179e-01 9.320209586172119032e-01
2.745458989866348398e-01 8.413731892828906211e-01
2.755075308567898618e-01 9.778342068400682763e-01
2.764691627269448837e-01 9.190470064438152065e-01
2.774307945970999056e-01 1.004869231513151107e+00
2.783924264672549276e-01 9.722759324321401664e-01
2.793540583374099495e-01 8.447009933963975925e-01
2.803156902075649715e-01 9.398676292450041103e-01
2.812773220777199934e-01 9.753715431305884920e-01
2.822389539478750153e-01 7.934944095468026148e-01
2.832005858180300373e-01 7.123723761274973754e-01
2.841622176881850592e-01 5.882308713517829801e-01
2.851238495583400812e-01 6.318257733508154672e-01
2.860854814284951586e-01 9.447552446222928779e-01
2.870471132986501805e-01 9.716011745208348316e-01
2.880087451688051470e-01 9.371653822230818776e-01
2.889703770389601689e-01 7.044389784824360845e-01
2.899320089091152464e-01 6.557764896483320172e-01
2.908936407792702683e-01 5.936380063260529028e-01
2.918552726494252902e-01 7.669638119329356130e-01
2.928169045195803122e-01 6.911721304880593664e-01
2.937785363897353341e-01 6.883429688478308606e-01
2.947401682598903561e-01 7.406777721892261468e-01
2.957018001300453780e-01 5.480006183890893112e-01
2.966634320002003999e-01 6.385681918333041551e-01
2.976250638703554219e-01 9.677816185439276353e-01
2.985866957405104993e-01 1.017861566433449383e+00
2.995483276106654658e-01 8.037709686438532231e-01
3.005099594808204877e-01 6.518525775928338817e-01
3.014715913509755651e-01 6.234867851002015016e-01
3.024332232211305871e-01 5.028019353790540436e-01
3.033948550912856090e-01 7.225872706408615898e-01
3.043564869614405755e-01 6.158817983971012211e-01
3.053181188315956529e-01 3.219603488700855110e-01
3.062797507017506748e-01 7.198545085588463621e-01
3.072413825719056968e-01 8.849149180146937965e-01
3.082030144420607187e-01 5.161878503247159244e-01
3.091646463122157407e-01 4.485920547812725090e-01
3.101262781823707626e-01 4.524818401447987526e-01
3.110879100525257845e-01 4.660369836432209922e-01
3.120495419226808065e-01 4.318542167155747791e-01
3.130111737928358284e-01 8.093046591872372630e-01
3.139728056629909059e-01 7.148822398487766350e-01
3.149344375331459278e-01 5.704821887999713681e-01
3.158960694033008942e-01 5.244976843553992296e-01
3.168577012734559162e-01 5.681698003652755347e-01
3.178193331436109936e-01 6.027288756754813903e-01
3.187809650137660156e-01 4.431357636008748102e-01
3.197425968839210375e-01 4.030091991852629008e-01
3.207042287540760039e-01 4.245169052958743805e-01
3.216658606242310814e-01 4.048144618667137706e-01
3.226274924943861033e-01 3.899208437143997230e-01
3.235891243645411253e-01 3.274857443217520370e-01
3.245507562346961472e-01 3.329643080193704918e-01
3.255123881048511691e-01 1.539719562820422993e-01
3.264740199750061911e-01 1.277330876475204491e-01
3.274356518451612130e-01 2.809100587550226180e-01
3.283972837153162350e-01 3.106420272191918741e-01
3.293589155854712569e-01 1.213372606854292712e-01
3.303205474556263344e-01 1.399919920897758630e-01
3.312821793257813563e-01 2.241791800652563893e-01
3.322438111959363227e-01 3.294438770141852046e-01
3.332054430660913447e-01 3.193186865077812797e-01
3.341670749362464221e-01 9.952113690479080788e-02
3.351287068064014441e-01 2.151410961407549394e-01
3.360903386765564660e-01 3.774383730046899643e-01
3.370519705467114324e-01 2.618259987688205115e-01
3.380136024168665099e-01 3.176482848047008645e-01
3.389752342870215318e-01 1.577827499996047322e-01
3.399368661571765537e-01 1.111356532274037079e-01
3.408984980273315757e-01 1.332297425117658918e-01
3.418601298974865976e-01 2.094582212609594762e-01
3.428217617676416196e-01 2.378974269235278882e-01
3.437833936377966415e-01 2.231638252005154754e-01
3.447450255079516634e-01 2.151533786976713714e-01
3.457066573781066854e-01 3.240119496653477427e-01
3.466682892482617628e-01 4.240153050290373926e-01
3.476299211184167848e-01 1.942109824349920189e-01
3.485915529885717512e-01 1.304329992542534455e-01
3.495531848587267731e-01 3.565326310470240401e-02
3.505148167288818506e-01 2.659265773875674199e-01
3.514764485990368725e-01 2.604406361909816781e-01
3.524380804691918945e-01 2.770564143629492548e-01
3.533997123393468609e-01 3.506013470521693876e-01
3.543613442095019384e-01 3.748548170506964539e-01
3.553229760796569603e-01 3.173968263394186806e-01
3.562846079498119822e-01 3.659305106625296844e-01
3.572462398199670042e-01 3.411636975188088172e-01
3.582078716901220261e-01 1.841640877656978148e-01
3.591695035602770480e-01 2.191584031485227513e-01
3.601311354304320700e-01 3.105985992551936192e-01
3.610927673005870919e-01 1.939524072318512538e-01
3.620543991707421139e-01 1.791968373681491755e-01
3.630160310408971913e-01 2.657698913786035178e-01
3.639776629110522133e-01 3.452894055528688000e-01
3.649392947812071797e-01 1.860263007863487417e-01
3.659009266513622016e-01 2.722273184106462907e-01
3.668625585215172791e-01 3.368862131600600662e-01
3.678241903916723010e-01 3.913006843124549050e-01
3.687858222618273230e-01 3.385888777551855355e-01
3.697474541319822894e-01 2.592646063774637355e-01
3.707090860021373668e-01 3.785693666054221751e-01
3.716707178722923888e-01 2.745289711573377645e-01
3.726323497424474107e-01 2.816021839576414720e-01
3.735939816126024327e-01 3.732140736230782352e-01
3.745556134827574546e-01 3.500866797689248244e-01
3.755172453529124765e-01 1.731801880910737168e-01
3.764788772230674985e-01 3.488725071600349281e-01
3.774405090932225204e-01 4.504681378105495071e-01
3.784021409633775423e-01 3.960241992176136705e-01
3.793637728335326198e-01 3.650098074013463645e-01
3.803254047036876417e-01 4.332434673556058158e-01
3.812870365738426082e-01 4.744406358543571400e-01
3.822486684439976301e-01 6.053592530052149812e-01
3.832103003141527076e-01 4.783763142498109744e-01
3.841719321843077295e-01 4.464727345917403056e-01
3.851335640544627514e-01 3.525247885427233996e-01
3.860951959246177734e-01 4.712568996279280498e-01
3.870568277947727953e-01 4.842530871518704316e-01
3.880184596649278173e-01 4.255722527613379214e-01
3.889800915350828392e-01 5.093559969818350908e-01
3.899417234052378611e-01 4.029313305534643064e-01
3.909033552753928831e-01 3.593946965996153153e-01
3.918649871455479050e-01 1.849114793174813087e-01
3.928266190157029270e-01 1.835197258615224314e-01
3.937882508858579489e-01 2.019112716688837850e-01
3.947498827560129708e-01 1.508774476315650759e-01
3.957115146261680483e-01 1.669161069316622559e-01
3.966731464963230702e-01 2.705601877610384065e-01
3.976347783664780366e-01 2.765281358822768709e-01
3.985964102366330586e-01 3.382891674538512916e-01
3.995580421067881360e-01 3.138830885306305163e-01
4.005196739769430470e-01 2.847078450767135394e-01
4.014813058470981244e-01 2.271233413635478371e-01
4.024429377172531463e-01 2.964561983817510793e-01
4.034045695874082238e-01 2.417499641897933316e-01
