# q (1/Angstrom), Intensity (arb)
2.067508526570814575e-02 5.986521835721050593e+02
2.163671713586316769e-02 6.223663908945025014e+02
2.259834900601819310e-02 6.393325039767159979e+02
2.355998087617321851e-02 6.442100782134803012e+02
2.452161274632824739e-02 6.491814628580229964e+02
2.548324461648326933e-02 6.514083245458947431e+02
2.644487648663829821e-02 6.490347716610036741e+02
2.740650835679332709e-02 6.449543551777692301e+02
2.836814022694834903e-02 6.411262802405146886e+02
2.932977209710337443e-02 6.431128913542169130e+02
3.029140396725839637e-02 6.372486280593244601e+02
3.125303583741342178e-02 6.319742292449514025e+02
3.221466770756845066e-02 6.281563269253631461e+02
3.317629957772347260e-02 6.253060117416764569e+02
3.413793144787850148e-02 6.230893654216130244e+02
3.509956331803352342e-02 6.156903886766709775e+02
3.606119518818855230e-02 6.129268619240317548e+02
3.702282705834358117e-02 6.100993253340344609e+02
3.798445892849860311e-02 6.033774294495443655e+02
3.894609079865363199e-02 5.957882687355667031e+02
3.990772266880865393e-02 5.909060056722128138e+02
4.086935453896367587e-02 5.846929030799519751e+02
4.183098640911870475e-02 5.775342755839815254e+02
4.279261827927372669e-02 5.681246705956183405e+02
4.375425014942875557e-02 5.595027318673726313e+02
4.471588201958377751e-02 5.521614171476700221e+02
4.567751388973880639e-02 5.445508852094103531e+02
4.663914575989382832e-02 5.368048906676849583e+02
4.760077763004885720e-02 5.273022367872663381e+02
4.856240950020387914e-02 5.196130258363899657e+02
4.952404137035890108e-02 5.120838823558211743e+02
5.048567324051392302e-02 5.017018361400512845e+02
5.144730511066895190e-02 4.937729203406503871e+02
5.240893698082397384e-02 4.844354275956063702e+02
5.337056885097899578e-02 4.733877725085523025e+02
5.433220072113403160e-02 4.635737338525114524e+02
5.529383259128905354e-02 4.528281539608061053e+02
5.625546446144407547e-02 4.409436413964727990e+02
5.721709633159910435e-02 4.298214403637867917e+02
5.817872820175412629e-02 4.206821855239895172e+02
5.914036007190914823e-02 4.093947417750366640e+02
6.010199194206417017e-02 4.002622726670457496e+02
6.106362381221920599e-02 3.898615696136591282e+02
6.202525568237422793e-02 3.791675639394445056e+02
6.298688755252924987e-02 3.706190465509515093e+02
6.394851942268428568e-02 3.588670759305018123e+02
6.491015129283930762e-02 3.479379634334969182e+02
6.587178316299432956e-02 3.394692669883182816e+02
6.683341503314935150e-02 3.295464682208281033e+02
6.779504690330438732e-02 3.195727487999402570e+02
6.875667877345940926e-02 3.102217875336735915e+02
6.971831064361443120e-02 3.008550847629143163e+02
7.067994251376945314e-02 2.921972275969537804e+02
7.164157438392447508e-02 2.831591964591132751e+02
7.260320625407949702e-02 2.743526705204979521e+02
7.356483812423453283e-02 2.627666940112109728e+02
7.452646999438955477e-02 2.559628030032584434e+02
7.548810186454457671e-02 2.470815896756738823e+02
7.644973373469959865e-02 2.396102424968425737e+02
7.741136560485463447e-02 2.293841206614009423e+02
7.837299747500965641e-02 2.205539845548879043e+02
7.933462934516467835e-02 2.142054734834183307e+02
8.029626121531971417e-02 2.053468740803463106e+02
8.125789308547473611e-02 1.973671907139463713e+02
8.221952495562975805e-02 1.906528225714845064e+02
8.318115682578479386e-02 1.826565950863021612e+02
8.414278869593981580e-02 1.752879732130144532e+02
8.510442056609483774e-02 1.685182490821796932e+02
8.606605243624985968e-02 1.620392244561062114e+02
8.702768430640489550e-02 1.551562372521814268e+02
8.798931617655991744e-02 1.486493651399190981e+02
8.895094804671493938e-02 1.409918753529904052e+02
8.991257991686996132e-02 1.349527439499886725e+02
9.087421178702498326e-02 1.289196517724568025e+02
9.183584365718000520e-02 1.223290016358910748e+02
9.279747552733502713e-02 1.172258071863105755e+02
9.375910739749006295e-02 1.113447547748732944e+02
9.472073926764508489e-02 1.059582984942793615e+02
9.568237113780010683e-02 1.006149612396673803e+02
9.664400300795514265e-02 9.544056764630464329e+01
9.760563487811016459e-02 9.057278004037218011e+01
9.856726674826518653e-02 8.570082122697382943e+01
9.952889861842022234e-02 8.045498084770648006e+01
1.004905304885752443e-01 7.624002572569283132e+01
1.014521623587302801e-01 7.205598838865051903e+01
1.024137942288853020e-01 6.814655360105618342e+01
1.033754260990403240e-01 6.432396631210224314e+01
1.043370579691953459e-01 6.032966123446055917e+01
1.052986898393503817e-01 5.692149119521263856e+01
1.062603217095053898e-01 5.334366561475887636e+01
1.072219535796604256e-01 4.942482556856789699e+01
1.081835854498154614e-01 4.610437053692844245e+01
1.091452173199704695e-01 4.375195014903061974e+01
1.101068491901255053e-01 4.084096898906442874e+01
1.110684810602805411e-01 3.753951318263663950e+01
1.120301129304355492e-01 3.441749667962866255e+01
1.129917448005905850e-01 3.233017473789465157e+01
1.139533766707456208e-01 3.004796192888439776e+01
1.149150085409006289e-01 2.753895894932357180e+01
1.158766404110556647e-01 2.539262929602830710e+01
1.168382722812106728e-01 2.329681104143253734e+01
1.177999041513657086e-01 2.110322375595654165e+01
1.187615360215207305e-01 1.947299607372981356e+01
1.197231678916757525e-01 1.813402120254757577e+01
1.206847997618307744e-01 1.648541285783070975e+01
1.216464316319858102e-01 1.471242012047330405e+01
1.226080635021408183e-01 1.289372540479071461e+01
1.235696953722958541e-01 1.157548009980899906e+01
1.245313272424508899e-01 1.066408569312245547e+01
1.254929591126059119e-01 9.707279624792128914e+00
1.264545909827609338e-01 8.669044349280564887e+00
1.274162228529159557e-01 7.786558891412123984e+00
1.283778547230709777e-01 7.028121513638648565e+00
1.293394865932259996e-01 5.863852068856953537e+00
1.303011184633810493e-01 5.298160600727619851e+00
1.312627503335360435e-01 4.847495818180075133e+00
1.322243822036910932e-01 4.388644499094823459e+00
1.331860140738460874e-01 3.850226917140535221e+00
1.341476459440011371e-01 2.914552462710531699e+00
1.351092778141561590e-01 2.668999089179848738e+00
1.360709096843111809e-01 2.335665749700485350e+00
1.370325415544662029e-01 1.662333175489294490e+00
1.379941734246212526e-01 1.631745800528879187e+00
1.389558052947762468e-01 1.953768212457987374e+00
1.399174371649312965e-01 1.356961593022472101e+00
1.408790690350863184e-01 1.447433622872793535e+00
1.418407009052413403e-01 1.169476854137254662e+00
1.428023327753963623e-01 1.130504329389719231e+00
1.437639646455513842e-01 1.133721470966253975e+00
1.447255965157064062e-01 1.442528045472815990e+00
1.456872283858614281e-01 1.563013915505361950e+00
1.466488602560164778e-01 1.532936034219687826e+00
1.476104921261714720e-01 1.424876975207787666e+00
1.485721239963265217e-01 1.422795942948653192e+00
1.495337558664815436e-01 1.642794403811809190e+00
1.504953877366365655e-01 1.774360916822192991e+00
1.514570196067915875e-01 1.586700042688246270e+00
1.524186514769466094e-01 1.472412002385404151e+00
1.533802833471016314e-01 1.744538761944838257e+00
1.543419152172566811e-01 2.013296909374471255e+00
1.553035470874116752e-01 2.441776683475744392e+00
1.562651789575667249e-01 2.344566833212990531e+00
1.572268108277217469e-01 2.694787393936334041e+00
1.581884426978767688e-01 2.961941593623159008e+00
1.591500745680317908e-01 3.184994213353419923e+00
1.601117064381868405e-01 3.197078863326478171e+00
1.610733383083418346e-01 3.436937772296165150e+00
1.620349701784968843e-01 3.843149521685834458e+00
1.629966020486519063e-01 3.929307880847591861e+00
1.639582339188069282e-01 3.549729497532148059e+00
1.649198657889619501e-01 3.506957918314999034e+00
1.658814976591169721e-01 4.339417226511852022e+00
1.668431295292719940e-01 4.480415482629023671e+00
1.678047613994270160e-01 4.538184139332461342e+00
1.687663932695820379e-01 4.624911825239600205e+00
1.697280251397370598e-01 4.837428944631977146e+00
1.706896570098921095e-01 4.790640405021861170e+00
1.716512888800471037e-01 4.927703750294501361e+00
1.726129207502021534e-01 4.868748460534991551e+00
1.735745526203571754e-01 5.289609928016631102e+00
1.745361844905121973e-01 5.343721711117691342e+00
1.754978163606672192e-01 5.503007999504077929e+00
1.764594482308222689e-01 5.630695826093198519e+00
1.774210801009772631e-01 5.592035181804480004e+00
1.783827119711323128e-01 5.441833486731617597e+00
1.793443438412873348e-01 5.060440072870552086e+00
1.803059757114423567e-01 5.519618558385442242e+00
1.812676075815973786e-01 5.941163837615444976e+00
1.822292394517524006e-01 5.838718101214901424e+00
1.831908713219074225e-01 5.492604339161466953e+00
1.841525031920624444e-01 5.819431736497936214e+00
1.851141350622174664e-01 5.577606273376822799e+00
1.860757669323724883e-01 5.514299966779084627e+00
1.870373988025275380e-01 5.446273288296278992e+00
1.879990306726825322e-01 5.420534023533562618e+00
1.889606625428375819e-01 5.201715485886047929e+00
1.899222944129926038e-01 5.458170923592192025e+00
1.908839262831476258e-01 5.334522883765814072e+00
1.918455581533026477e-01 4.989938513830402655e+00
1.928071900234576974e-01 4.762147817542732753e+00
1.937688218936126916e-01 5.073451139945703403e+00
1.947304537637677413e-01 5.152300269077269235e+00
1.956920856339227632e-01 4.781995011793544137e+00
1.966537175040777852e-01 4.812724706226003235e+00
1.976153493742328071e-01 4.756284943310717495e+00
1.985769812443878291e-01 4.487598692586594495e+00
1.995386131145428510e-01 4.453764111948558480e+00
2.005002449846978729e-01 4.206923195939001658e+00
2.014618768548528949e-01 4.130073412408862055e+00
2.024235087250079168e-01 3.709058075636413321e+00
2.033851405951629665e-01 3.674335744174609175e+00
2.043467724653179884e-01 3.823753597904225643e+00
2.053084043354730381e-01 3.470165300528552876e+00
2.062700362056280046e-01 3.250004082755197032e+00
2.072316680757830543e-01 3.050993234848050406e+00
2.081932999459380762e-01 3.220069355325989591e+00
2.091549318160931259e-01 2.986427821771119540e+00
2.101165636862481478e-01 2.528860457126619110e+00
2.110781955564031698e-01 2.572249053438110167e+00
2.120398274265581640e-01 2.507064449240836268e+00
2.130014592967132137e-01 2.139096967823451934e+00
2.139630911668682356e-01 2.179124667381771019e+00
2.149247230370232575e-01 2.344262522733266962e+00
2.158863549071783072e-01 2.276845184482034767e+00
2.168479867773333014e-01 1.880471845885644200e+00
2.178096186474883234e-01 1.632747212502909662e+00
2.187712505176433453e-01 1.558844848125097826e+00
2.197328823877983950e-01 1.587268684675628094e+00
2.206945142579534169e-01 1.519047845849598843e+00
2.216561461281084666e-01 1.433848480407526438e+00
2.226177779982634330e-01 1.461790648569945006e+00
2.235794098684184827e-01 1.340352416745091091e+00
2.245410417385735047e-01 1.420475528066635462e+00
2.255026736087285544e-01 1.080059399668407139e+00
2.264643054788835763e-01 8.601224305981887142e-01
2.274259373490385983e-01 9.859284543332513806e-01
2.283875692191935924e-01 9.690806068875907897e-01
2.293492010893486421e-01 5.571530505009683054e-01
2.303108329595036641e-01 6.109667781107290807e-01
2.312724648296586860e-01 7.259503440778978245e-01
2.322340966998137357e-01 7.325397143198344452e-01
2.331957285699687299e-01 4.779689493893357621e-01
2.341573604401237518e-01 7.440950646739068475e-01
2.351189923102787738e-01 6.976388391991363847e-01
2.360806241804338235e-01 6.594103634522490154e-01
2.370422560505888454e-01 7.579824622239499377e-01
2.380038879207438951e-01 4.543158592349243463e-01
2.389655197908988615e-01 3.635075744010478616e-01
2.399271516610539112e-01 3.292349934547331713e-01
2.408887835312089332e-01 3.514111911542165956e-01
2.418504154013639829e-01 1.740142636024621936e-01
2.428120472715190048e-01 2.412286700469010725e-01
2.437736791416740267e-01 8.152290647647220112e-02
2.447353110118290209e-01 2.228439136508484353e-01
2.456969428819840706e-01 3.618464578804534426e-01
2.466585747521390926e-01 4.949216120871575697e-01
2.476202066222941145e-01 2.766437626902806812e-01
2.485818384924491642e-01 5.753160808854929087e-01
2.495434703626041584e-01 6.640830928347156714e-01
2.505051022327591803e-01 5.150935304265615855e-01
2.514667341029142023e-01 7.527324273521145415e-01
2.524283659730692242e-01 8.750234084355383857e-01
2.533899978432243016e-01 6.373207632383426358e-01
2.543516297133793236e-01 6.953764049749899812e-01
2.553132615835342900e-01 2.541187352170659608e-01
2.562748934536893120e-01 2.628261612146651771e-01
2.572365253238443894e-01 4.389857267210679481e-01
2.581981571939994113e-01 3.756835672966971629e-01
2.591597890641544333e-01 4.195366689366508695e-01
2.601214209343094552e-01 3.362536468794630196e-01
2.610830528044644772e-01 5.373130659308564816e-01
2.620446846746194991e-01 5.854364262816105224e-01
2.630063165447745210e-01 5.186603340976638776e-01
2.639679484149295430e-01 5.495390479338375656e-01
2.649295802850845649e-01 6.212782454548424482e-01
2.658912121552395869e-01 5.407327290108270290e-01
2.668528440253946088e-01 4.847544129703358351e-01
2.678144758955496307e-01 7.909735936453614613e-01
2.687761077657046527e-01 8.434623750170651135e-01
2.697377396358597301e-01 6.805362047729666131e-01
2.706993715060147521e-01 5.736109443220342996e-01
2.716610033761697185e-01 8.126487125792891675e-01
2.726226352463247404e-01 6.843548248830018110e-01
2.735842671164798179e-01 6.080035821657006068e-01
2.745458989866348398e-01 8.917031300272313388e-01
2.755075308567898618e-01 8.050628891878979232e-01
2.764691627269448837e-01 7.022296941097572187e-01
2.774307945970999056e-01 8.275568633122638573e-01
2.783924264672549276e-01 8.163177850853600148e-01
2.793540583374099495e-01 7.443308718234931121e-01
2.803156902075649715e-01 8.455906342650685303e-01
2.812773220777199934e-01 7.066368923610575337e-01
2.822389539478750153e-01 6.990106879284496699e-01
2.832005858180300373e-01 6.379549578365626417e-01
2.841622176881850592e-01 6.307736587782457605e-01
2.851238495583400812e-01 9.554946362501723911e-01
2.860854814284951586e-01 1.207918452715425417e+00
2.870471132986501805e-01 9.900507247373866448e-01
2.880087451688051470e-01 8.236599115443787866e-01
2.889703770389601689e-01 8.133372131869407440e-01
2.899320089091152464e-01 9.193548399844040375e-01
2.908936407792702683e-01 1.083716920476863521e+00
2.918552726494252902e-01 1.127948421524678224e+00
2.928169045195803122e-01 9.622280045861444364e-01
2.937785363897353341e-01 9.779963710227903562e-01
2.947401682598903561e-01 1.079506393730994773e+00
2.957018001300453780e-01 8.776752449984037696e-01
2.966634320002003999e-01 8.144118699043616516e-01
2.976250638703554219e-01 9.899639130593875791e-01
2.985866957405104993e-01 1.205712032896791186e+00
2.995483276106654658e-01 1.018190992681326179e+00
3.005099594808204877e-01 1.014092213358267713e+00
3.014715913509755651e-01 8.639285541790364675e-01
3.024332232211305871e-01 8.201385976033144232e-01
3.033948550912856090e-01 6.683088203945786177e-01
3.043564869614405755e-01 6.025988345264750023e-01
3.053181188315956529e-01 7.692500144568690246e-01
3.062797507017506748e-01 8.195833779486534354e-01
3.072413825719056968e-01 8.870261441331699359e-01
3.082030144420607187e-01 6.749874280963226170e-01
3.091646463122157407e-01 5.200983994996448700e-01
3.101262781823707626e-01 3.858920958411289348e-01
3.110879100525257845e-01 2.902258250043736609e-01
3.120495419226808065e-01 4.737094875377039216e-01
3.130111737928358284e-01 6.751627903960546462e-01
3.139728056629909059e-01 5.409515361661689781e-01
3.149344375331459278e-01 4.592381214643239673e-01
3.158960694033008942e-01 5.566952627720525015e-01
3.168577012734559162e-01 5.178446688337174919e-01
3.178193331436109936e-01 5.165760105824830362e-01
3.187809650137660156e-01 5.600564635211640052e-01
3.197425968839210375e-01 6.033683346055482843e-01
3.207042287540760039e-01 5.892978289343382414e-01
3.216658606242310814e-01 6.038511830346600107e-01
3.226274924943861033e-01 6.393803439982832515e-01
3.235891243645411253e-01 6.443622886009947592e-01
3.245507562346961472e-01 4.960113915076611590e-01
3.255123881048511691e-01 4.926347037542662122e-01
3.264740199750061911e-01 4.283660344527504549e-01
3.274356518451612130e-01 4.524526521483878128e-01
3.283972837153162350e-01 2.647636153208026144e-01
3.293589155854712569e-01 3.850015170140927978e-01
3.303205474556263344e-01 3.428908842662394818e-01
3.312821793257813563e-01 2.809049094351330211e-01
3.322438111959363227e-01 2.307417610577360279e-01
3.332054430660913447e-01 3.413670079290405113e-01
3.341670749362464221e-01 4.419608282732241378e-01
3.351287068064014441e-01 2.490251583284326387e-01
3.360903386765564660e-01 3.511577087746466930e-01
3.370519705467114324e-01 1.022295307955722876e-01
3.380136024168665099e-01 1.407573949863056839e-01
3.389752342870215318e-01 3.632548014457626095e-01
3.399368661571765537e-01 3.773945992798637405e-01
3.408984980273315757e-01 1.004218895343242934e-01
3.418601298974865976e-01 0.000000000000000000e+00
3.428217617676416196e-01 1.109187187702822541e-01
3.437833936377966415e-01 2.257627881485682053e-01
3.447450255079516634e-01 2.703156178669772203e-01
3.457066573781066854e-01 2.838804396728420443e-01
3.466682892482617628e-01 2.892756838078263115e-01
3.476299211184167848e-01 1.183169809537787387e-01
3.485915529885717512e-01 2.617140564333801933e-01
3.495531848587267731e-01 3.098746941129135735e-01
3.505148167288818506e-01 1.832050493988326423e-01
3.514764485990368725e-01 1.037508887742966124e-01
3.524380804691918945e-01 2.705096612375008647e-01
3.533997123393468609e-01 3.872532132861508103e-01
3.543613442095019384e-01 8.459675797278265463e-02
3.553229760796569603e-01 1.301071887382754255e-01
3.562846079498119822e-01 1.366415170525066003e-01
3.572462398199670042e-01 2.264231681273329855e-01
3.582078716901220261e-01 3.268264069496034097e-01
3.591695035602770480e-01 3.881484720736949612e-01
3.601311354304320700e-01 2.790406983131425989e-01
3.610927673005870919e-01 3.244320033810339510e-01
3.620543991707421139e-01 3.337194765320283807e-01
3.630160310408971913e-01 3.141402307425629203e-01
3.639776629110522133e-01 3.287608607920518011e-01
3.649392947812071797e-01 3.338209362513850920e-01
3.659009266513622016e-01 4.108614483081822755e-01
3.668625585215172791e-01 5.602528246767057851e-01
3.678241903916723010e-01 3.872818592910007851e-01
3.687858222618273230e-01 3.906372278695648959e-01
3.697474541319822894e-01 4.643197516429964367e-01
3.707090860021373668e-01 3.797399532032841307e-01
3.716707178722923888e-01 3.092343360672309416e-01
3.726323497424474107e-01 3.757056731076815481e-01
3.735939816126024327e-01 5.414591656830012312e-01
3.745556134827574546e-01 3.918278361650031627e-01
3.755172453529124765e-01 1.813518842656769436e-01
3.764788772230674985e-01 2.756779932663135924e-01
3.774405090932225204e-01 2.675141481864429238e-01
3.784021409633775423e-01 3.575792292373307646e-01
3.793637728335326198e-01 4.528061716882731957e-01
3.803254047036876417e-01 3.797599601505297073e-01
3.812870365738426082e-01 3.887005258882503256e-01
3.822486684439976301e-01 3.874056054998540333e-01
3.832103003141527076e-01 3.990517148542558346e-01
3.841719321843077295e-01 2.394140274841980442e-01
3.851335640544627514e-01 2.833615448074198184e-01
3.860951959246177734e-01 4.653012530343403341e-01
3.870568277947727953e-01 3.814501347287908573e-01
3.880184596649278173e-01 4.564515692493955612e-01
3.889800915350828392e-01 4.678080358077494338e-01
3.899417234052378611e-01 4.173038995754403402e-01
3.909033552753928831e-01 2.885671749715754686e-01
3.918649871455479050e-01 3.876299959674476270e-01
3.928266190157029270e-01 5.082668498029327964e-01
3.937882508858579489e-01 5.350276366394410843e-01
3.947498827560129708e-01 4.729494891267798096e-01
3.957115146261680483e-01 5.747972637693550269e-01
3.966731464963230702e-01 6.165741972408795846e-01
3.976347783664780366e-01 6.111476414583663086e-01
3.985964102366330586e-01 5.872319389297686598e-01
3.995580421067881360e-01 5.746740248122179651e-01
4.005196739769430470e-01 3.745359443696258950e-01
4.014813058470981244e-01 2.269546954307450903e-01
4.024429377172531463e-01 5.174609936990108849e-01
4.034045695874082238e-01 4.852430990978469083e-01
