# q (1/Angstrom), Intensity (arb)
2.067508526570814575e-02 5.984551824812004952e+02
2.163671713586316769e-02 6.242413710563770337e+02
2.259834900601819310e-02 6.443847894006570414e+02
2.355998087617321851e-02 6.532526147019084419e+02
2.452161274632824739e-02 6.525634835557339102e+02
2.548324461648326933e-02 6.516833060738395034e+02
2.644487648663829821e-02 6.502792713676241192e+02
2.740650835679332709e-02 6.516113219433117365e+02
2.836814022694834903e-02 6.501326873867053564e+02
2.932977209710337443e-02 6.469938701754374506e+02
3.029140396725839637e-02 6.402098940832606786e+02
3.125303583741342178e-02 6.331490512692030279e+02
3.221466770756845066e-02 6.281683152230465339e+02
3.317629957772347260e-02 6.231665666973910902e+02
3.413793144787850148e-02 6.211088602218022743e+02
3.509956331803352342e-02 6.168792504605524982e+02
3.606119518818855230e-02 6.146066015008448176e+02
3.702282705834358117e-02 6.109663923001180592e+02
3.798445892849860311e-02 6.028565533938580074e+02
3.894609079865363199e-02 5.966063327191867529e+02
3.990772266880865393e-02 5.876029927524020877e+02
4.086935453896367587e-02 5.805210959704800189e+02
4.183098640911870475e-02 5.739786252573937873e+02
4.279261827927372669e-02 5.696794266327731293e+02
4.375425014942875557e-02 5.609776660816237381e+02
4.471588201958377751e-02 5.517833878532610470e+02
4.567751388973880639e-02 5.439693619413711758e+02
4.663914575989382832e-02 5.326193474157984156e+02
4.760077763004885720e-02 5.279915752718600288e+02
4.856240950020387914e-02 5.205257126336917963e+02
4.952404137035890108e-02 5.084290376207592317e+02
5.048567324051392302e-02 5.019584051225273242e+02
5.144730511066895190e-02 4.929355579177262712e+02
5.240893698082397384e-02 4.827221460022054771e+02
5.337056885097899578e-02 4.705598306422947417e+02
5.433220072113403160e-02 4.597780659192424082e+02
5.529383259128905354e-02 4.524044155321399217e+02
5.625546446144407547e-02 4.423546215024568937e+02
5.721709633159910435e-02 4.307661892009235203e+02
5.817872820175412629e-02 4.211337700784956155e+02
5.914036007190914823e-02 4.111028148336080790e+02
6.010199194206417017e-02 4.013922644672253455e+02
6.106362381221920599e-02 3.900254975971182603e+02
6.202525568237422793e-02 3.788965659939021862e+02
6.298688755252924987e-02 3.693389853291778309e+02
6.394851942268428568e-02 3.594693992578590382e+02
6.491015129283930762e-02 3.481076740688642985e+02
6.587178316299432956e-02 3.379830755013345538e+02
6.683341503314935150e-02 3.277622412399780387e+02
6.779504690330438732e-02 3.199388758897366642e+02
6.875667877345940926e-02 3.109092503168894268e+02
6.971831064361443120e-02 3.006280164485357886e+02
7.067994251376945314e-02 2.902146790913746486e+02
7.164157438392447508e-02 2.813488349283867365e+02
7.260320625407949702e-02 2.735605248104003522e+02
7.356483812423453283e-02 2.637209937010604790e+02
7.452646999438955477e-02 2.566798985960918458e+02
7.548810186454457671e-02 2.467339238739349128e+02
7.644973373469959865e-02 2.382823433209089501e+02
7.741136560485463447e-02 2.296221033516391401e+02
7.837299747500965641e-02 2.213696191054051212e+02
7.933462934516467835e-02 2.133345228154926474e+02
8.029626121531971417e-02 2.049398189440548208e+02
8.125789308547473611e-02 1.975357254739542725e+02
8.221952495562975805e-02 1.885446729131958534e+02
8.318115682578479386e-02 1.822898171492851134e+02
8.414278869593981580e-02 1.752652130417887975e+02
8.510442056609483774e-02 1.674663044308798305e+02
8.606605243624985968e-02 1.605324691771190544e+02
8.702768430640489550e-02 1.539601885589969754e+02
8.798931617655991744e-02 1.477949654480169670e+02
8.895094804671493938e-02 1.409313276844019924e+02
8.991257991686996132e-02 1.343057109669921658e+02
9.087421178702498326e-02 1.284308616604913027e+02
9.183584365718000520e-02 1.223906652148212260e+02
9.279747552733502713e-02 1.160485392793094661e+02
9.375910739749006295e-02 1.110449336015751385e+02
9.472073926764508489e-02 1.060078863416364072e+02
9.568237113780010683e-02 1.012585835380106829e+02
9.664400300795514265e-02 9.570892182412806903e+01
9.760563487811016459e-02 8.963100626807585058e+01
9.856726674826518653e-02 8.503945388781068004e+01
9.952889861842022234e-02 8.076224786497969887e+01
1.004905304885752443e-01 7.611503583154694752e+01
1.014521623587302801e-01 7.210540495300254804e+01
1.024137942288853020e-01 6.729765964550956880e+01
1.033754260990403240e-01 6.338340436603039052e+01
1.043370579691953459e-01 5.969057665004606861e+01
1.052986898393503817e-01 5.617727878829468580e+01
1.062603217095053898e-01 5.264041377364506502e+01
1.072219535796604256e-01 4.967102799976775884e+01
1.081835854498154614e-01 4.646958975222260335e+01
1.091452173199704695e-01 4.313916760387614602e+01
1.101068491901255053e-01 4.027664545841895460e+01
1.110684810602805411e-01 3.718971233938993493e+01
1.120301129304355492e-01 3.417317298064190823e+01
1.129917448005905850e-01 3.160631143482410721e+01
1.139533766707456208e-01 2.960660953095790049e+01
1.149150085409006289e-01 2.764710858923045578e+01
1.158766404110556647e-01 2.569066782355969636e+01
1.168382722812106728e-01 2.364136039503512521e+01
1.177999041513657086e-01 2.143735679473371647e+01
1.187615360215207305e-01 1.943057211316741828e+01
1.197231678916757525e-01 1.787907358132162372e+01
1.206847997618307744e-01 1.631326241829808765e+01
1.216464316319858102e-01 1.506218569652792993e+01
1.226080635021408183e-01 1.290996949228456359e+01
1.235696953722958541e-01 1.161778801977667541e+01
1.245313272424508899e-01 1.050248388128727228e+01
1.254929591126059119e-01 9.340869428723657109e+00
1.264545909827609338e-01 8.459553322340610748e+00
1.274162228529159557e-01 7.751829317662419783e+00
1.283778547230709777e-01 7.090905451101125578e+00
1.293394865932259996e-01 6.201228727070155600e+00
1.303011184633810493e-01 5.232906126395629798e+00
1.312627503335360435e-01 4.336791714379913287e+00
1.322243822036910932e-01 3.661247974575175590e+00
1.331860140738460874e-01 3.544248558933631443e+00
1.341476459440011371e-01 2.831039186925028872e+00
1.351092778141561590e-01 2.462269775405921735e+00
1.360709096843111809e-01 2.326848018321371114e+00
1.370325415544662029e-01 1.877990946670443861e+00
1.379941734246212526e-01 1.382609248621768927e+00
1.389558052947762468e-01 1.226187376508889315e+00
1.399174371649312965e-01 1.293344582536771981e+00
1.408790690350863184e-01 8.688387915534825368e-01
1.418407009052413403e-01 1.135832690037023696e+00
1.428023327753963623e-01 1.337806419572636685e+00
1.437639646455513842e-01 1.189740562988365724e+00
1.447255965157064062e-01 1.000422700774993956e+00
1.456872283858614281e-01 1.007472834382188154e+00
1.466488602560164778e-01 1.147551435232042394e+00
1.476104921261714720e-01 1.099108090941840032e+00
1.485721239963265217e-01 1.252075978684299429e+00
1.495337558664815436e-01 1.270449892170994133e+00
1.504953877366365655e-01 1.271964402903034141e+00
1.514570196067915875e-01 1.408386452094976704e+00
1.524186514769466094e-01 1.490244089504937364e+00
1.533802833471016314e-01 1.867798215787161098e+00
1.543419152172566811e-01 1.991798375623318407e+00
1.553035470874116752e-01 2.126565870059451413e+00
1.562651789575667249e-01 2.360211615608026392e+00
1.572268108277217469e-01 2.382277519779226083e+00
1.581884426978767688e-01 2.759318505946708910e+00
1.591500745680317908e-01 2.847598854959279890e+00
1.601117064381868405e-01 2.900963344038625991e+00
1.610733383083418346e-01 3.499718736082364501e+00
1.620349701784968843e-01 3.643209397142669559e+00
1.629966020486519063e-01 3.811101766739351859e+00
1.639582339188069282e-01 4.097116951057966361e+00
1.649198657889619501e-01 4.045361355221523070e+00
1.658814976591169721e-01 3.971547488327949793e+00
1.668431295292719940e-01 4.071934457540976382e+00
1.678047613994270160e-01 4.341854488977606508e+00
1.687663932695820379e-01 4.389093180942964523e+00
1.697280251397370598e-01 4.731131773291146203e+00
1.706896570098921095e-01 4.750859987603416101e+00
1.716512888800471037e-01 4.877639517310559114e+00
1.726129207502021534e-01 4.969083354813303544e+00
1.735745526203571754e-01 5.113565193205683812e+00
1.745361844905121973e-01 4.965020147175930987e+00
1.754978163606672192e-01 5.026471879707330004e+00
1.764594482308222689e-01 5.256683322864940777e+00
1.774210801009772631e-01 5.475133662113204736e+00
1.783827119711323128e-01 5.579424939474961320e+00
1.793443438412873348e-01 5.846205771759347414e+00
1.803059757114423567e-01 5.897597259025669558e+00
1.812676075815973786e-01 5.642506867673692028e+00
1.822292394517524006e-01 5.542667660387699868e+00
1.831908713219074225e-01 5.608358890495512838e+00
1.841525031920624444e-01 5.537809257287435116e+00
1.851141350622174664e-01 5.647951915140613011e+00
1.860757669323724883e-01 5.658601148596350328e+00
1.870373988025275380e-01 5.548864285426791554e+00
1.879990306726825322e-01 5.413363365407704464e+00
1.889606625428375819e-01 5.325386947042861863e+00
1.899222944129926038e-01 5.353450818088493435e+00
1.908839262831476258e-01 5.160065383791977212e+00
1.918455581533026477e-01 4.824568682297144306e+00
1.928071900234576974e-01 5.065946490079426212e+00
1.937688218936126916e-01 4.845578719766951536e+00
1.947304537637677413e-01 4.452440036852092220e+00
1.956920856339227632e-01 4.667044291932239020e+00
1.966537175040777852e-01 4.596914701793089364e+00
1.976153493742328071e-01 4.444731675954002981e+00
1.985769812443878291e-01 4.117066223689153759e+00
1.995386131145428510e-01 3.919138012068287935e+00
2.005002449846978729e-01 4.160999747938209481e+00
2.014618768548528949e-01 4.152275444958338113e+00
2.024235087250079168e-01 4.229616470699845365e+00
2.033851405951629665e-01 3.749121418118559035e+00
2.043467724653179884e-01 3.538832851175872207e+00
2.053084043354730381e-01 3.453850908970995448e+00
2.062700362056280046e-01 2.985387758482954013e+00
2.072316680757830543e-01 3.058344916928305679e+00
2.081932999459380762e-01 3.069071322859983297e+00
2.091549318160931259e-01 2.931873608875044113e+00
2.101165636862481478e-01 2.682110515506661130e+00
2.110781955564031698e-01 2.647257903021866809e+00
2.120398274265581640e-01 2.415388986426172835e+00
2.130014592967132137e-01 2.454274353325196500e+00
2.139630911668682356e-01 2.610832382627204851e+00
2.149247230370232575e-01 2.392385598484526810e+00
2.158863549071783072e-01 1.956358177214109872e+00
2.168479867773333014e-01 1.944475197112751630e+00
2.178096186474883234e-01 1.899995611857494993e+00
2.187712505176433453e-01 1.878324797496247811e+00
2.197328823877983950e-01 1.345256014437886449e+00
2.206945142579534169e-01 1.406105058962364041e+00
2.216561461281084666e-01 1.542704949225093713e+00
2.226177779982634330e-01 1.200462659432954382e+00
2.235794098684184827e-01 1.055381599480448074e+00
2.245410417385735047e-01 1.196537338643121728e+00
2.255026736087285544e-01 1.046673469346522722e+00
2.264643054788835763e-01 1.067572892065928869e+00
2.274259373490385983e-01 1.073688618776639458e+00
2.283875692191935924e-01 8.715247460377710809e-01
2.293492010893486421e-01 7.190320588560439319e-01
2.303108329595036641e-01 6.245987329183755321e-01
2.312724648296586860e-01 7.201166167884061053e-01
2.322340966998137357e-01 6.459245138701383837e-01
2.331957285699687299e-01 6.020161501739131893e-01
2.341573604401237518e-01 8.418991970607621056e-01
2.351189923102787738e-01 8.428780461281348835e-01
2.360806241804338235e-01 6.752188598837705058e-01
2.370422560505888454e-01 4.885993107429804638e-01
2.380038879207438951e-01 1.725757680084356593e-01
2.389655197908988615e-01 2.220559973647020513e-01
2.399271516610539112e-01 2.179660162600534079e-01
2.408887835312089332e-01 2.900516850182910389e-01
2.418504154013639829e-01 1.919517996704840357e-01
2.428120472715190048e-01 7.999908892053042564e-02
2.437736791416740267e-01 1.622637869788938758e-01
2.447353110118290209e-01 3.100117477740695904e-01
2.456969428819840706e-01 4.041344916468894155e-01
2.466585747521390926e-01 4.971317970936333097e-01
2.476202066222941145e-01 2.634352286460988068e-01
2.485818384924491642e-01 2.123994641933109051e-01
2.495434703626041584e-01 3.526553648290082776e-01
2.505051022327591803e-01 4.038952380910778572e-01
2.514667341029142023e-01 3.553819814203542649e-01
2.524283659730692242e-01 4.430744276334372955e-01
2.533899978432243016e-01 3.810777790703632206e-01
2.543516297133793236e-01 5.259471793718937249e-01
2.553132615835342900e-01 4.351102531487178737e-01
2.562748934536893120e-01 3.459538541472184647e-01
2.572365253238443894e-01 2.724110176571414854e-01
2.581981571939994113e-01 3.086725052622796284e-01
2.591597890641544333e-01 3.662082700737769869e-01
2.601214209343094552e-01 5.906813459055655358e-01
2.610830528044644772e-01 4.710409585814403499e-01
2.620446846746194991e-01 3.427126697508704467e-01
2.630063165447745210e-01 2.559423613472198156e-01
2.639679484149295430e-01 3.069394672392000700e-01
2.649295802850845649e-01 4.370156465380823363e-01
2.658912121552395869e-01 5.246764864643012061e-01
2.668528440253946088e-01 4.915239479902382413e-01
2.678144758955496307e-01 6.895513915253630444e-01
2.687761077657046527e-01 8.427921570972998211e-01
2.697377396358597301e-01 9.482575436316480477e-01
2.706993715060147521e-01 9.772223920077358628e-01
2.716610033761697185e-01 9.217639177464249656e-01
2.726226352463247404e-01 6.462660852332540173e-01
2.735842671164798179e-01 8.188342033511872842e-01
2.745458989866348398e-01 9.488897424079780762e-01
2.755075308567898618e-01 9.332576099692850846e-01
2.764691627269448837e-01 7.905500196202410734e-01
2.774307945970999056e-01 7.581047872626847095e-01
2.783924264672549276e-01 8.973653413868483142e-01
2.793540583374099495e-01 7.734196429754476299e-01
2.803156902075649715e-01 5.614405799325830060e-01
2.812773220777199934e-01 5.592456283413440588e-01
2.822389539478750153e-01 7.936013433749522505e-01
2.832005858180300373e-01 8.363372815228125035e-01
2.841622176881850592e-01 9.629566233946000864e-01
2.851238495583400812e-01 8.731160123609384982e-01
2.860854814284951586e-01 9.058693052374877652e-01
2.870471132986501805e-01 1.025418818937264831e+00
2.880087451688051470e-01 1.003449385910535341e+00
2.889703770389601689e-01 8.198087049602982290e-01
2.899320089091152464e-01 6.998737423209888675e-01
2.908936407792702683e-01 8.481966495356410007e-01
2.918552726494252902e-01 8.447471458908673014e-01
2.928169045195803122e-01 9.406176861787862720e-01
2.937785363897353341e-01 8.639442237479215692e-01
2.947401682598903561e-01 8.331325214772462573e-01
2.957018001300453780e-01 8.766328656422217591e-01
2.966634320002003999e-01 7.886227715135660787e-01
2.976250638703554219e-01 6.694933070514643703e-01
2.985866957405104993e-01 7.067316178949667460e-01
2.995483276106654658e-01 6.166760507349096088e-01
3.005099594808204877e-01 7.376509377427566960e-01
3.014715913509755651e-01 7.366894225520432826e-01
3.024332232211305871e-01 5.664272889619468287e-01
3.033948550912856090e-01 4.875623740292205355e-01
3.043564869614405755e-01 3.843578430841958493e-01
3.053181188315956529e-01 6.569599179037339809e-01
3.062797507017506748e-01 7.143503879039130311e-01
3.072413825719056968e-01 4.243364072805526632e-01
3.082030144420607187e-01 6.523266576127362271e-01
3.091646463122157407e-01 1.034742930640838665e+00
3.101262781823707626e-01 7.678746779727561034e-01
3.110879100525257845e-01 5.250079644225706943e-01
3.120495419226808065e-01 4.760936496030510057e-01
3.130111737928358284e-01 2.945764118135194565e-01
3.139728056629909059e-01 3.519561182572381597e-01
3.149344375331459278e-01 3.017809864716198831e-01
3.158960694033008942e-01 4.619374790749297688e-01
3.168577012734559162e-01 5.106643574290394838e-01
3.178193331436109936e-01 6.794304753183944001e-01
3.187809650137660156e-01 8.050078221359058261e-01
3.197425968839210375e-01 6.672852227209951081e-01
3.207042287540760039e-01 4.487767512818621185e-01
3.216658606242310814e-01 4.064672912105073976e-01
3.226274924943861033e-01 2.825804939060532206e-01
3.235891243645411253e-01 3.324240972950711637e-01
3.245507562346961472e-01 2.860175647859364290e-01
3.255123881048511691e-01 2.024893533780129928e-01
3.264740199750061911e-01 2.843173896224975294e-01
3.274356518451612130e-01 3.212461744678840603e-01
3.283972837153162350e-01 1.797538437608245943e-01
3.293589155854712569e-01 1.212290693629469729e-01
3.303205474556263344e-01 1.307736543312003619e-01
3.312821793257813563e-01 2.146190825726037588e-01
3.322438111959363227e-01 3.350970984417251941e-01
3.332054430660913447e-01 5.051849759497422099e-01
3.341670749362464221e-01 4.302395442556914418e-01
3.351287068064014441e-01 4.552324977914850024e-01
3.360903386765564660e-01 2.664488686226320624e-01
3.370519705467114324e-01 2.748288794569582194e-01
3.380136024168665099e-01 1.475633827500928419e-01
3.389752342870215318e-01 2.379711082705782133e-02
3.399368661571765537e-01 2.970993055397528337e-01
3.408984980273315757e-01 3.156543493808534606e-01
3.418601298974865976e-01 3.022978657674393332e-01
3.428217617676416196e-01 3.817925774662569438e-01
3.437833936377966415e-01 3.410441946152573678e-01
3.447450255079516634e-01 3.679238855272011222e-01
3.457066573781066854e-01 5.250372260162166071e-01
3.466682892482617628e-01 5.462285518777107995e-01
3.476299211184167848e-01 5.365547458685142601e-01
3.485915529885717512e-01 3.089869787450787442e-01
3.495531848587267731e-01 4.354057892335667646e-01
3.505148167288818506e-01 3.761634834731175658e-01
3.514764485990368725e-01 2.434564646451562453e-01
3.524380804691918945e-01 2.944324483746427745e-01
3.533997123393468609e-01 3.087852424036441334e-01
3.543613442095019384e-01 1.366685895967698627e-01
3.553229760796569603e-01 1.391927658117850797e-01
3.562846079498119822e-01 1.070245543913159736e-01
3.572462398199670042e-01 1.872001349620049382e-01
3.582078716901220261e-01 2.334428959476007037e-01
3.591695035602770480e-01 5.441075431023278952e-02
3.601311354304320700e-01 2.418910433775494084e-01
3.610927673005870919e-01 3.241695766263212874e-01
3.620543991707421139e-01 3.213366237056547448e-01
3.630160310408971913e-01 2.310668472638859328e-01
3.639776629110522133e-01 2.905954146268605598e-01
3.649392947812071797e-01 1.515303501284321896e-01
3.659009266513622016e-01 2.438044025080081667e-01
3.668625585215172791e-01 4.486331147351449999e-01
3.678241903916723010e-01 3.472757651341105145e-01
3.687858222618273230e-01 2.979287726727832819e-01
3.697474541319822894e-01 2.222745771022367478e-01
3.707090860021373668e-01 3.931583335542612190e-01
3.716707178722923888e-01 3.183678885372422940e-01
3.726323497424474107e-01 2.954428288651023138e-01
3.735939816126024327e-01 3.747440901901377686e-01
3.745556134827574546e-01 4.006902869915798249e-01
3.755172453529124765e-01 3.764737077695521350e-01
3.764788772230674985e-01 4.742473631253574240e-01
3.774405090932225204e-01 4.618482167511110958e-01
3.784021409633775423e-01 3.972931262534054042e-01
3.793637728335326198e-01 1.561727408181958765e-01
3.803254047036876417e-01 1.997368608528482525e-01
3.812870365738426082e-01 3.071417267285241337e-01
3.822486684439976301e-01 2.906615718606886389e-01
3.832103003141527076e-01 2.683887756353335874e-01
3.841719321843077295e-01 2.551031369043315067e-01
3.851335640544627514e-01 3.337033596606708841e-01
3.860951959246177734e-01 3.052083130640461661e-01
3.870568277947727953e-01 2.679451211909622543e-01
3.880184596649278173e-01 3.543921386822610486e-01
3.889800915350828392e-01 2.338739795849136271e-01
3.899417234052378611e-01 2.577320034588943543e-01
3.909033552753928831e-01 4.671690888718522672e-01
3.918649871455479050e-01 4.197970955320684538e-01
3.928266190157029270e-01 3.412524258544351596e-01
3.937882508858579489e-01 2.677448984707524460e-01
3.947498827560129708e-01 2.851736166440232978e-01
3.957115146261680483e-01 3.555627988605039036e-01
3.966731464963230702e-01 3.610846724442922095e-01
3.976347783664780366e-01 4.081933562554738160e-01
3.985964102366330586e-01 5.121041257489196141e-01
3.995580421067881360e-01 5.032759126614720913e-01
4.005196739769430470e-01 4.700164129358412879e-01
4.014813058470981244e-01 4.684527273714707007e-01
4.024429377172531463e-01 4.417760659218856745e-01
4.034045695874082238e-01 2.686529396075592047e-01
