# q (1/Angstrom), Intensity (arb)
2.067508526570814575e-02 5.947666132083824095e+02
2.163671713586316769e-02 6.210482876031693422e+02
2.259834900601819310e-02 6.345332668191495031e+02
2.355998087617321851e-02 6.445142061924783548e+02
2.452161274632824739e-02 6.472281527883627632e+02
2.548324461648326933e-02 6.515827325373682015e+02
2.644487648663829821e-02 6.484696641328689566e+02
2.740650835679332709e-02 6.468901148744994316e+02
2.836814022694834903e-02 6.452368478756037575e+02
2.932977209710337443e-02 6.420861442749901471e+02
3.029140396725839637e-02 6.354174974516624843e+02
3.125303583741342178e-02 6.299919920716159822e+02
3.221466770756845066e-02 6.271467870391966244e+02
3.317629957772347260e-02 6.239324435730172809e+02
3.413793144787850148e-02 6.181890384261125746e+02
3.509956331803352342e-02 6.133072301644644995e+02
3.606119518818855230e-02 6.110700422704245511e+02
3.702282705834358117e-02 6.058706571966563388e+02
3.798445892849860311e-02 5.968893412527852433e+02
3.894609079865363199e-02 5.913311024324988239e+02
3.990772266880865393e-02 5.867340824891724651e+02
4.086935453896367587e-02 5.817994940462928071e+02
4.183098640911870475e-02 5.762125299782978800e+02
4.279261827927372669e-02 5.632963598482149337e+02
4.375425014942875557e-02 5.543231960610328315e+02
4.471588201958377751e-02 5.466642838524301169e+02
4.567751388973880639e-02 5.412650802471523548e+02
4.663914575989382832e-02 5.333349069150327750e+02
4.760077763004885720e-02 5.237318563193446153e+02
4.856240950020387914e-02 5.139893392653031015e+02
4.952404137035890108e-02 5.047101777787262904e+02
5.048567324051392302e-02 4.975409445505973167e+02
5.144730511066895190e-02 4.907283741466558240e+02
5.240893698082397384e-02 4.810234661921374482e+02
5.337056885097899578e-02 4.715445062124928768e+02
5.433220072113403160e-02 4.616366304901691251e+02
5.529383259128905354e-02 4.507617359306390199e+02
5.625546446144407547e-02 4.391991666910131471e+02
5.721709633159910435e-02 4.303972711619016991e+02
5.817872820175412629e-02 4.192469165908473769e+02
5.914036007190914823e-02 4.092214379877103738e+02
6.010199194206417017e-02 3.975979819976803356e+02
6.106362381221920599e-02 3.854951869571122529e+02
6.202525568237422793e-02 3.768693952347055642e+02
6.298688755252924987e-02 3.668043804720523440e+02
6.394851942268428568e-02 3.574540158770678318e+02
6.491015129283930762e-02 3.476657760532352199e+02
6.587178316299432956e-02 3.385472195764239700e+02
6.683341503314935150e-02 3.281896202381491321e+02
6.779504690330438732e-02 3.179226728143747778e+02
6.875667877345940926e-02 3.085311652726683747e+02
6.971831064361443120e-02 3.003814762905107045e+02
7.067994251376945314e-02 2.909091252163774470e+02
7.164157438392447508e-02 2.819724718477716578e+02
7.260320625407949702e-02 2.721740425721138195e+02
7.356483812423453283e-02 2.636883710938150784e+02
7.452646999438955477e-02 2.554305891483957112e+02
7.548810186454457671e-02 2.448232058752358284e+02
7.644973373469959865e-02 2.376188533477491092e+02
7.741136560485463447e-02 2.293920151590223782e+02
7.837299747500965641e-02 2.211626048700177591e+02
7.933462934516467835e-02 2.121660302436800976e+02
8.029626121531971417e-02 2.054198760221979398e+02
8.125789308547473611e-02 1.983071880806908212e+02
8.221952495562975805e-02 1.898823969226899919e+02
8.318115682578479386e-02 1.809497201517270923e+02
8.414278869593981580e-02 1.736401895960817399e+02
8.510442056609483774e-02 1.677347998126673758e+02
8.606605243624985968e-02 1.604861433998198663e+02
8.702768430640489550e-02 1.536960289372590580e+02
8.798931617655991744e-02 1.475732097399550184e+02
8.895094804671493938e-02 1.403014144800877148e+02
8.991257991686996132e-02 1.335281958511585287e+02
9.087421178702498326e-02 1.278602070268006372e+02
9.183584365718000520e-02 1.221854849320477285e+02
9.279747552733502713e-02 1.160703487930329061e+02
9.375910739749006295e-02 1.109978179933850129e+02
9.472073926764508489e-02 1.052172360244527738e+02
9.568237113780010683e-02 1.000035290512927020e+02
9.664400300795514265e-02 9.396038904247491530e+01
9.760563487811016459e-02 8.909406411972412343e+01
9.856726674826518653e-02 8.468027408124464728e+01
9.952889861842022234e-02 8.017822734392444772e+01
1.004905304885752443e-01 7.569048918495285250e+01
1.014521623587302801e-01 7.149325816274347289e+01
1.024137942288853020e-01 6.659003888218953193e+01
1.033754260990403240e-01 6.350913452411853655e+01
1.043370579691953459e-01 6.040051335338122840e+01
1.052986898393503817e-01 5.662806883964476867e+01
1.062603217095053898e-01 5.281067749547021606e+01
1.072219535796604256e-01 4.895434779279126758e+01
1.081835854498154614e-01 4.555955201827483592e+01
1.091452173199704695e-01 4.243312390230958897e+01
1.101068491901255053e-01 3.994987105119582083e+01
1.110684810602805411e-01 3.746118437094570908e+01
1.120301129304355492e-01 3.421477004894286722e+01
1.129917448005905850e-01 3.160962770717002712e+01
1.139533766707456208e-01 2.988963374314915455e+01
1.149150085409006289e-01 2.788315213314697161e+01
1.158766404110556647e-01 2.567039352292470511e+01
1.168382722812106728e-01 2.381745376126540492e+01
1.177999041513657086e-01 2.177871011841644133e+01
1.187615360215207305e-01 1.973805974269695085e+01
1.197231678916757525e-01 1.819282798855782701e+01
1.206847997618307744e-01 1.635489131697470100e+01
1.216464316319858102e-01 1.487523893237087691e+01
1.226080635021408183e-01 1.340093948773679600e+01
1.235696953722958541e-01 1.210649756152379553e+01
1.245313272424508899e-01 1.067422716117503967e+01
1.254929591126059119e-01 9.321464478647165208e+00
1.264545909827609338e-01 8.406025178752980054e+00
1.274162228529159557e-01 7.673534024814394172e+00
1.283778547230709777e-01 6.992275467028392200e+00
1.293394865932259996e-01 6.228761732515458505e+00
1.303011184633810493e-01 4.896540473028547780e+00
1.312627503335360435e-01 4.377719009558902030e+00
1.322243822036910932e-01 3.944285391633595594e+00
1.331860140738460874e-01 3.723945783941122301e+00
1.341476459440011371e-01 2.929218552865336278e+00
1.351092778141561590e-01 2.249138834361971817e+00
1.360709096843111809e-01 1.915852876776273916e+00
1.370325415544662029e-01 2.025217322071927839e+00
1.379941734246212526e-01 1.732196373578357651e+00
1.389558052947762468e-01 1.434128919940746982e+00
1.399174371649312965e-01 1.688500456735006594e+00
1.408790690350863184e-01 1.168991933003244554e+00
1.418407009052413403e-01 1.157440775340521810e+00
1.428023327753963623e-01 1.409301096492505678e+00
1.437639646455513842e-01 1.128915609111388108e+00
1.447255965157064062e-01 1.171359281772854644e+00
1.456872283858614281e-01 1.053607275559809153e+00
1.466488602560164778e-01 1.369321064883049388e+00
1.476104921261714720e-01 1.318221222503975554e+00
1.485721239963265217e-01 1.448849796087106512e+00
1.495337558664815436e-01 1.501137724418533992e+00
1.504953877366365655e-01 1.811238810707791913e+00
1.514570196067915875e-01 1.650087519117178658e+00
1.524186514769466094e-01 1.793589506844629256e+00
1.533802833471016314e-01 2.113237764127578799e+00
1.543419152172566811e-01 2.486959548001536291e+00
1.553035470874116752e-01 2.305330328239730164e+00
1.562651789575667249e-01 2.517621334439617442e+00
1.572268108277217469e-01 2.640316850088485268e+00
1.581884426978767688e-01 2.932010306345247841e+00
1.591500745680317908e-01 3.036749222995091202e+00
1.601117064381868405e-01 3.115532413486668872e+00
1.610733383083418346e-01 3.615460406415067496e+00
1.620349701784968843e-01 3.565295218335073457e+00
1.629966020486519063e-01 3.545611946593449915e+00
1.639582339188069282e-01 3.574484769638345938e+00
1.649198657889619501e-01 3.824046474490479852e+00
1.658814976591169721e-01 4.233572628456681031e+00
1.668431295292719940e-01 4.316125320201049220e+00
1.678047613994270160e-01 4.401832653463358724e+00
1.687663932695820379e-01 4.434879109618982795e+00
1.697280251397370598e-01 4.324236121438850944e+00
1.706896570098921095e-01 4.209399718913214627e+00
1.716512888800471037e-01 4.654884163917330397e+00
1.726129207502021534e-01 5.146040099301217197e+00
1.735745526203571754e-01 5.454254426347812768e+00
1.745361844905121973e-01 5.265238440888186489e+00
1.754978163606672192e-01 5.412045641904679627e+00
1.764594482308222689e-01 5.431748558963917617e+00
1.774210801009772631e-01 5.648480657491578683e+00
1.783827119711323128e-01 5.888927243083497132e+00
1.793443438412873348e-01 5.653390280115328181e+00
1.803059757114423567e-01 5.607449669202274833e+00
1.812676075815973786e-01 5.956085982081582131e+00
1.822292394517524006e-01 5.826305242657436878e+00
1.831908713219074225e-01 5.698607857251531073e+00
1.841525031920624444e-01 5.620578834268329160e+00
1.851141350622174664e-01 5.632207923106481218e+00
1.860757669323724883e-01 5.427002103813951095e+00
1.870373988025275380e-01 5.445989194777215658e+00
1.879990306726825322e-01 5.673981031489127247e+00
1.889606625428375819e-01 5.503324756902433279e+00
1.899222944129926038e-01 5.211907450636374506e+00
1.908839262831476258e-01 5.314206478449101212e+00
1.918455581533026477e-01 4.854682910874032586e+00
1.928071900234576974e-01 4.905228671331482104e+00
1.937688218936126916e-01 4.718694783248174929e+00
1.947304537637677413e-01 4.551514180605444437e+00
1.956920856339227632e-01 4.860962264292414403e+00
1.966537175040777852e-01 4.769583564844182888e+00
1.976153493742328071e-01 4.611456769099291364e+00
1.985769812443878291e-01 4.274283599751822038e+00
1.995386131145428510e-01 4.088314913398424011e+00
2.005002449846978729e-01 4.226839661746783605e+00
2.014618768548528949e-01 4.331529822028937105e+00
2.024235087250079168e-01 4.200698559767875651e+00
2.033851405951629665e-01 3.650542347628604745e+00
2.043467724653179884e-01 3.654290851390690875e+00
2.053084043354730381e-01 3.654660751207710945e+00
2.062700362056280046e-01 3.355144057520497824e+00
2.072316680757830543e-01 3.130095839963193072e+00
2.081932999459380762e-01 2.938725838006554625e+00
2.091549318160931259e-01 2.984795128630711503e+00
2.101165636862481478e-01 2.855499681963124203e+00
2.110781955564031698e-01 2.546097620174588627e+00
2.120398274265581640e-01 2.356684715939127983e+00
2.130014592967132137e-01 2.461060439332246830e+00
2.139630911668682356e-01 2.411936311026469326e+00
2.149247230370232575e-01 2.141795761824464961e+00
2.158863549071783072e-01 2.067551625770459367e+00
2.168479867773333014e-01 2.024081897549432796e+00
2.178096186474883234e-01 1.975249728108934733e+00
2.187712505176433453e-01 1.834424431493978602e+00
2.197328823877983950e-01 1.387819523084463214e+00
2.206945142579534169e-01 1.411442848272489670e+00
2.216561461281084666e-01 1.526426494370834774e+00
2.226177779982634330e-01 1.345859456146193622e+00
2.235794098684184827e-01 1.397677583980090787e+00
2.245410417385735047e-01 1.093101389366793796e+00
2.255026736087285544e-01 9.718702553544567024e-01
2.264643054788835763e-01 1.023073579274047518e+00
2.274259373490385983e-01 1.047869598506231625e+00
2.283875692191935924e-01 8.832025560638179229e-01
2.293492010893486421e-01 8.781726977910153664e-01
2.303108329595036641e-01 7.080088382904143884e-01
2.312724648296586860e-01 5.444397812969299366e-01
2.322340966998137357e-01 7.734073322908088244e-01
2.331957285699687299e-01 7.489560972268201056e-01
2.341573604401237518e-01 6.471490170829135025e-01
2.351189923102787738e-01 6.652113228328460082e-01
2.360806241804338235e-01 6.195790172689541464e-01
2.370422560505888454e-01 4.378982114885943133e-01
2.380038879207438951e-01 3.662744484401514455e-02
2.389655197908988615e-01 2.784686173866965930e-01
2.399271516610539112e-01 4.193833691208723735e-01
2.408887835312089332e-01 2.921205883032271799e-01
2.418504154013639829e-01 3.383558580779073566e-01
2.428120472715190048e-01 2.219194629841076960e-01
2.437736791416740267e-01 1.559474673453280502e-01
2.447353110118290209e-01 4.346480527213785194e-01
2.456969428819840706e-01 5.116376065470902290e-01
2.466585747521390926e-01 5.205835712640123347e-01
2.476202066222941145e-01 4.872826464431767590e-01
2.485818384924491642e-01 5.182274957496382228e-01
2.495434703626041584e-01 4.065275997551935916e-01
2.505051022327591803e-01 3.213424573023182518e-01
2.514667341029142023e-01 3.228262021383621061e-01
2.524283659730692242e-01 4.923137940720252459e-01
2.533899978432243016e-01 5.218248922151254021e-01
2.543516297133793236e-01 3.866364993003550410e-01
2.553132615835342900e-01 3.341027483515226493e-01
2.562748934536893120e-01 3.118208972303300186e-01
2.572365253238443894e-01 3.171458137221527807e-01
2.581981571939994113e-01 3.138472497549074092e-01
2.591597890641544333e-01 4.066910830693366563e-01
2.601214209343094552e-01 6.161311833446383446e-01
2.610830528044644772e-01 6.394721500406603809e-01
2.620446846746194991e-01 6.599397941390883204e-01
2.630063165447745210e-01 4.091783419519607889e-01
2.639679484149295430e-01 5.775314211097004602e-01
2.649295802850845649e-01 4.932736625315747858e-01
2.658912121552395869e-01 5.881440614762922792e-01
2.668528440253946088e-01 6.492708026969644663e-01
2.678144758955496307e-01 7.722615558144383385e-01
2.687761077657046527e-01 6.559107384419071707e-01
2.697377396358597301e-01 6.639090632269137870e-01
2.706993715060147521e-01 8.241105744209598072e-01
2.716610033761697185e-01 7.143378243456801613e-01
2.726226352463247404e-01 5.449568659748322830e-01
2.735842671164798179e-01 6.823509193243424420e-01
2.745458989866348398e-01 7.633971812137616553e-01
2.755075308567898618e-01 8.726246847348164692e-01
2.764691627269448837e-01 5.972034419768768032e-01
2.774307945970999056e-01 6.228367392464626562e-01
2.783924264672549276e-01 7.915169141375066886e-01
2.793540583374099495e-01 8.854247747732131302e-01
2.803156902075649715e-01 8.625212126278327673e-01
2.812773220777199934e-01 5.825039254987878223e-01
2.822389539478750153e-01 8.116426499654174620e-01
2.832005858180300373e-01 9.541544798767382929e-01
2.841622176881850592e-01 9.586448754377343562e-01
2.851238495583400812e-01 7.673381024427321506e-01
2.860854814284951586e-01 9.148849981963209643e-01
2.870471132986501805e-01 9.585196780869083000e-01
2.880087451688051470e-01 9.800839559560152736e-01
2.889703770389601689e-01 8.793141907089250253e-01
2.899320089091152464e-01 8.652992465088971130e-01
2.908936407792702683e-01 7.670445095546973846e-01
2.918552726494252902e-01 7.848858462892351895e-01
2.928169045195803122e-01 9.391393721910858972e-01
2.937785363897353341e-01 9.648684417609736386e-01
2.947401682598903561e-01 8.597364186739930858e-01
2.957018001300453780e-01 8.522599881359340657e-01
2.966634320002003999e-01 8.298394595649583039e-01
2.976250638703554219e-01 5.914855183663121352e-01
2.985866957405104993e-01 7.496797032365449809e-01
2.995483276106654658e-01 6.661781149781056399e-01
3.005099594808204877e-01 8.309580059435504040e-01
3.014715913509755651e-01 7.526885925473933980e-01
3.024332232211305871e-01 6.102404692791054686e-01
3.033948550912856090e-01 6.393354948195195675e-01
3.043564869614405755e-01 6.134272666012847708e-01
3.053181188315956529e-01 7.686754447628842968e-01
3.062797507017506748e-01 6.434562264593139957e-01
3.072413825719056968e-01 5.074705439259794559e-01
3.082030144420607187e-01 6.896137270713396106e-01
3.091646463122157407e-01 7.456063881511916236e-01
3.101262781823707626e-01 6.712103746864634957e-01
3.110879100525257845e-01 6.607425448129902179e-01
3.120495419226808065e-01 4.060259687259062389e-01
3.130111737928358284e-01 2.854886748204563673e-01
3.139728056629909059e-01 6.417860041470824228e-01
3.149344375331459278e-01 5.489867385936513244e-01
3.158960694033008942e-01 6.089273780809207892e-01
3.168577012734559162e-01 6.113865155361111192e-01
3.178193331436109936e-01 7.473060034724916534e-01
3.187809650137660156e-01 8.012519287166810500e-01
3.197425968839210375e-01 5.678709510389197135e-01
3.207042287540760039e-01 4.634303543846556295e-01
3.216658606242310814e-01 4.661190507705903485e-01
3.226274924943861033e-01 5.257652316220031707e-01
3.235891243645411253e-01 4.594881121373823873e-01
3.245507562346961472e-01 5.427069821450842824e-01
3.255123881048511691e-01 4.899453497426371484e-01
3.264740199750061911e-01 4.067367581618626105e-01
3.274356518451612130e-01 3.892603626889545865e-01
3.283972837153162350e-01 2.400982037614838305e-01
3.293589155854712569e-01 2.442740985720455171e-01
3.303205474556263344e-01 2.237253183444813942e-01
3.312821793257813563e-01 3.159463880968935712e-01
3.322438111959363227e-01 3.337763403184794697e-01
3.332054430660913447e-01 5.569164741211309888e-01
3.341670749362464221e-01 4.985450300045357608e-01
3.351287068064014441e-01 5.432803684625682195e-01
3.360903386765564660e-01 5.418453138962036064e-01
3.370519705467114324e-01 6.036831036305976284e-01
3.380136024168665099e-01 4.548947263668026153e-01
3.389752342870215318e-01 1.304834598871202900e-01
3.399368661571765537e-01 2.795180710832667614e-01
3.408984980273315757e-01 4.940582118515663979e-01
3.418601298974865976e-01 3.240661849065205047e-01
3.428217617676416196e-01 3.709316328393370554e-01
3.437833936377966415e-01 3.210699817278168666e-01
3.447450255079516634e-01 2.518905006022222892e-01
3.457066573781066854e-01 3.820574620519145981e-01
3.466682892482617628e-01 4.760615895395581276e-01
3.476299211184167848e-01 3.841993503624081541e-01
3.485915529885717512e-01 4.071768312659607147e-01
3.495531848587267731e-01 4.315343896037440174e-01
3.505148167288818506e-01 3.154194161550911701e-01
3.514764485990368725e-01 2.153579267037564193e-01
3.524380804691918945e-01 2.151155790842587123e-01
3.533997123393468609e-01 2.550494644501526409e-01
3.543613442095019384e-01 1.077851483414384859e-01
3.553229760796569603e-01 2.373634438857443740e-01
3.562846079498119822e-01 3.815133674576465239e-01
3.572462398199670042e-01 3.563467836069058592e-01
3.582078716901220261e-01 2.292329250488798209e-01
3.591695035602770480e-01 1.424489730269442589e-01
3.601311354304320700e-01 1.058235660321535931e-01
3.610927673005870919e-01 2.525096511464148819e-01
3.620543991707421139e-01 3.213160468884801446e-01
3.630160310408971913e-01 3.290578029981112707e-01
3.639776629110522133e-01 2.510955585899417031e-01
3.649392947812071797e-01 1.349203651481118982e-01
3.659009266513622016e-01 1.910108251018733938e-01
3.668625585215172791e-01 3.733057407158533181e-01
3.678241903916723010e-01 4.591648678585045218e-01
3.687858222618273230e-01 4.929884748877100265e-01
3.697474541319822894e-01 2.888919564956040631e-01
3.707090860021373668e-01 3.118668994590585442e-01
3.716707178722923888e-01 3.761983387238458931e-01
3.726323497424474107e-01 4.067524874591974537e-01
3.735939816126024327e-01 4.815226242172556681e-01
3.745556134827574546e-01 5.334239138861676111e-01
3.755172453529124765e-01 3.192442483290882649e-01
3.764788772230674985e-01 3.939650842734714331e-01
3.774405090932225204e-01 4.088963442917368241e-01
3.784021409633775423e-01 4.711822326993306831e-01
3.793637728335326198e-01 3.804094106795830044e-01
3.803254047036876417e-01 4.293221346233977442e-01
3.812870365738426082e-01 2.981637558792584741e-01
3.822486684439976301e-01 2.019927088423152384e-01
3.832103003141527076e-01 2.947263704488349845e-01
3.841719321843077295e-01 3.437343524730529509e-01
3.851335640544627514e-01 5.067963123227308131e-01
3.860951959246177734e-01 5.120729752776611576e-01
3.870568277947727953e-01 5.592417121545594227e-01
3.880184596649278173e-01 4.601014916693131340e-01
3.889800915350828392e-01 3.549092949277969922e-01
3.899417234052378611e-01 5.051845519049464883e-01
3.909033552753928831e-01 5.122032153065205762e-01
3.918649871455479050e-01 5.739290877104856747e-01
3.928266190157029270e-01 4.888769295194101971e-01
3.937882508858579489e-01 3.524561863149848762e-01
3.947498827560129708e-01 3.890219869039661660e-01
3.957115146261680483e-01 3.105205194500193500e-01
3.966731464963230702e-01 4.131754134243763588e-01
3.976347783664780366e-01 4.225802294407081661e-01
3.985964102366330586e-01 4.642373864090956204e-01
3.995580421067881360e-01 5.353410655613863867e-01
4.005196739769430470e-01 5.082684971166528953e-01
4.014813058470981244e-01 5.217458170020847774e-01
4.024429377172531463e-01 4.296896222872170767e-01
4.034045695874082238e-01 4.516741259458605384e-01
