# q (1/Angstrom), Intensity (arb)
2.067508526570814575e-02 5.767856329671209323e+02
2.163671713586316769e-02 5.993756284497583238e+02
2.259834900601819310e-02 6.191444692341897280e+02
2.355998087617321851e-02 6.242806890213423685e+02
2.452161274632824739e-02 6.242175677857478604e+02
2.548324461648326933e-02 6.260668973911962212e+02
2.644487648663829821e-02 6.254198283886014451e+02
2.740650835679332709e-02 6.200294209707744812e+02
2.836814022694834903e-02 6.218622749711420283e+02
2.932977209710337443e-02 6.216798331052580124e+02
3.029140396725839637e-02 6.170962319139422334e+02
3.125303583741342178e-02 6.130369545032588121e+02
3.221466770756845066e-02 6.072786892017227274e+02
3.317629957772347260e-02 6.036722200649603565e+02
3.413793144787850148e-02 5.992191722526763442e+02
3.509956331803352342e-02 5.931414448219483120e+02
3.606119518818855230e-02 5.928612329677840762e+02
3.702282705834358117e-02 5.863795860817991752e+02
3.798445892849860311e-02 5.812959855715904496e+02
3.894609079865363199e-02 5.717155901751862075e+02
3.990772266880865393e-02 5.675622392687357660e+02
4.086935453896367587e-02 5.616442394048405049e+02
4.183098640911870475e-02 5.545725040943877957e+02
4.279261827927372669e-02 5.471071345421626120e+02
4.375425014942875557e-02 5.369540537614624327e+02
4.471588201958377751e-02 5.303747776615419980e+02
4.567751388973880639e-02 5.228024513724171811e+02
4.663914575989382832e-02 5.142127639218130071e+02
4.760077763004885720e-02 5.065226760758736759e+02
4.856240950020387914e-02 4.984491089368323742e+02
4.952404137035890108e-02 4.929144086599092702e+02
5.048567324051392302e-02 4.844408096821571803e+02
5.144730511066895190e-02 4.738591561136245218e+02
5.240893698082397384e-02 4.653532962256814471e+02
5.337056885097899578e-02 4.566720741113207964e+02
5.433220072113403160e-02 4.453416315843599591e+02
5.529383259128905354e-02 4.349650565450100999e+02
5.625546446144407547e-02 4.273684281639330607e+02
5.721709633159910435e-02 4.185569000449002601e+02
5.817872820175412629e-02 4.058915779932531223e+02
5.914036007190914823e-02 3.954590877646135709e+02
6.010199194206417017e-02 3.854850935484820980e+02
6.106362381221920599e-02 3.762258746407084118e+02
6.202525568237422793e-02 3.656560033609916900e+02
6.298688755252924987e-02 3.557645139376505199e+02
6.394851942268428568e-02 3.471592930555359544e+02
6.491015129283930762e-02 3.382887901619912441e+02
6.587178316299432956e-02 3.284212018601312479e+02
6.683341503314935150e-02 3.188675584085241894e+02
6.779504690330438732e-02 3.085836624688084271e+02
6.875667877345940926e-02 2.988533342281446039e+02
6.971831064361443120e-02 2.902296548360642419e+02
7.067994251376945314e-02 2.808072405616513834e+02
7.164157438392447508e-02 2.722830392149197678e+02
7.260320625407949702e-02 2.644844732038384905e+02
7.356483812423453283e-02 2.554610971572921017e+02
7.452646999438955477e-02 2.480983453647280612e+02
7.548810186454457671e-02 2.382890836857775412e+02
7.644973373469959865e-02 2.304736734580984319e+02
7.741136560485463447e-02 2.228532088339354402e+02
7.837299747500965641e-02 2.143553561073347851e+02
7.933462934516467835e-02 2.071492119551973587e+02
8.029626121531971417e-02 1.983763954812326631e+02
8.125789308547473611e-02 1.906302991780068510e+02
8.221952495562975805e-02 1.838844123025957629e+02
8.318115682578479386e-02 1.769705702901374877e+02
8.414278869593981580e-02 1.693997521743655454e+02
8.510442056609483774e-02 1.625294042302943183e+02
8.606605243624985968e-02 1.555415179707891298e+02
8.702768430640489550e-02 1.488918800079505331e+02
8.798931617655991744e-02 1.424070191831470424e+02
8.895094804671493938e-02 1.359925033814094206e+02
8.991257991686996132e-02 1.298780457589370201e+02
9.087421178702498326e-02 1.236393996059599374e+02
9.183584365718000520e-02 1.178221514742541274e+02
9.279747552733502713e-02 1.129899078209240315e+02
9.375910739749006295e-02 1.079943453041268810e+02
9.472073926764508489e-02 1.028363476384734838e+02
9.568237113780010683e-02 9.768435629358606320e+01
9.664400300795514265e-02 9.238691750684361637e+01
9.760563487811016459e-02 8.706454312564031284e+01
9.856726674826518653e-02 8.191617273864309823e+01
9.952889861842022234e-02 7.771099512049872260e+01
1.004905304885752443e-01 7.391573950125155079e+01
1.014521623587302801e-01 7.016314234449316700e+01
1.024137942288853020e-01 6.563910802740325323e+01
1.033754260990403240e-01 6.150842249254136362e+01
1.043370579691953459e-01 5.834342965720350804e+01
1.052986898393503817e-01 5.425942972555640154e+01
1.062603217095053898e-01 5.099565755503689957e+01
1.072219535796604256e-01 4.809747258120395941e+01
1.081835854498154614e-01 4.474748361225240956e+01
1.091452173199704695e-01 4.183783519785933436e+01
1.101068491901255053e-01 3.940157674954180322e+01
1.110684810602805411e-01 3.712347415517884031e+01
1.120301129304355492e-01 3.413134862892118804e+01
1.129917448005905850e-01 3.106469307642616329e+01
1.139533766707456208e-01 2.853266678273498869e+01
1.149150085409006289e-01 2.607125479956757275e+01
1.158766404110556647e-01 2.416074279793663493e+01
1.168382722812106728e-01 2.207770013043981905e+01
1.177999041513657086e-01 2.027046587024017654e+01
1.187615360215207305e-01 1.903228798102557207e+01
1.197231678916757525e-01 1.749295927209926305e+01
1.206847997618307744e-01 1.577479117529261643e+01
1.216464316319858102e-01 1.403252245302657286e+01
1.226080635021408183e-01 1.317020112857399283e+01
1.235696953722958541e-01 1.180478508591513176e+01
1.245313272424508899e-01 1.035523758282046458e+01
1.254929591126059119e-01 9.611637833170082246e+00
1.264545909827609338e-01 8.961784293700912229e+00
1.274162228529159557e-01 8.014800280284163136e+00
1.283778547230709777e-01 6.958553906495527741e+00
1.293394865932259996e-01 5.727753240098042653e+00
1.303011184633810493e-01 4.955657090879906690e+00
1.312627503335360435e-01 4.353666400449903051e+00
1.322243822036910932e-01 4.192115062492771216e+00
1.331860140738460874e-01 3.597070849802651793e+00
1.341476459440011371e-01 3.107350054461207378e+00
1.351092778141561590e-01 2.639861517381554279e+00
1.360709096843111809e-01 2.308479244742418501e+00
1.370325415544662029e-01 1.825055518024694123e+00
1.379941734246212526e-01 1.657629472120927261e+00
1.389558052947762468e-01 1.604034638431503623e+00
1.399174371649312965e-01 1.617409419501512957e+00
1.408790690350863184e-01 1.474571862084925300e+00
1.418407009052413403e-01 1.105290464069728529e+00
1.428023327753963623e-01 8.152296143374968551e-01
1.437639646455513842e-01 7.348995574170231748e-01
1.447255965157064062e-01 1.002981426578855917e+00
1.456872283858614281e-01 1.131671282220548136e+00
1.466488602560164778e-01 1.115339901832864911e+00
1.476104921261714720e-01 1.322833113821531015e+00
1.485721239963265217e-01 1.393699933143341951e+00
1.495337558664815436e-01 1.403121787987085867e+00
1.504953877366365655e-01 1.390301554542947571e+00
1.514570196067915875e-01 1.452792677585684089e+00
1.524186514769466094e-01 1.803426965344147703e+00
1.533802833471016314e-01 1.868820801661161823e+00
1.543419152172566811e-01 1.702815658424235323e+00
1.553035470874116752e-01 2.083022757045203122e+00
1.562651789575667249e-01 2.551110425426699635e+00
1.572268108277217469e-01 2.442355123252340832e+00
1.581884426978767688e-01 2.602060226082471672e+00
1.591500745680317908e-01 2.966742301158564743e+00
1.601117064381868405e-01 3.124333976933701962e+00
1.610733383083418346e-01 3.367547533747341504e+00
1.620349701784968843e-01 3.189896068640269533e+00
1.629966020486519063e-01 3.340800281443875974e+00
1.639582339188069282e-01 3.576392382201031950e+00
1.649198657889619501e-01 4.025972379100256404e+00
1.658814976591169721e-01 4.275401512375211155e+00
1.668431295292719940e-01 4.308406556450709246e+00
1.678047613994270160e-01 4.478887944618890060e+00
1.687663932695820379e-01 4.550868501709828706e+00
1.697280251397370598e-01 4.479661862235602143e+00
1.706896570098921095e-01 4.363840952293443820e+00
1.716512888800471037e-01 4.689850939669220509e+00
1.726129207502021534e-01 5.043489918261993665e+00
1.735745526203571754e-01 5.158902045095988598e+00
1.745361844905121973e-01 5.342975196496379198e+00
1.754978163606672192e-01 5.207898705543378526e+00
1.764594482308222689e-01 4.961008309435325003e+00
1.774210801009772631e-01 5.135300557912270136e+00
1.783827119711323128e-01 5.338215809946817103e+00
1.793443438412873348e-01 5.341348802150541530e+00
1.803059757114423567e-01 5.561271532954108920e+00
1.812676075815973786e-01 5.536038543784389532e+00
1.822292394517524006e-01 5.507442035819078541e+00
1.831908713219074225e-01 5.674366960286658212e+00
1.841525031920624444e-01 5.501397334401879391e+00
1.851141350622174664e-01 5.311294591327897052e+00
1.860757669323724883e-01 5.066513465775742020e+00
1.870373988025275380e-01 5.170697708740345178e+00
1.879990306726825322e-01 5.057170353719627087e+00
1.889606625428375819e-01 4.855937477667218616e+00
1.899222944129926038e-01 4.943890990429842702e+00
1.908839262831476258e-01 5.248254049601928983e+00
1.918455581533026477e-01 5.232184722742779570e+00
1.928071900234576974e-01 4.747077519576880178e+00
1.937688218936126916e-01 4.400501255570848258e+00
1.947304537637677413e-01 4.255240636959754852e+00
1.956920856339227632e-01 4.442266322123849420e+00
1.966537175040777852e-01 4.283658812255787041e+00
1.976153493742328071e-01 4.227706014334813744e+00
1.985769812443878291e-01 4.300997418716967502e+00
1.995386131145428510e-01 4.301686416453016193e+00
2.005002449846978729e-01 4.079787229604086463e+00
2.014618768548528949e-01 3.801538595829626388e+00
2.024235087250079168e-01 3.547134211315828622e+00
2.033851405951629665e-01 3.629519539045240606e+00
2.043467724653179884e-01 3.317629799094692800e+00
2.053084043354730381e-01 3.156915658923121981e+00
2.062700362056280046e-01 3.082966140928025567e+00
2.072316680757830543e-01 2.713664729035837553e+00
2.081932999459380762e-01 2.654576723467858557e+00
2.091549318160931259e-01 2.568698144123629845e+00
2.101165636862481478e-01 2.580353523637775481e+00
2.110781955564031698e-01 2.618705162065719350e+00
2.120398274265581640e-01 2.472833125932645260e+00
2.130014592967132137e-01 2.468264175130681082e+00
2.139630911668682356e-01 1.874851266232681724e+00
2.149247230370232575e-01 1.904856121352199949e+00
2.158863549071783072e-01 2.000043229456650806e+00
2.168479867773333014e-01 1.993529166491416760e+00
2.178096186474883234e-01 1.794731195777732324e+00
2.187712505176433453e-01 1.451607414523543582e+00
2.197328823877983950e-01 1.255900581783276238e+00
2.206945142579534169e-01 1.382317746502241818e+00
2.216561461281084666e-01 1.303601807335553531e+00
2.226177779982634330e-01 1.114024189235657047e+00
2.235794098684184827e-01 1.174118614781800574e+00
2.245410417385735047e-01 1.065476354783665869e+00
2.255026736087285544e-01 7.103915745864668452e-01
2.264643054788835763e-01 8.173362101536163493e-01
2.274259373490385983e-01 1.070562501140454259e+00
2.283875692191935924e-01 7.514566090822043520e-01
2.293492010893486421e-01 4.972628129523677387e-01
2.303108329595036641e-01 6.230882226295513249e-01
2.312724648296586860e-01 5.404583938858529280e-01
2.322340966998137357e-01 3.455128347656923893e-01
2.331957285699687299e-01 4.529225487387193994e-01
2.341573604401237518e-01 4.746409812376946036e-01
2.351189923102787738e-01 6.919925803237738648e-01
2.360806241804338235e-01 8.784593799715167961e-01
2.370422560505888454e-01 7.318526572891279613e-01
2.380038879207438951e-01 4.002790740524559965e-01
2.389655197908988615e-01 2.220753191017585948e-01
2.399271516610539112e-01 2.749459028921812376e-01
2.408887835312089332e-01 4.658875723637940780e-01
2.418504154013639829e-01 3.728264488868049398e-01
2.428120472715190048e-01 2.954683620938638455e-01
2.437736791416740267e-01 1.836736395129960897e-01
2.447353110118290209e-01 2.452363148371397017e-01
2.456969428819840706e-01 1.565540940426402017e-01
2.466585747521390926e-01 1.127270845829357881e-01
2.476202066222941145e-01 9.562831913109448578e-02
2.485818384924491642e-01 2.508931069862434526e-01
2.495434703626041584e-01 4.247494498365753657e-01
2.505051022327591803e-01 1.876890140733245005e-01
2.514667341029142023e-01 2.507117989443550243e-01
2.524283659730692242e-01 4.420427867179554937e-01
2.533899978432243016e-01 5.091009634655705440e-01
2.543516297133793236e-01 4.121491399750780715e-01
2.553132615835342900e-01 4.207757855019451654e-01
2.562748934536893120e-01 5.087551647957155865e-01
2.572365253238443894e-01 5.240589980743699527e-01
2.581981571939994113e-01 4.172577891440916176e-01
2.591597890641544333e-01 4.172061940688571724e-01
2.601214209343094552e-01 4.904047073996409267e-01
2.610830528044644772e-01 4.612634794214649503e-01
2.620446846746194991e-01 4.454006464991664416e-01
2.630063165447745210e-01 6.556505951898508044e-01
2.639679484149295430e-01 6.460945772549067101e-01
2.649295802850845649e-01 7.769104880832244930e-01
2.658912121552395869e-01 5.187132265926841512e-01
2.668528440253946088e-01 5.554314232574597554e-01
2.678144758955496307e-01 8.507469482415146445e-01
2.687761077657046527e-01 7.915168867747226500e-01
2.697377396358597301e-01 6.725939328488266256e-01
2.706993715060147521e-01 6.677011242629333765e-01
2.716610033761697185e-01 6.744361607956506077e-01
2.726226352463247404e-01 6.574567109896349848e-01
2.735842671164798179e-01 7.284358533843935390e-01
2.745458989866348398e-01 6.675394287865650256e-01
2.755075308567898618e-01 6.572801481266594692e-01
2.764691627269448837e-01 7.347327673282357807e-01
2.774307945970999056e-01 8.392624718442398546e-01
2.783924264672549276e-01 9.101813756596612848e-01
2.793540583374099495e-01 8.499616401814193978e-01
2.803156902075649715e-01 9.423194376975452258e-01
2.812773220777199934e-01 1.036667283955150509e+00
2.822389539478750153e-01 1.037705883220130687e+00
2.832005858180300373e-01 8.914965477724905440e-01
2.841622176881850592e-01 6.044027785605514680e-01
2.851238495583400812e-01 6.875170469952109897e-01
2.860854814284951586e-01 7.890476697238923975e-01
2.870471132986501805e-01 7.572427140657538303e-01
2.880087451688051470e-01 7.811165482487396616e-01
2.889703770389601689e-01 6.430963530913018644e-01
2.899320089091152464e-01 4.716795271693428049e-01
2.908936407792702683e-01 5.159951217275811075e-01
2.918552726494252902e-01 6.444551137081049319e-01
2.928169045195803122e-01 6.952525686935189242e-01
2.937785363897353341e-01 7.729006012275867477e-01
2.947401682598903561e-01 8.133254139774308555e-01
2.957018001300453780e-01 7.994457948860258512e-01
2.966634320002003999e-01 7.261331663412669002e-01
2.976250638703554219e-01 8.145788633638630927e-01
2.985866957405104993e-01 8.180964950788371937e-01
2.995483276106654658e-01 6.686652551708824888e-01
3.005099594808204877e-01 6.730114886343834257e-01
3.014715913509755651e-01 6.873927869592897366e-01
3.024332232211305871e-01 6.889521420212503244e-01
3.033948550912856090e-01 7.684354227320326913e-01
3.043564869614405755e-01 6.816876034732182177e-01
3.053181188315956529e-01 6.637113666300287207e-01
3.062797507017506748e-01 6.971741547441681064e-01
3.072413825719056968e-01 7.223065284540695075e-01
3.082030144420607187e-01 5.777456658015225344e-01
3.091646463122157407e-01 4.058567416633849234e-01
3.101262781823707626e-01 3.348868971495946312e-01
3.110879100525257845e-01 4.256758514411025374e-01
3.120495419226808065e-01 3.384694813707262995e-01
3.130111737928358284e-01 6.541267551794192059e-01
3.139728056629909059e-01 7.851370174360035037e-01
3.149344375331459278e-01 5.437772572726871090e-01
3.158960694033008942e-01 5.181250223180491332e-01
3.168577012734559162e-01 4.048500467988951357e-01
3.178193331436109936e-01 3.240776702980525670e-01
3.187809650137660156e-01 4.024181251280900540e-01
3.197425968839210375e-01 3.129430023426351681e-01
3.207042287540760039e-01 2.280619612383958383e-01
3.216658606242310814e-01 1.646623507327085179e-01
3.226274924943861033e-01 2.329500507889648020e-01
3.235891243645411253e-01 4.031656784112982450e-01
3.245507562346961472e-01 4.254393565142713385e-01
3.255123881048511691e-01 2.169881393339814224e-01
3.264740199750061911e-01 1.042257630093921250e-01
3.274356518451612130e-01 2.254659965342362682e-01
3.283972837153162350e-01 3.389658449512467087e-01
3.293589155854712569e-01 1.539377333007578841e-01
3.303205474556263344e-01 4.581312640774015676e-02
3.312821793257813563e-01 1.284436841501985782e-01
3.322438111959363227e-01 1.585101261291939068e-01
3.332054430660913447e-01 1.402500512687367973e-01
3.341670749362464221e-01 9.278894090888201163e-02
3.351287068064014441e-01 1.054210078833222042e-01
3.360903386765564660e-01 0.000000000000000000e+00
3.370519705467114324e-01 5.386740899275466177e-02
3.380136024168665099e-01 2.052075016219241377e-01
3.389752342870215318e-01 4.836413496952474134e-02
3.399368661571765537e-01 3.494557235975292997e-02
3.408984980273315757e-01 1.809418584634059357e-01
3.418601298974865976e-01 1.855687382965562904e-01
3.428217617676416196e-01 1.361449166965194024e-01
3.437833936377966415e-01 1.965722615545857366e-01
3.447450255079516634e-01 3.351517471699700934e-01
3.457066573781066854e-01 2.988049434793538239e-01
3.466682892482617628e-01 2.827504601199848366e-01
3.476299211184167848e-01 9.008226995310053553e-02
3.485915529885717512e-01 2.396466437635673685e-01
3.495531848587267731e-01 1.926092166214878887e-01
3.505148167288818506e-01 3.745788218647732037e-01
3.514764485990368725e-01 3.819622484397804385e-01
3.524380804691918945e-01 1.899372210155014784e-01
3.533997123393468609e-01 2.735197746653810214e-01
3.543613442095019384e-01 3.661700167472901057e-01
3.553229760796569603e-01 2.546218582218777726e-01
3.562846079498119822e-01 1.926343164334376468e-01
3.572462398199670042e-01 2.977071239907225220e-01
3.582078716901220261e-01 4.878791130322319702e-01
3.591695035602770480e-01 1.012474724714074625e+00
3.601311354304320700e-01 1.341698614928162669e+00
3.610927673005870919e-01 3.006782091684421232e-01
3.620543991707421139e-01 4.766297529745600059e-02
3.630160310408971913e-01 1.618190412490321251e-01
3.639776629110522133e-01 2.326743805631750206e-01
3.649392947812071797e-01 3.234798436886272555e-01
3.659009266513622016e-01 3.407830140022376497e-01
3.668625585215172791e-01 1.349257719243226461e-01
3.678241903916723010e-01 1.503515351274664624e-01
3.687858222618273230e-01 1.890095721711801957e-01
3.697474541319822894e-01 2.763504643547420869e-01
3.707090860021373668e-01 2.188978048064846860e-01
3.716707178722923888e-01 2.546191260807830758e-01
3.726323497424474107e-01 2.244610484982736409e-01
3.735939816126024327e-01 3.992755635016145277e-01
3.745556134827574546e-01 3.998709489359235647e-01
3.755172453529124765e-01 1.796778107450514028e-01
3.764788772230674985e-01 2.984959115527345830e-01
3.774405090932225204e-01 4.425559609524079008e-01
3.784021409633775423e-01 2.463925245836122713e-01
3.793637728335326198e-01 3.505454106183627516e-01
3.803254047036876417e-01 4.346525751708689711e-01
3.812870365738426082e-01 3.741635984217595023e-01
3.822486684439976301e-01 5.609076227715732443e-01
3.832103003141527076e-01 4.599735681016632327e-01
3.841719321843077295e-01 4.048059615622712215e-01
3.851335640544627514e-01 1.419393207065091644e-01
3.860951959246177734e-01 1.886605246638275446e-01
3.870568277947727953e-01 3.155296397075844084e-01
3.880184596649278173e-01 2.697660167352431415e-01
3.889800915350828392e-01 4.005487004179890675e-01
3.899417234052378611e-01 5.150145737283544634e-01
3.909033552753928831e-01 3.315854708617678170e-01
3.918649871455479050e-01 1.243872026872665515e-01
3.928266190157029270e-01 1.395151736728870162e-01
3.937882508858579489e-01 2.173665417315753245e-01
3.947498827560129708e-01 3.345911495043267792e-01
3.957115146261680483e-01 4.080611664694018259e-01
3.966731464963230702e-01 3.374086757030632100e-01
3.976347783664780366e-01 1.651135371298657617e-01
3.985964102366330586e-01 3.171445084537296566e-01
3.995580421067881360e-01 3.552054601398104694e-01
4.005196739769430470e-01 3.972995149084752597e-01
4.014813058470981244e-01 3.379489988837249825e-01
4.024429377172531463e-01 2.166745626053696583e-01
4.034045695874082238e-01 2.217556082005351925e-01
