# q (1/Angstrom), Intensity (arb)
2.067508526570814575e-02 5.827094867896985306e+02
2.163671713586316769e-02 6.071910899562108170e+02
2.259834900601819310e-02 6.319510689088216395e+02
2.355998087617321851e-02 6.419363965029475594e+02
2.452161274632824739e-02 6.404382450342606035e+02
2.548324461648326933e-02 6.400149850414859429e+02
2.644487648663829821e-02 6.401526975861978599e+02
2.740650835679332709e-02 6.392509374872577155e+02
2.836814022694834903e-02 6.385604272575856157e+02
2.932977209710337443e-02 6.357856309281029326e+02
3.029140396725839637e-02 6.307808753610531767e+02
3.125303583741342178e-02 6.266018224885136760e+02
3.221466770756845066e-02 6.226125187247910162e+02
3.317629957772347260e-02 6.174259903279676109e+02
3.413793144787850148e-02 6.181442852602333460e+02
3.509956331803352342e-02 6.139319933431764866e+02
3.606119518818855230e-02 6.073447969669404074e+02
3.702282705834358117e-02 5.986553683445553133e+02
3.798445892849860311e-02 5.894138059033953141e+02
3.894609079865363199e-02 5.860058395840092089e+02
3.990772266880865393e-02 5.807521286295076379e+02
4.086935453896367587e-02 5.709535936410242130e+02
4.183098640911870475e-02 5.679649708335795140e+02
4.279261827927372669e-02 5.594791964465754290e+02
4.375425014942875557e-02 5.490880888030862934e+02
4.471588201958377751e-02 5.412315672672582423e+02
4.567751388973880639e-02 5.362858979557153134e+02
4.663914575989382832e-02 5.278541293208502339e+02
4.760077763004885720e-02 5.208808202944695722e+02
4.856240950020387914e-02 5.152667734086684277e+02
4.952404137035890108e-02 5.045759664797484447e+02
5.048567324051392302e-02 4.949706758290899984e+02
5.144730511066895190e-02 4.863463732458016011e+02
5.240893698082397384e-02 4.759975734492068682e+02
5.337056885097899578e-02 4.645704312301684809e+02
5.433220072113403160e-02 4.533281063963606812e+02
5.529383259128905354e-02 4.451273243394149404e+02
5.625546446144407547e-02 4.364995864026582808e+02
5.721709633159910435e-02 4.256359401484281761e+02
5.817872820175412629e-02 4.136084163191571861e+02
5.914036007190914823e-02 4.031273557006234114e+02
6.010199194206417017e-02 3.925957520804967089e+02
6.106362381221920599e-02 3.824266633439303291e+02
6.202525568237422793e-02 3.731341774354216341e+02
6.298688755252924987e-02 3.623619242379451748e+02
6.394851942268428568e-02 3.539107685738782152e+02
6.491015129283930762e-02 3.451280708744788512e+02
6.587178316299432956e-02 3.335646063983601266e+02
6.683341503314935150e-02 3.256020367594855998e+02
6.779504690330438732e-02 3.167158290350481593e+02
6.875667877345940926e-02 3.068692855971734161e+02
6.971831064361443120e-02 2.986273493793353850e+02
7.067994251376945314e-02 2.886669049356574419e+02
7.164157438392447508e-02 2.779238607845762772e+02
7.260320625407949702e-02 2.694549926220934140e+02
7.356483812423453283e-02 2.613255604459073993e+02
7.452646999438955477e-02 2.519810059395146880e+02
7.548810186454457671e-02 2.430407438536076086e+02
7.644973373469959865e-02 2.348379715309554001e+02
7.741136560485463447e-02 2.275183870122951078e+02
7.837299747500965641e-02 2.191288953392386532e+02
7.933462934516467835e-02 2.109712485873739922e+02
8.029626121531971417e-02 2.038888223152518435e+02
8.125789308547473611e-02 1.967195711905459916e+02
8.221952495562975805e-02 1.882609503348366786e+02
8.318115682578479386e-02 1.802567409784939514e+02
8.414278869593981580e-02 1.735922309863372277e+02
8.510442056609483774e-02 1.658359418386395134e+02
8.606605243624985968e-02 1.586570068227210584e+02
8.702768430640489550e-02 1.517717270467801427e+02
8.798931617655991744e-02 1.459527541619068813e+02
8.895094804671493938e-02 1.395614600189782095e+02
8.991257991686996132e-02 1.330357243011216610e+02
9.087421178702498326e-02 1.269158905584608021e+02
9.183584365718000520e-02 1.205114005564007158e+02
9.279747552733502713e-02 1.158069435965209664e+02
9.375910739749006295e-02 1.100525717483839827e+02
9.472073926764508489e-02 1.042395090493056387e+02
9.568237113780010683e-02 9.952560802567765563e+01
9.664400300795514265e-02 9.425524348175478906e+01
9.760563487811016459e-02 8.914813950287208399e+01
9.856726674826518653e-02 8.507726580980241238e+01
9.952889861842022234e-02 7.983310259609834247e+01
1.004905304885752443e-01 7.447788332044333970e+01
1.014521623587302801e-01 7.133671961488639113e+01
1.024137942288853020e-01 6.796448504530863488e+01
1.033754260990403240e-01 6.371933806850444171e+01
1.043370579691953459e-01 5.969639997918417151e+01
1.052986898393503817e-01 5.607461388222426990e+01
1.062603217095053898e-01 5.225406380801892681e+01
1.072219535796604256e-01 4.892833033918193308e+01
1.081835854498154614e-01 4.556195900059036319e+01
1.091452173199704695e-01 4.233351502876431027e+01
1.101068491901255053e-01 3.918369730831862796e+01
1.110684810602805411e-01 3.721721145187493107e+01
1.120301129304355492e-01 3.496441577722590921e+01
1.129917448005905850e-01 3.238876222498011970e+01
1.139533766707456208e-01 2.949132213458083029e+01
1.149150085409006289e-01 2.764393780401024259e+01
1.158766404110556647e-01 2.548164281222138072e+01
1.168382722812106728e-01 2.354840272714359983e+01
1.177999041513657086e-01 2.213435807031035196e+01
1.187615360215207305e-01 2.013535236990120936e+01
1.197231678916757525e-01 1.787202353369028174e+01
1.206847997618307744e-01 1.602378195571215258e+01
1.216464316319858102e-01 1.489562450235441560e+01
1.226080635021408183e-01 1.359268211967259177e+01
1.235696953722958541e-01 1.200791713760005663e+01
1.245313272424508899e-01 1.061699345752376544e+01
1.254929591126059119e-01 9.760789407860343658e+00
1.264545909827609338e-01 8.921936702546357623e+00
1.274162228529159557e-01 8.377097693749291807e+00
1.283778547230709777e-01 7.483623668755285507e+00
1.293394865932259996e-01 6.598623271910973642e+00
1.303011184633810493e-01 5.934376286466243045e+00
1.312627503335360435e-01 5.386681955013425949e+00
1.322243822036910932e-01 4.461222419442329112e+00
1.331860140738460874e-01 3.774165271960647772e+00
1.341476459440011371e-01 3.569717019243334732e+00
1.351092778141561590e-01 3.313053909780730777e+00
1.360709096843111809e-01 2.625392647726748407e+00
1.370325415544662029e-01 2.153232017356003780e+00
1.379941734246212526e-01 1.930921204313204242e+00
1.389558052947762468e-01 1.624546631697860732e+00
1.399174371649312965e-01 1.524512886038113635e+00
1.408790690350863184e-01 1.275618766430138606e+00
1.418407009052413403e-01 1.148189628009564700e+00
1.428023327753963623e-01 1.363743433125378601e+00
1.437639646455513842e-01 1.270777164262483439e+00
1.447255965157064062e-01 1.227072718047448774e+00
1.456872283858614281e-01 1.167182752315952143e+00
1.466488602560164778e-01 1.250155937918638216e+00
1.476104921261714720e-01 1.765000420975479045e+00
1.485721239963265217e-01 1.771454299521742826e+00
1.495337558664815436e-01 1.909783878804773849e+00
1.504953877366365655e-01 1.825318580303825655e+00
1.514570196067915875e-01 2.018751301286854982e+00
1.524186514769466094e-01 1.747537112855098940e+00
1.533802833471016314e-01 2.321934765894109631e+00
1.543419152172566811e-01 2.752283636176315440e+00
1.553035470874116752e-01 2.447196463287102830e+00
1.562651789575667249e-01 2.404857207312705469e+00
1.572268108277217469e-01 2.748290874932919792e+00
1.581884426978767688e-01 3.019758301801648059e+00
1.591500745680317908e-01 3.330750325576360638e+00
1.601117064381868405e-01 3.509627955467532701e+00
1.610733383083418346e-01 3.500884038819904731e+00
1.620349701784968843e-01 3.734104242056012879e+00
1.629966020486519063e-01 3.684405081556899830e+00
1.639582339188069282e-01 3.819164048805653522e+00
1.649198657889619501e-01 4.064416007534394026e+00
1.658814976591169721e-01 4.032083460205395653e+00
1.668431295292719940e-01 4.541936262252995959e+00
1.678047613994270160e-01 4.858420701157058375e+00
1.687663932695820379e-01 5.022668419607654755e+00
1.697280251397370598e-01 4.817445943619159010e+00
1.706896570098921095e-01 4.591047955819131943e+00
1.716512888800471037e-01 4.976555081598924346e+00
1.726129207502021534e-01 5.162030951603721718e+00
1.735745526203571754e-01 5.068641924307978996e+00
1.745361844905121973e-01 5.132145272180771656e+00
1.754978163606672192e-01 5.059731499748505001e+00
1.764594482308222689e-01 5.203734030556326218e+00
1.774210801009772631e-01 5.466639045353122839e+00
1.783827119711323128e-01 5.517297501437056439e+00
1.793443438412873348e-01 5.437200631754709690e+00
1.803059757114423567e-01 5.719938529817966355e+00
1.812676075815973786e-01 6.114219864667912674e+00
1.822292394517524006e-01 5.894584843094278881e+00
1.831908713219074225e-01 5.798811850333745355e+00
1.841525031920624444e-01 5.414120296714688862e+00
1.851141350622174664e-01 5.321752608903707937e+00
1.860757669323724883e-01 5.170940517045135465e+00
1.870373988025275380e-01 5.196952195252801943e+00
1.879990306726825322e-01 5.324125040666366715e+00
1.889606625428375819e-01 5.289559789988917515e+00
1.899222944129926038e-01 5.271929504307745873e+00
1.908839262831476258e-01 5.321379001283936816e+00
1.918455581533026477e-01 4.865232660324650737e+00
1.928071900234576974e-01 4.855657627583248370e+00
1.937688218936126916e-01 4.925346747459141028e+00
1.947304537637677413e-01 4.959490778687140278e+00
1.956920856339227632e-01 4.727323694108751084e+00
1.966537175040777852e-01 4.641147537466405737e+00
1.976153493742328071e-01 4.490868753105047517e+00
1.985769812443878291e-01 4.558685121180086952e+00
1.995386131145428510e-01 4.579211838627195164e+00
2.005002449846978729e-01 4.344448200288461237e+00
2.014618768548528949e-01 4.174756277782879721e+00
2.024235087250079168e-01 3.991153033461610988e+00
2.033851405951629665e-01 3.811535118964457070e+00
2.043467724653179884e-01 3.753009179681484397e+00
2.053084043354730381e-01 3.597592856629255209e+00
2.062700362056280046e-01 3.336694219427297270e+00
2.072316680757830543e-01 3.214587863505979470e+00
2.081932999459380762e-01 3.278520609909190142e+00
2.091549318160931259e-01 3.232725712492982240e+00
2.101165636862481478e-01 3.047120932343137412e+00
2.110781955564031698e-01 3.102885473874216871e+00
2.120398274265581640e-01 2.760834623978610125e+00
2.130014592967132137e-01 2.331537094576873415e+00
2.139630911668682356e-01 2.270943345468307228e+00
2.149247230370232575e-01 2.368816528212565942e+00
2.158863549071783072e-01 2.227986621120344068e+00
2.168479867773333014e-01 2.058587318989978598e+00
2.178096186474883234e-01 1.761739230451883742e+00
2.187712505176433453e-01 1.848628094327668947e+00
2.197328823877983950e-01 1.659763308314555985e+00
2.206945142579534169e-01 1.483026560902459323e+00
2.216561461281084666e-01 1.715629661083671209e+00
2.226177779982634330e-01 1.654951353443660622e+00
2.235794098684184827e-01 1.390020919490794427e+00
2.245410417385735047e-01 1.354328379251978021e+00
2.255026736087285544e-01 1.108532935158407895e+00
2.264643054788835763e-01 1.196162108417372139e+00
2.274259373490385983e-01 1.103191445653955327e+00
2.283875692191935924e-01 1.075104598634808895e+00
2.293492010893486421e-01 1.083341659582359284e+00
2.303108329595036641e-01 1.080983032972813618e+00
2.312724648296586860e-01 9.494872292738776309e-01
2.322340966998137357e-01 7.443168002814246620e-01
2.331957285699687299e-01 4.901467434311648219e-01
2.341573604401237518e-01 3.101133115736587342e-01
2.351189923102787738e-01 5.522332005313437264e-01
2.360806241804338235e-01 6.180479502974165484e-01
2.370422560505888454e-01 4.161353947345176607e-01
2.380038879207438951e-01 4.440490453984686781e-01
2.389655197908988615e-01 3.910225838567811252e-01
2.399271516610539112e-01 3.574011537681371919e-01
2.408887835312089332e-01 3.353209200025766279e-01
2.418504154013639829e-01 3.789146940235070815e-01
2.428120472715190048e-01 4.535294524793798132e-01
2.437736791416740267e-01 5.123207347584468607e-01
2.447353110118290209e-01 4.190699398370192341e-01
2.456969428819840706e-01 9.705060499958051423e-02
2.466585747521390926e-01 1.483454514811128888e-01
2.476202066222941145e-01 4.179995871302821797e-02
2.485818384924491642e-01 2.200396867802645318e-01
2.495434703626041584e-01 3.875711819553728787e-01
2.505051022327591803e-01 5.030971597446729504e-01
2.514667341029142023e-01 5.613560318497547996e-01
2.524283659730692242e-01 3.065595432608780868e-01
2.533899978432243016e-01 4.487249243663669063e-01
2.543516297133793236e-01 4.092747140698875796e-01
2.553132615835342900e-01 3.646347183079186038e-01
2.562748934536893120e-01 3.817752461446488610e-01
2.572365253238443894e-01 4.529827870347027385e-01
2.581981571939994113e-01 3.011356365009127956e-01
2.591597890641544333e-01 4.516600286588996482e-01
2.601214209343094552e-01 5.002700170730065565e-01
2.610830528044644772e-01 4.848275551465128785e-01
2.620446846746194991e-01 5.685056542643351918e-01
2.630063165447745210e-01 6.933213667794682067e-01
2.639679484149295430e-01 5.933127584700024215e-01
2.649295802850845649e-01 8.896445240837493884e-01
2.658912121552395869e-01 8.515816827370237263e-01
2.668528440253946088e-01 6.294309656003918008e-01
2.678144758955496307e-01 7.980739217891574810e-01
2.687761077657046527e-01 1.130663341372986963e+00
2.697377396358597301e-01 1.071686670977541667e+00
2.706993715060147521e-01 8.395107296508363959e-01
2.716610033761697185e-01 7.823684260434262683e-01
2.726226352463247404e-01 8.946569095710650288e-01
2.735842671164798179e-01 9.529578010979875557e-01
2.745458989866348398e-01 1.130313258930449649e+00
2.755075308567898618e-01 1.024363658510161201e+00
2.764691627269448837e-01 8.952473668215397140e-01
2.774307945970999056e-01 8.671835983263598280e-01
2.783924264672549276e-01 1.044802599644469865e+00
2.793540583374099495e-01 8.573119955721679730e-01
2.803156902075649715e-01 1.038415124756355112e+00
2.812773220777199934e-01 1.237593180528211434e+00
2.822389539478750153e-01 1.264101128221536641e+00
2.832005858180300373e-01 9.831695052190418949e-01
2.841622176881850592e-01 9.006802835390175233e-01
2.851238495583400812e-01 9.408766908021028996e-01
2.860854814284951586e-01 4.940930699918659741e-01
2.870471132986501805e-01 7.563970342220365239e-01
2.880087451688051470e-01 8.720331856895136013e-01
2.889703770389601689e-01 1.145213211877578630e+00
2.899320089091152464e-01 1.265665737997153428e+00
2.908936407792702683e-01 8.729509462534359443e-01
2.918552726494252902e-01 1.055951260961222715e+00
2.928169045195803122e-01 1.110710605021516528e+00
2.937785363897353341e-01 9.123096562305796908e-01
2.947401682598903561e-01 9.603844179792915270e-01
2.957018001300453780e-01 9.085494453885587518e-01
2.966634320002003999e-01 9.768763960218755926e-01
2.976250638703554219e-01 8.755311204671514247e-01
2.985866957405104993e-01 9.283157270113555626e-01
2.995483276106654658e-01 9.829177156745565469e-01
3.005099594808204877e-01 7.918270043410302605e-01
3.014715913509755651e-01 8.548582937164148632e-01
3.024332232211305871e-01 6.744952134357937723e-01
3.033948550912856090e-01 5.448433085553681110e-01
3.043564869614405755e-01 6.097500401800566294e-01
3.053181188315956529e-01 6.123686041962166371e-01
3.062797507017506748e-01 7.427641711430261751e-01
3.072413825719056968e-01 7.411076090887078749e-01
3.082030144420607187e-01 6.043881826697337090e-01
3.091646463122157407e-01 7.009216501057302651e-01
3.101262781823707626e-01 8.389046758355824807e-01
3.110879100525257845e-01 8.667765345633533514e-01
3.120495419226808065e-01 9.217612167848905358e-01
3.130111737928358284e-01 7.924374819310955331e-01
3.139728056629909059e-01 5.831759144634744985e-01
3.149344375331459278e-01 4.245019601501027751e-01
3.158960694033008942e-01 4.331208113665709902e-01
3.168577012734559162e-01 3.539319321351932501e-01
3.178193331436109936e-01 4.004775629988479579e-01
3.187809650137660156e-01 5.547040882187239674e-01
3.197425968839210375e-01 5.536918535386732287e-01
3.207042287540760039e-01 5.906244478876487847e-01
3.216658606242310814e-01 6.419495084767490312e-01
3.226274924943861033e-01 4.142590613304975022e-01
3.235891243645411253e-01 2.280575338622803372e-01
3.245507562346961472e-01 1.956070555796749488e-01
3.255123881048511691e-01 2.530896291422202182e-01
3.264740199750061911e-01 3.163791477466411095e-01
3.274356518451612130e-01 4.458326400106571441e-01
3.283972837153162350e-01 4.726048630240491377e-01
3.293589155854712569e-01 1.552928823058152830e-01
3.303205474556263344e-01 2.007030467815411612e-01
3.312821793257813563e-01 3.111619357954431564e-01
3.322438111959363227e-01 2.877199063547841718e-01
3.332054430660913447e-01 3.113229314587577790e-01
3.341670749362464221e-01 4.350031381157499766e-01
3.351287068064014441e-01 2.656534600758462261e-01
3.360903386765564660e-01 2.074464593258547040e-01
3.370519705467114324e-01 3.011532160568535232e-01
3.380136024168665099e-01 3.856914716587205305e-01
3.389752342870215318e-01 3.140611510921758054e-01
3.399368661571765537e-01 2.737596770222765485e-01
3.408984980273315757e-01 4.489069218351602331e-01
3.418601298974865976e-01 3.584769216912064849e-01
3.428217617676416196e-01 2.853717410022333922e-01
3.437833936377966415e-01 3.232040152580317738e-01
3.447450255079516634e-01 3.195955921183468718e-01
3.457066573781066854e-01 3.444124351450383870e-01
3.466682892482617628e-01 4.184210833577672872e-01
3.476299211184167848e-01 3.420715862872363289e-01
3.485915529885717512e-01 5.653841928201650546e-01
3.495531848587267731e-01 4.352273850144428025e-01
3.505148167288818506e-01 3.314107513017354734e-01
3.514764485990368725e-01 2.110874087183169934e-01
3.524380804691918945e-01 3.017903146779836732e-01
3.533997123393468609e-01 5.110310462723148817e-01
3.543613442095019384e-01 3.472537117007092888e-01
3.553229760796569603e-01 1.775797136708341384e-01
3.562846079498119822e-01 2.309436539789011533e-01
3.572462398199670042e-01 5.039219477920653389e-01
3.582078716901220261e-01 2.820725209990726512e-01
3.591695035602770480e-01 2.730587820496843676e-01
3.601311354304320700e-01 3.548023140879088544e-01
3.610927673005870919e-01 3.673444170580317802e-01
3.620543991707421139e-01 2.315622860112185322e-01
3.630160310408971913e-01 1.055356534019367132e-01
3.639776629110522133e-01 1.033745761265869589e-01
3.649392947812071797e-01 2.056937037093753418e-01
3.659009266513622016e-01 4.687512863451104295e-01
3.668625585215172791e-01 1.666947342687130629e-01
3.678241903916723010e-01 1.944223804664666488e-01
3.687858222618273230e-01 4.897976858888490881e-01
3.697474541319822894e-01 3.789285071420422923e-01
3.707090860021373668e-01 3.286047450427531658e-01
3.716707178722923888e-01 4.890224656012023274e-01
3.726323497424474107e-01 6.672925015197215259e-01
3.735939816126024327e-01 6.766546324262101564e-01
3.745556134827574546e-01 6.644247648488637026e-01
3.755172453529124765e-01 5.256534590701562593e-01
3.764788772230674985e-01 4.744780537304471579e-01
3.774405090932225204e-01 4.090346158762905304e-01
3.784021409633775423e-01 4.431922065490212503e-01
3.793637728335326198e-01 4.581277869280988568e-01
3.803254047036876417e-01 3.767782552721996581e-01
3.812870365738426082e-01 3.401432573910767587e-01
3.822486684439976301e-01 5.234786367403359009e-01
3.832103003141527076e-01 6.024081159591077039e-01
3.841719321843077295e-01 3.190319696463213006e-01
3.851335640544627514e-01 3.588552077466680146e-01
3.860951959246177734e-01 4.929586009419750781e-01
3.870568277947727953e-01 3.343997280365833547e-01
3.880184596649278173e-01 2.999378849262761548e-01
3.889800915350828392e-01 4.582472917123823208e-01
3.899417234052378611e-01 5.039405475024807401e-01
3.909033552753928831e-01 3.678926380029530208e-01
3.918649871455479050e-01 4.020003099850981698e-01
3.928266190157029270e-01 4.451527776638783962e-01
3.937882508858579489e-01 3.896666124134426923e-01
3.947498827560129708e-01 3.026391495706555190e-01
3.957115146261680483e-01 4.448495310234399369e-01
3.966731464963230702e-01 4.535222352534340473e-01
3.976347783664780366e-01 3.954107851737269641e-01
3.985964102366330586e-01 3.664703698913456265e-01
3.995580421067881360e-01 3.025267132234503720e-01
4.005196739769430470e-01 4.013344643805787371e-01
4.014813058470981244e-01 4.071458056658556757e-01
4.024429377172531463e-01 3.149581445954439118e-01
4.034045695874082238e-01 4.270218744853018222e-01
