# q (1/Angstrom), Intensity (arb)
2.067508526570814575e-02 5.658706999901814925e+02
2.163671713586316769e-02 5.909025062565200415e+02
2.259834900601819310e-02 6.125412290500108838e+02
2.355998087617321851e-02 6.193003665835917673e+02
2.452161274632824739e-02 6.207200322469037701e+02
2.548324461648326933e-02 6.201300501202982787e+02
2.644487648663829821e-02 6.203159167466526469e+02
2.740650835679332709e-02 6.207724908157831578e+02
2.836814022694834903e-02 6.203445641449649202e+02
2.932977209710337443e-02 6.152161590114601495e+02
3.029140396725839637e-02 6.127190465141710547e+02
3.125303583741342178e-02 6.078361485066063779e+02
3.221466770756845066e-02 6.033692078697976058e+02
3.317629957772347260e-02 5.985885909494724046e+02
3.413793144787850148e-02 5.948178291927832788e+02
3.509956331803352342e-02 5.897886909067742636e+02
3.606119518818855230e-02 5.845442031339473488e+02
3.702282705834358117e-02 5.806076919203308080e+02
3.798445892849860311e-02 5.721838577647599777e+02
3.894609079865363199e-02 5.653886737944793595e+02
3.990772266880865393e-02 5.615671292691656618e+02
4.086935453896367587e-02 5.581222459166482395e+02
4.183098640911870475e-02 5.510976339451062813e+02
4.279261827927372669e-02 5.464797265002425775e+02
4.375425014942875557e-02 5.371341970955677425e+02
4.471588201958377751e-02 5.276436269658778428e+02
4.567751388973880639e-02 5.228844431388267822e+02
4.663914575989382832e-02 5.130826933625930906e+02
4.760077763004885720e-02 5.035656501621446068e+02
4.856240950020387914e-02 4.970762249993850332e+02
4.952404137035890108e-02 4.903190352945194945e+02
5.048567324051392302e-02 4.812346880730659109e+02
5.144730511066895190e-02 4.735667207926098854e+02
5.240893698082397384e-02 4.656773590039318833e+02
5.337056885097899578e-02 4.552348210561568749e+02
5.433220072113403160e-02 4.439589337714732551e+02
5.529383259128905354e-02 4.343111824045044500e+02
5.625546446144407547e-02 4.239091724612154053e+02
5.721709633159910435e-02 4.131870347693732697e+02
5.817872820175412629e-02 4.020447218063990249e+02
5.914036007190914823e-02 3.919033099088919698e+02
6.010199194206417017e-02 3.819913733783484417e+02
6.106362381221920599e-02 3.721191414199780638e+02
6.202525568237422793e-02 3.628198642397686058e+02
6.298688755252924987e-02 3.546244367292272273e+02
6.394851942268428568e-02 3.458747607672559639e+02
6.491015129283930762e-02 3.350167435967160827e+02
6.587178316299432956e-02 3.248918946856224466e+02
6.683341503314935150e-02 3.153748414951024870e+02
6.779504690330438732e-02 3.064902878203884029e+02
6.875667877345940926e-02 2.968694113457465846e+02
6.971831064361443120e-02 2.879339087702400661e+02
7.067994251376945314e-02 2.791402141769474952e+02
7.164157438392447508e-02 2.707154476281261282e+02
7.260320625407949702e-02 2.625138084290408074e+02
7.356483812423453283e-02 2.536952128299973594e+02
7.452646999438955477e-02 2.458054875276656617e+02
7.548810186454457671e-02 2.375521971819867417e+02
7.644973373469959865e-02 2.282304875468160219e+02
7.741136560485463447e-02 2.195594530285564190e+02
7.837299747500965641e-02 2.114614757148771957e+02
7.933462934516467835e-02 2.043148864465533165e+02
8.029626121531971417e-02 1.968671782999711297e+02
8.125789308547473611e-02 1.887306176627998582e+02
8.221952495562975805e-02 1.820121380326833673e+02
8.318115682578479386e-02 1.740851377818354990e+02
8.414278869593981580e-02 1.672935895759806613e+02
8.510442056609483774e-02 1.611737438679277830e+02
8.606605243624985968e-02 1.551809774057220750e+02
8.702768430640489550e-02 1.490405056469227816e+02
8.798931617655991744e-02 1.415373069885703217e+02
8.895094804671493938e-02 1.350175592411069090e+02
8.991257991686996132e-02 1.291947843890563377e+02
9.087421178702498326e-02 1.231213868770454667e+02
9.183584365718000520e-02 1.181615007195990756e+02
9.279747552733502713e-02 1.127026006128017883e+02
9.375910739749006295e-02 1.066474334726700874e+02
9.472073926764508489e-02 1.015058114669702292e+02
9.568237113780010683e-02 9.670214513925856181e+01
9.664400300795514265e-02 9.124016759228301510e+01
9.760563487811016459e-02 8.691775113900619942e+01
9.856726674826518653e-02 8.283142713772699040e+01
9.952889861842022234e-02 7.842014787952830090e+01
1.004905304885752443e-01 7.365519343878068526e+01
1.014521623587302801e-01 6.924592169556845533e+01
1.024137942288853020e-01 6.543225402461828821e+01
1.033754260990403240e-01 6.122644588910304719e+01
1.043370579691953459e-01 5.766469717267884221e+01
1.052986898393503817e-01 5.422236158520442473e+01
1.062603217095053898e-01 5.076337951384593339e+01
1.072219535796604256e-01 4.740852560134898397e+01
1.081835854498154614e-01 4.451161170626154728e+01
1.091452173199704695e-01 4.182641707796753394e+01
1.101068491901255053e-01 3.917393471049160070e+01
1.110684810602805411e-01 3.614948532201043463e+01
1.120301129304355492e-01 3.367033499363144244e+01
1.129917448005905850e-01 3.153004985456147935e+01
1.139533766707456208e-01 2.948666224844639672e+01
1.149150085409006289e-01 2.674892888126239399e+01
1.158766404110556647e-01 2.471074104932833038e+01
1.168382722812106728e-01 2.300129047794104409e+01
1.177999041513657086e-01 2.090229382940082203e+01
1.187615360215207305e-01 1.890588473140146419e+01
1.197231678916757525e-01 1.755419686235596544e+01
1.206847997618307744e-01 1.595332495483732416e+01
1.216464316319858102e-01 1.451740947760436384e+01
1.226080635021408183e-01 1.344996486125095458e+01
1.235696953722958541e-01 1.214198289380185614e+01
1.245313272424508899e-01 1.070596037895486674e+01
1.254929591126059119e-01 9.467502634502938719e+00
1.264545909827609338e-01 8.819215884580266618e+00
1.274162228529159557e-01 7.814767123458249642e+00
1.283778547230709777e-01 6.594969933235045545e+00
1.293394865932259996e-01 5.920970152965335132e+00
1.303011184633810493e-01 5.731138288968153915e+00
1.312627503335360435e-01 4.918292763201716156e+00
1.322243822036910932e-01 4.328245784360209569e+00
1.331860140738460874e-01 3.962664676703457900e+00
1.341476459440011371e-01 3.449135797776932577e+00
1.351092778141561590e-01 3.012591667557245501e+00
1.360709096843111809e-01 2.526090933545198425e+00
1.370325415544662029e-01 2.031670830206703471e+00
1.379941734246212526e-01 1.895911197222929445e+00
1.389558052947762468e-01 1.441270701773632368e+00
1.399174371649312965e-01 1.306502963963101394e+00
1.408790690350863184e-01 1.542439874501134511e+00
1.418407009052413403e-01 1.847728331519423506e+00
1.428023327753963623e-01 1.477960991419415393e+00
1.437639646455513842e-01 1.137321445890712823e+00
1.447255965157064062e-01 8.396896289891699894e-01
1.456872283858614281e-01 8.359300845498687238e-01
1.466488602560164778e-01 1.089272830139872639e+00
1.476104921261714720e-01 1.267909693986688069e+00
1.485721239963265217e-01 1.390793479018704204e+00
1.495337558664815436e-01 1.526277287555213746e+00
1.504953877366365655e-01 1.827978423970051836e+00
1.514570196067915875e-01 1.730267697324944010e+00
1.524186514769466094e-01 1.646058422188762194e+00
1.533802833471016314e-01 2.221660345908230028e+00
1.543419152172566811e-01 2.220110036414627785e+00
1.553035470874116752e-01 2.281862409222444654e+00
1.562651789575667249e-01 2.667633474862448395e+00
1.572268108277217469e-01 3.019535952777250287e+00
1.581884426978767688e-01 3.278350778368402274e+00
1.591500745680317908e-01 3.390965717226688270e+00
1.601117064381868405e-01 3.164115073573139370e+00
1.610733383083418346e-01 3.258375329622673178e+00
1.620349701784968843e-01 3.580159718836164018e+00
1.629966020486519063e-01 3.557927855346392221e+00
1.639582339188069282e-01 3.936649897429859379e+00
1.649198657889619501e-01 4.030776822009435989e+00
1.658814976591169721e-01 4.412291075405708085e+00
1.668431295292719940e-01 4.491640797045374001e+00
1.678047613994270160e-01 4.623655446861583584e+00
1.687663932695820379e-01 4.738813553346862051e+00
1.697280251397370598e-01 4.958007129952079595e+00
1.706896570098921095e-01 5.008140420861671771e+00
1.716512888800471037e-01 5.133543110919728036e+00
1.726129207502021534e-01 5.435244061115646730e+00
1.735745526203571754e-01 5.284648736219793363e+00
1.745361844905121973e-01 5.231225097788090750e+00
1.754978163606672192e-01 5.471258496086580436e+00
1.764594482308222689e-01 5.446128471062888110e+00
1.774210801009772631e-01 5.366205201275555225e+00
1.783827119711323128e-01 5.312625094377885659e+00
1.793443438412873348e-01 5.582006853763623155e+00
1.803059757114423567e-01 5.866095835187362439e+00
1.812676075815973786e-01 5.948550337268802224e+00
1.822292394517524006e-01 5.739912184361116942e+00
1.831908713219074225e-01 5.501672508355490265e+00
1.841525031920624444e-01 5.403207776636307358e+00
1.851141350622174664e-01 5.594458418794364007e+00
1.860757669323724883e-01 5.307210835102292634e+00
1.870373988025275380e-01 5.264498370272981731e+00
1.879990306726825322e-01 5.295140643335127351e+00
1.889606625428375819e-01 5.468533963174380119e+00
1.899222944129926038e-01 5.421403642791194244e+00
1.908839262831476258e-01 5.212865595339412295e+00
1.918455581533026477e-01 5.109831672632427768e+00
1.928071900234576974e-01 5.038087274117870606e+00
1.937688218936126916e-01 5.019789698424769853e+00
1.947304537637677413e-01 4.937915780667722743e+00
1.956920856339227632e-01 4.845808241589274701e+00
1.966537175040777852e-01 4.716140886274473587e+00
1.976153493742328071e-01 4.641947067974342644e+00
1.985769812443878291e-01 4.387353793234307631e+00
1.995386131145428510e-01 4.299559359847751949e+00
2.005002449846978729e-01 4.280134336117090044e+00
2.014618768548528949e-01 4.217154630865984188e+00
2.024235087250079168e-01 4.040744580463321967e+00
2.033851405951629665e-01 3.954629196635362831e+00
2.043467724653179884e-01 3.547098158816861968e+00
2.053084043354730381e-01 3.429008702794401842e+00
2.062700362056280046e-01 3.634458091556126647e+00
2.072316680757830543e-01 3.426017547628308790e+00
2.081932999459380762e-01 2.979132826178609861e+00
2.091549318160931259e-01 3.234250361676295427e+00
2.101165636862481478e-01 3.073382583473321716e+00
2.110781955564031698e-01 2.840389711876024847e+00
2.120398274265581640e-01 2.773931240477057969e+00
2.130014592967132137e-01 2.526987045091022566e+00
2.139630911668682356e-01 2.391741298911107094e+00
2.149247230370232575e-01 2.507928502018021533e+00
2.158863549071783072e-01 2.607127182795952791e+00
2.168479867773333014e-01 2.532259225995055374e+00
2.178096186474883234e-01 2.352141938019247647e+00
2.187712505176433453e-01 1.919246585387771376e+00
2.197328823877983950e-01 2.009823369451492425e+00
2.206945142579534169e-01 1.757494721665548099e+00
2.216561461281084666e-01 1.333536717821900197e+00
2.226177779982634330e-01 1.370696163116072341e+00
2.235794098684184827e-01 1.489908422384047526e+00
2.245410417385735047e-01 1.372953584679503791e+00
2.255026736087285544e-01 1.365601251794242188e+00
2.264643054788835763e-01 1.417332555770009606e+00
2.274259373490385983e-01 1.249675252371066136e+00
2.283875692191935924e-01 1.055998076580561218e+00
2.293492010893486421e-01 9.403854441782932838e-01
2.303108329595036641e-01 8.846721347737265262e-01
2.312724648296586860e-01 8.267052099457714576e-01
2.322340966998137357e-01 6.952719650297431997e-01
2.331957285699687299e-01 5.837412004387445563e-01
2.341573604401237518e-01 9.933449114887658027e-01
2.351189923102787738e-01 8.336721801229352025e-01
2.360806241804338235e-01 6.388874692475390304e-01
2.370422560505888454e-01 6.087105283964397984e-01
2.380038879207438951e-01 5.146023965201571571e-01
2.389655197908988615e-01 5.892150279018686376e-01
2.399271516610539112e-01 2.850517528664830991e-01
2.408887835312089332e-01 2.099534083528986628e-01
2.418504154013639829e-01 6.091254823089542469e-02
2.428120472715190048e-01 3.019711869932493187e-01
2.437736791416740267e-01 5.917723694641985333e-01
2.447353110118290209e-01 4.026658837191625651e-01
2.456969428819840706e-01 6.011472994339293052e-01
2.466585747521390926e-01 5.344928059204576698e-01
2.476202066222941145e-01 4.949839345553961323e-01
2.485818384924491642e-01 6.145622134255965818e-01
2.495434703626041584e-01 4.441130958033525644e-01
2.505051022327591803e-01 3.154468025645513762e-01
2.514667341029142023e-01 0.000000000000000000e+00
2.524283659730692242e-01 2.331319427363212071e-01
2.533899978432243016e-01 2.761225015508124159e-01
2.543516297133793236e-01 3.754572656654993068e-01
2.553132615835342900e-01 4.663173812756404857e-01
2.562748934536893120e-01 6.269711778997191232e-01
2.572365253238443894e-01 7.044283065437895175e-01
2.581981571939994113e-01 7.904877353223547232e-01
2.591597890641544333e-01 6.276314661102340153e-01
2.601214209343094552e-01 4.535888926945332855e-01
2.610830528044644772e-01 5.320390547058408970e-01
2.620446846746194991e-01 8.364494530742696554e-01
2.630063165447745210e-01 8.392801693918805483e-01
2.639679484149295430e-01 7.879911601534601573e-01
2.649295802850845649e-01 9.359059536749079200e-01
2.658912121552395869e-01 7.787275766056112047e-01
2.668528440253946088e-01 7.049445534444274131e-01
2.678144758955496307e-01 8.743200175262195728e-01
2.687761077657046527e-01 9.567532351362331156e-01
2.697377396358597301e-01 1.018927064978051078e+00
2.706993715060147521e-01 9.505188981399967929e-01
2.716610033761697185e-01 1.033957307599731479e+00
2.726226352463247404e-01 9.873397498170071174e-01
2.735842671164798179e-01 1.031715714129905592e+00
2.745458989866348398e-01 1.011018836182863367e+00
2.755075308567898618e-01 1.009612123024876240e+00
2.764691627269448837e-01 8.751531474711740088e-01
2.774307945970999056e-01 1.024257910927119042e+00
2.783924264672549276e-01 9.668021677181322104e-01
2.793540583374099495e-01 7.696733896825200816e-01
2.803156902075649715e-01 7.392290977077742298e-01
2.812773220777199934e-01 9.039661624238597426e-01
2.822389539478750153e-01 1.064931186348367476e+00
2.832005858180300373e-01 9.299812973245700221e-01
2.841622176881850592e-01 1.014863384602925578e+00
2.851238495583400812e-01 1.313059669073300739e+00
2.860854814284951586e-01 1.334113822438588670e+00
2.870471132986501805e-01 1.036487377858080094e+00
2.880087451688051470e-01 1.062258321823730256e+00
2.889703770389601689e-01 9.607274916421211230e-01
2.899320089091152464e-01 9.387721329715006391e-01
2.908936407792702683e-01 1.153503991789829541e+00
2.918552726494252902e-01 9.361266904355183271e-01
2.928169045195803122e-01 8.534264665691573271e-01
2.937785363897353341e-01 1.029735130618671946e+00
2.947401682598903561e-01 9.125485173471545863e-01
2.957018001300453780e-01 8.938964448296964349e-01
2.966634320002003999e-01 9.797070932651728015e-01
2.976250638703554219e-01 1.027098575940549097e+00
2.985866957405104993e-01 8.392111596549121089e-01
2.995483276106654658e-01 8.876318662231987844e-01
3.005099594808204877e-01 9.957697113334873507e-01
3.014715913509755651e-01 7.686999476514593255e-01
3.024332232211305871e-01 7.657076079910041244e-01
3.033948550912856090e-01 7.647034930781160256e-01
3.043564869614405755e-01 7.329029395446440276e-01
3.053181188315956529e-01 7.507469610165529161e-01
3.062797507017506748e-01 8.220601074516444839e-01
3.072413825719056968e-01 1.037616233754118156e+00
3.082030144420607187e-01 7.880499033783934237e-01
3.091646463122157407e-01 9.308151195009166656e-01
3.101262781823707626e-01 6.847313300182733542e-01
3.110879100525257845e-01 4.848036809203932762e-01
3.120495419226808065e-01 5.941185342130630431e-01
3.130111737928358284e-01 7.934878607098987402e-01
3.139728056629909059e-01 8.707444399744410646e-01
3.149344375331459278e-01 6.850520698606956671e-01
3.158960694033008942e-01 6.420116856730828658e-01
3.168577012734559162e-01 7.447479846505942191e-01
3.178193331436109936e-01 7.215661982875900549e-01
3.187809650137660156e-01 6.629337624548448105e-01
3.197425968839210375e-01 6.070924172368989957e-01
3.207042287540760039e-01 4.295597531814294712e-01
3.216658606242310814e-01 2.868227610922033932e-01
3.226274924943861033e-01 3.239808756321203020e-01
3.235891243645411253e-01 4.889481407821349990e-01
3.245507562346961472e-01 6.131262398455845641e-01
3.255123881048511691e-01 5.786342595438895842e-01
3.264740199750061911e-01 5.993832518860351399e-01
3.274356518451612130e-01 6.396679973635457372e-01
3.283972837153162350e-01 7.583721264080587332e-01
3.293589155854712569e-01 4.885728724071221052e-01
3.303205474556263344e-01 6.442907741734877902e-01
3.312821793257813563e-01 5.275924853797349101e-01
3.322438111959363227e-01 4.698253728744745672e-01
3.332054430660913447e-01 5.170511056507791636e-01
3.341670749362464221e-01 5.550723521107947533e-01
3.351287068064014441e-01 4.896003192661630976e-01
3.360903386765564660e-01 5.627696236095367510e-01
3.370519705467114324e-01 5.360966444601658054e-01
3.380136024168665099e-01 3.440324029562980002e-01
3.389752342870215318e-01 3.427395284704886080e-01
3.399368661571765537e-01 2.885483267570307930e-01
3.408984980273315757e-01 3.561414103489646266e-01
3.418601298974865976e-01 4.635078829559908797e-01
3.428217617676416196e-01 6.102398498886678624e-01
3.437833936377966415e-01 6.551200666812100337e-01
3.447450255079516634e-01 5.808160804355324558e-01
3.457066573781066854e-01 7.136741252787501821e-01
3.466682892482617628e-01 4.082548658734239666e-01
3.476299211184167848e-01 3.631568375758540412e-01
3.485915529885717512e-01 3.376772323084473726e-01
3.495531848587267731e-01 3.605655438473434060e-01
3.505148167288818506e-01 3.351308126170877699e-01
3.514764485990368725e-01 4.304317499857539531e-01
3.524380804691918945e-01 1.980320254810337133e-01
3.533997123393468609e-01 2.489277258420656835e-01
3.543613442095019384e-01 4.565531424145916617e-01
3.553229760796569603e-01 4.492410656843688344e-01
3.562846079498119822e-01 4.728060144339991666e-01
3.572462398199670042e-01 4.511658757751995097e-01
3.582078716901220261e-01 5.759369825929070430e-01
3.591695035602770480e-01 7.686098092466409071e-01
3.601311354304320700e-01 6.164303831420596680e-01
3.610927673005870919e-01 3.969173340452591958e-01
3.620543991707421139e-01 2.528648850206458576e-01
3.630160310408971913e-01 3.500801221891371995e-01
3.639776629110522133e-01 5.659853307378028830e-01
3.649392947812071797e-01 3.638702284715940038e-01
3.659009266513622016e-01 4.021225784118449553e-01
3.668625585215172791e-01 4.652444766654824093e-01
3.678241903916723010e-01 5.058330266598503044e-01
3.687858222618273230e-01 4.695619893998923544e-01
3.697474541319822894e-01 4.536222962703284622e-01
3.707090860021373668e-01 5.941629787104751870e-01
3.716707178722923888e-01 3.704946119139762573e-01
3.726323497424474107e-01 4.181041335662634140e-01
3.735939816126024327e-01 5.815609312497009853e-01
3.745556134827574546e-01 5.475764073598696768e-01
3.755172453529124765e-01 4.987804278690397553e-01
3.764788772230674985e-01 5.842765686440642980e-01
3.774405090932225204e-01 6.938354141150711030e-01
3.784021409633775423e-01 7.385467556776035281e-01
3.793637728335326198e-01 5.637329487198456945e-01
3.803254047036876417e-01 4.446600158117419710e-01
3.812870365738426082e-01 5.997693355052717834e-01
3.822486684439976301e-01 9.215394049765812667e-01
3.832103003141527076e-01 9.652597033434595630e-01
3.841719321843077295e-01 8.044335631476116077e-01
3.851335640544627514e-01 7.460827314503184482e-01
3.860951959246177734e-01 6.457746608584429282e-01
3.870568277947727953e-01 6.554294899441899247e-01
3.880184596649278173e-01 5.164542353081849058e-01
3.889800915350828392e-01 4.203716674029642775e-01
3.899417234052378611e-01 4.615133489159291003e-01
3.909033552753928831e-01 4.520741023922205670e-01
3.918649871455479050e-01 6.537113964314791303e-01
3.928266190157029270e-01 7.254249910755703468e-01
3.937882508858579489e-01 6.772911091857203303e-01
3.947498827560129708e-01 5.573744269181091227e-01
3.957115146261680483e-01 5.450410467758182165e-01
3.966731464963230702e-01 4.931192242654098834e-01
3.976347783664780366e-01 6.395919331395312213e-01
3.985964102366330586e-01 6.310846328298538310e-01
3.995580421067881360e-01 6.913207363881355150e-01
4.005196739769430470e-01 6.667060864218861127e-01
4.014813058470981244e-01 6.995757346461282111e-01
4.024429377172531463e-01 7.460946307269580302e-01
4.034045695874082238e-01 6.365778568574462781e-01
