# q (1/Angstrom), Intensity (arb)
2.067508526570814575e-02 6.116759557486200265e+02
2.163671713586316769e-02 6.355310284732956916e+02
2.259834900601819310e-02 6.539426189826837117e+02
2.355998087617321851e-02 6.612561000669410305e+02
2.452161274632824739e-02 6.635595302947219807e+02
2.548324461648326933e-02 6.633892674206794027e+02
2.644487648663829821e-02 6.621947816385840042e+02
2.740650835679332709e-02 6.621121344419509569e+02
2.836814022694834903e-02 6.626887586653460858e+02
2.932977209710337443e-02 6.578775242802202001e+02
3.029140396725839637e-02 6.534619531828379877e+02
3.125303583741342178e-02 6.512019283104950773e+02
3.221466770756845066e-02 6.441453004205873185e+02
3.317629957772347260e-02 6.388963080394935332e+02
3.413793144787850148e-02 6.342112228827812714e+02
3.509956331803352342e-02 6.270435597383180948e+02
3.606119518818855230e-02 6.271640802947409838e+02
3.702282705834358117e-02 6.214786485577942585e+02
3.798445892849860311e-02 6.148231624115497880e+02
3.894609079865363199e-02 6.045087561392637099e+02
3.990772266880865393e-02 5.993909817675544218e+02
4.086935453896367587e-02 5.934617149565865475e+02
4.183098640911870475e-02 5.894030638799681583e+02
4.279261827927372669e-02 5.821823510157735200e+02
4.375425014942875557e-02 5.696322852978230458e+02
4.471588201958377751e-02 5.631136855708050462e+02
4.567751388973880639e-02 5.561544832798446123e+02
4.663914575989382832e-02 5.469818269803739668e+02
4.760077763004885720e-02 5.396529827540135784e+02
4.856240950020387914e-02 5.323047348109812447e+02
4.952404137035890108e-02 5.213405647509791834e+02
5.048567324051392302e-02 5.115150053822148379e+02
5.144730511066895190e-02 5.029202485302300261e+02
5.240893698082397384e-02 4.939140540609258778e+02
5.337056885097899578e-02 4.842109781758084068e+02
5.433220072113403160e-02 4.727498482114262401e+02
5.529383259128905354e-02 4.609904225524078925e+02
5.625546446144407547e-02 4.522586586642409543e+02
5.721709633159910435e-02 4.418033228969471793e+02
5.817872820175412629e-02 4.300111152301392394e+02
5.914036007190914823e-02 4.166385035488737003e+02
6.010199194206417017e-02 4.075895810804858002e+02
6.106362381221920599e-02 3.991027178622049405e+02
6.202525568237422793e-02 3.887863093180312717e+02
6.298688755252924987e-02 3.782616110250386896e+02
6.394851942268428568e-02 3.670964281664233226e+02
6.491015129283930762e-02 3.567660609300722854e+02
6.587178316299432956e-02 3.456110032518548678e+02
6.683341503314935150e-02 3.357506633516480292e+02
6.779504690330438732e-02 3.245074492115126645e+02
6.875667877345940926e-02 3.165465592578258338e+02
6.971831064361443120e-02 3.094802225637499191e+02
7.067994251376945314e-02 3.004966706741849976e+02
7.164157438392447508e-02 2.893367955301382040e+02
7.260320625407949702e-02 2.795147009349281007e+02
7.356483812423453283e-02 2.699591500713272580e+02
7.452646999438955477e-02 2.617828192118691391e+02
7.548810186454457671e-02 2.527334041266551310e+02
7.644973373469959865e-02 2.435720829089563040e+02
7.741136560485463447e-02 2.348262522696763313e+02
7.837299747500965641e-02 2.258012703376048478e+02
7.933462934516467835e-02 2.171290628662352731e+02
8.029626121531971417e-02 2.100859420214689806e+02
8.125789308547473611e-02 2.026690580623139795e+02
8.221952495562975805e-02 1.959415384745333597e+02
8.318115682578479386e-02 1.883629021266648920e+02
8.414278869593981580e-02 1.797309555437078359e+02
8.510442056609483774e-02 1.721264615509138309e+02
8.606605243624985968e-02 1.646427902040014146e+02
8.702768430640489550e-02 1.577575902222970399e+02
8.798931617655991744e-02 1.514809279012193031e+02
8.895094804671493938e-02 1.438580367582777058e+02
8.991257991686996132e-02 1.369542761254426466e+02
9.087421178702498326e-02 1.316790181351564684e+02
9.183584365718000520e-02 1.260663482388884518e+02
9.279747552733502713e-02 1.210845098972170604e+02
9.375910739749006295e-02 1.146627395012465627e+02
9.472073926764508489e-02 1.081645437211291068e+02
9.568237113780010683e-02 1.032434018606398922e+02
9.664400300795514265e-02 9.881246157104044414e+01
9.760563487811016459e-02 9.376439966081166233e+01
9.856726674826518653e-02 8.913502359302307809e+01
9.952889861842022234e-02 8.384345335832477986e+01
1.004905304885752443e-01 7.831945213899936675e+01
1.014521623587302801e-01 7.330056921099117062e+01
1.024137942288853020e-01 7.015117761437667809e+01
1.033754260990403240e-01 6.576557891477834517e+01
1.043370579691953459e-01 6.148776668184964933e+01
1.052986898393503817e-01 5.764722370521229067e+01
1.062603217095053898e-01 5.482645472461145175e+01
1.072219535796604256e-01 5.111484523074686592e+01
1.081835854498154614e-01 4.794026785484014397e+01
1.091452173199704695e-01 4.447512458906007282e+01
1.101068491901255053e-01 4.123178105837086349e+01
1.110684810602805411e-01 3.836001546790223671e+01
1.120301129304355492e-01 3.601206037160935125e+01
1.129917448005905850e-01 3.335840887745002448e+01
1.139533766707456208e-01 3.084486434220885798e+01
1.149150085409006289e-01 2.896065201333862404e+01
1.158766404110556647e-01 2.589199957905761451e+01
1.168382722812106728e-01 2.403799139094149595e+01
1.177999041513657086e-01 2.214229853034413864e+01
1.187615360215207305e-01 2.059698257688440393e+01
1.197231678916757525e-01 1.889118577308988378e+01
1.206847997618307744e-01 1.668766760710392916e+01
1.216464316319858102e-01 1.540062951845895967e+01
1.226080635021408183e-01 1.401725668161791560e+01
1.235696953722958541e-01 1.267740413902894758e+01
1.245313272424508899e-01 1.147943004069617601e+01
1.254929591126059119e-01 1.033775679768152855e+01
1.264545909827609338e-01 9.416977885306028639e+00
1.274162228529159557e-01 8.147276658816103634e+00
1.283778547230709777e-01 6.893444401778371144e+00
1.293394865932259996e-01 6.020602617859161398e+00
1.303011184633810493e-01 5.120596579619611788e+00
1.312627503335360435e-01 4.508297053995036663e+00
1.322243822036910932e-01 4.122219521472462844e+00
1.331860140738460874e-01 4.109419553049043827e+00
1.341476459440011371e-01 3.680443720037118283e+00
1.351092778141561590e-01 2.820817034091941622e+00
1.360709096843111809e-01 2.539620158889235313e+00
1.370325415544662029e-01 2.507507327322628043e+00
1.379941734246212526e-01 2.376618339029299420e+00
1.389558052947762468e-01 2.284935482897743952e+00
1.399174371649312965e-01 1.951400659073225796e+00
1.408790690350863184e-01 1.441634742892901500e+00
1.418407009052413403e-01 1.153576802847098293e+00
1.428023327753963623e-01 1.201787224604046855e+00
1.437639646455513842e-01 1.231271201937705229e+00
1.447255965157064062e-01 1.168417883701920346e+00
1.456872283858614281e-01 8.887230524830407319e-01
1.466488602560164778e-01 1.038052930168863242e+00
1.476104921261714720e-01 1.102610655040990650e+00
1.485721239963265217e-01 1.181490772178257487e+00
1.495337558664815436e-01 1.371039574029396135e+00
1.504953877366365655e-01 1.764552292177953063e+00
1.514570196067915875e-01 1.973711978233328779e+00
1.524186514769466094e-01 2.147623322104877275e+00
1.533802833471016314e-01 2.350242609032946461e+00
1.543419152172566811e-01 2.127918594487145043e+00
1.553035470874116752e-01 2.578325112313883949e+00
1.562651789575667249e-01 2.687551933046346875e+00
1.572268108277217469e-01 2.755058521499446300e+00
1.581884426978767688e-01 2.774279951034007041e+00
1.591500745680317908e-01 3.118586000136080116e+00
1.601117064381868405e-01 3.078646468106956746e+00
1.610733383083418346e-01 3.666684274954924661e+00
1.620349701784968843e-01 4.013078396683024351e+00
1.629966020486519063e-01 3.633775010800334826e+00
1.639582339188069282e-01 3.970478211962177539e+00
1.649198657889619501e-01 4.247577653994792257e+00
1.658814976591169721e-01 4.266957034513715996e+00
1.668431295292719940e-01 4.520608915608750777e+00
1.678047613994270160e-01 4.824916272871941914e+00
1.687663932695820379e-01 5.157930588432101615e+00
1.697280251397370598e-01 5.138029163668978327e+00
1.706896570098921095e-01 5.114920725294545889e+00
1.716512888800471037e-01 5.177792683475171742e+00
1.726129207502021534e-01 5.225915303150763691e+00
1.735745526203571754e-01 5.373704693062915538e+00
1.745361844905121973e-01 5.284109805666695081e+00
1.754978163606672192e-01 5.630183016778659066e+00
1.764594482308222689e-01 5.481461467958848033e+00
1.774210801009772631e-01 5.642191893999278562e+00
1.783827119711323128e-01 5.603242496068627787e+00
1.793443438412873348e-01 5.753293534695071543e+00
1.803059757114423567e-01 5.946295958364494538e+00
1.812676075815973786e-01 6.102999526929881569e+00
1.822292394517524006e-01 6.074512489349455535e+00
1.831908713219074225e-01 5.725547838817895752e+00
1.841525031920624444e-01 5.755795809640709138e+00
1.851141350622174664e-01 5.775445646350750195e+00
1.860757669323724883e-01 5.541765583807375606e+00
1.870373988025275380e-01 5.636097295321221168e+00
1.879990306726825322e-01 5.770185803767049038e+00
1.889606625428375819e-01 5.428089906109086371e+00
1.899222944129926038e-01 5.351047347862387227e+00
1.908839262831476258e-01 5.465783318441470584e+00
1.918455581533026477e-01 5.625598672995561600e+00
1.928071900234576974e-01 5.112766044591801062e+00
1.937688218936126916e-01 5.015361001253289430e+00
1.947304537637677413e-01 5.176003609620735801e+00
1.956920856339227632e-01 5.242797587147617122e+00
1.966537175040777852e-01 5.188100746031036437e+00
1.976153493742328071e-01 4.883707190430765621e+00
1.985769812443878291e-01 4.864786108931273390e+00
1.995386131145428510e-01 4.822566306723356178e+00
2.005002449846978729e-01 4.320376292133492058e+00
2.014618768548528949e-01 4.217787245303767918e+00
2.024235087250079168e-01 4.395203110052605666e+00
2.033851405951629665e-01 4.166185815800972136e+00
2.043467724653179884e-01 3.939819679251371554e+00
2.053084043354730381e-01 3.852570826483585620e+00
2.062700362056280046e-01 3.873357030869208018e+00
2.072316680757830543e-01 3.613998691129797436e+00
2.081932999459380762e-01 3.505871903766582420e+00
2.091549318160931259e-01 3.277876659163620587e+00
2.101165636862481478e-01 3.089862066514506012e+00
2.110781955564031698e-01 3.093289325675200985e+00
2.120398274265581640e-01 2.870060891165760353e+00
2.130014592967132137e-01 2.949605861481860103e+00
2.139630911668682356e-01 2.920294290365095691e+00
2.149247230370232575e-01 2.546062004560123881e+00
2.158863549071783072e-01 2.151769587582680998e+00
2.168479867773333014e-01 2.022476452981624817e+00
2.178096186474883234e-01 1.875110047015770220e+00
2.187712505176433453e-01 1.917152196943838760e+00
2.197328823877983950e-01 1.889896053996338310e+00
2.206945142579534169e-01 1.830749836044827106e+00
2.216561461281084666e-01 1.493209160669447755e+00
2.226177779982634330e-01 1.338555469056242231e+00
2.235794098684184827e-01 1.284702534839098576e+00
2.245410417385735047e-01 1.229869521409931110e+00
2.255026736087285544e-01 1.304766316235177470e+00
2.264643054788835763e-01 1.268510693877839657e+00
2.274259373490385983e-01 1.256470469441332227e+00
2.283875692191935924e-01 1.121585873850445836e+00
2.293492010893486421e-01 8.403710838167697261e-01
2.303108329595036641e-01 6.578208365431841287e-01
2.312724648296586860e-01 8.370805804522376548e-01
2.322340966998137357e-01 8.721406951863919232e-01
2.331957285699687299e-01 9.409225938567793435e-01
2.341573604401237518e-01 6.517737435203727614e-01
2.351189923102787738e-01 5.877102284901170037e-01
2.360806241804338235e-01 6.601126117429707563e-01
2.370422560505888454e-01 4.120990109055853168e-01
2.380038879207438951e-01 5.335709208729610964e-01
2.389655197908988615e-01 5.034812811019797607e-01
2.399271516610539112e-01 6.063278501980100543e-01
2.408887835312089332e-01 7.542182841946640792e-01
2.418504154013639829e-01 4.284306954177488080e-01
2.428120472715190048e-01 4.681740134614180704e-01
2.437736791416740267e-01 4.502880847241961249e-01
2.447353110118290209e-01 5.472145634954017623e-01
2.456969428819840706e-01 6.476435072623942801e-01
2.466585747521390926e-01 3.767845626292967154e-01
2.476202066222941145e-01 1.397573605197486302e-01
2.485818384924491642e-01 9.627575936154997294e-02
2.495434703626041584e-01 2.457501591961204213e-01
2.505051022327591803e-01 3.752100012864438838e-01
2.514667341029142023e-01 4.307785791405649434e-01
2.524283659730692242e-01 3.539977594322714083e-01
2.533899978432243016e-01 6.327407669714872895e-01
2.543516297133793236e-01 7.325509472248192822e-01
2.553132615835342900e-01 2.988874348250618596e-01
2.562748934536893120e-01 1.813755792049320803e-01
2.572365253238443894e-01 4.209377218373546725e-01
2.581981571939994113e-01 4.096719394034558093e-01
2.591597890641544333e-01 2.017950386769875593e-01
2.601214209343094552e-01 4.768082137341487226e-01
2.610830528044644772e-01 6.501539096454642674e-01
2.620446846746194991e-01 6.013146843891128412e-01
2.630063165447745210e-01 9.548423409006723261e-01
2.639679484149295430e-01 8.580655280727711443e-01
2.649295802850845649e-01 7.647998569742959774e-01
2.658912121552395869e-01 6.898637280985191467e-01
2.668528440253946088e-01 6.460801799160620362e-01
2.678144758955496307e-01 7.365175798067014057e-01
2.687761077657046527e-01 7.346586286018741419e-01
2.697377396358597301e-01 9.205914582437593197e-01
2.706993715060147521e-01 7.714806021945328496e-01
2.716610033761697185e-01 8.712273374364478684e-01
2.726226352463247404e-01 1.193001717839980103e+00
2.735842671164798179e-01 1.243727917226294721e+00
2.745458989866348398e-01 1.159234750688614923e+00
2.755075308567898618e-01 1.116982061361348144e+00
2.764691627269448837e-01 1.026488875934120415e+00
2.774307945970999056e-01 8.463318492659226422e-01
2.783924264672549276e-01 9.387679792629199937e-01
2.793540583374099495e-01 9.952454890470363580e-01
2.803156902075649715e-01 1.126630487093109423e+00
2.812773220777199934e-01 9.482574677512971562e-01
2.822389539478750153e-01 9.332217415484329592e-01
2.832005858180300373e-01 1.089579935808885125e+00
2.841622176881850592e-01 1.161433738867032162e+00
2.851238495583400812e-01 1.256536234249775674e+00
2.860854814284951586e-01 1.196323983119821577e+00
2.870471132986501805e-01 1.228623241742916150e+00
2.880087451688051470e-01 1.103175731307072027e+00
2.889703770389601689e-01 7.810668020799873545e-01
2.899320089091152464e-01 7.988716567268916435e-01
2.908936407792702683e-01 1.018179783124640636e+00
2.918552726494252902e-01 1.047639304601919008e+00
2.928169045195803122e-01 1.074307284311579735e+00
2.937785363897353341e-01 8.052947934286542875e-01
2.947401682598903561e-01 1.054327413057542628e+00
2.957018001300453780e-01 9.836876006872579126e-01
2.966634320002003999e-01 8.782948030703678910e-01
2.976250638703554219e-01 8.740458439683607139e-01
2.985866957405104993e-01 8.181889239614932308e-01
2.995483276106654658e-01 8.791013994472400839e-01
3.005099594808204877e-01 8.424045980088052943e-01
3.014715913509755651e-01 8.654553722571201035e-01
3.024332232211305871e-01 9.789783661692865735e-01
3.033948550912856090e-01 8.369962397573154078e-01
3.043564869614405755e-01 8.261868514960433174e-01
3.053181188315956529e-01 1.140859327423935810e+00
3.062797507017506748e-01 8.455204507721099105e-01
3.072413825719056968e-01 8.697030718497558155e-01
3.082030144420607187e-01 7.837166114705951259e-01
3.091646463122157407e-01 7.453206138318719809e-01
3.101262781823707626e-01 6.311513637567713886e-01
3.110879100525257845e-01 6.360437102192300074e-01
3.120495419226808065e-01 7.828760407156067913e-01
3.130111737928358284e-01 7.076893340601273508e-01
3.139728056629909059e-01 5.164620844198850591e-01
3.149344375331459278e-01 3.044845540599361300e-01
3.158960694033008942e-01 5.659095027773979325e-01
3.168577012734559162e-01 7.933646248538614998e-01
3.178193331436109936e-01 5.509346427306240912e-01
3.187809650137660156e-01 4.952233737789804024e-01
3.197425968839210375e-01 4.844664869872197244e-01
3.207042287540760039e-01 5.039049723646265022e-01
3.216658606242310814e-01 6.031955055563251733e-01
3.226274924943861033e-01 6.258822877805343410e-01
3.235891243645411253e-01 5.421751017732425737e-01
3.245507562346961472e-01 5.733445293831316292e-01
3.255123881048511691e-01 5.002021013616300138e-01
3.264740199750061911e-01 3.048270488967261826e-01
3.274356518451612130e-01 3.689466248488386668e-01
3.283972837153162350e-01 3.594664184164635401e-01
3.293589155854712569e-01 1.398652317153761260e-01
3.303205474556263344e-01 3.178930343632906386e-01
3.312821793257813563e-01 3.335482223660619638e-01
3.322438111959363227e-01 2.134253047569281136e-01
3.332054430660913447e-01 3.502399028363427647e-01
3.341670749362464221e-01 4.658815614465581234e-01
3.351287068064014441e-01 6.025658584904789450e-01
3.360903386765564660e-01 4.782095820928766727e-01
3.370519705467114324e-01 4.745019824067853165e-01
3.380136024168665099e-01 3.906995318088277713e-01
3.389752342870215318e-01 4.760704921661123024e-01
3.399368661571765537e-01 5.835244564035129144e-01
3.408984980273315757e-01 4.282212142941013155e-01
3.418601298974865976e-01 3.391363571536309962e-01
3.428217617676416196e-01 5.773025178512121158e-01
3.437833936377966415e-01 4.356363637090154839e-01
3.447450255079516634e-01 2.689496262503681123e-01
3.457066573781066854e-01 0.000000000000000000e+00
3.466682892482617628e-01 1.212849600450738308e-01
3.476299211184167848e-01 1.832653050607646605e-01
3.485915529885717512e-01 2.430609913633787755e-01
3.495531848587267731e-01 4.215771902096925317e-01
3.505148167288818506e-01 3.074446280728295733e-01
3.514764485990368725e-01 2.902431693486846598e-01
3.524380804691918945e-01 4.011896493245039608e-01
3.533997123393468609e-01 3.426328836101859565e-01
3.543613442095019384e-01 3.220098310268042496e-01
3.553229760796569603e-01 3.239154551643750324e-01
3.562846079498119822e-01 4.720836211902188495e-01
3.572462398199670042e-01 5.862279957280804865e-01
3.582078716901220261e-01 4.132027655651562270e-01
3.591695035602770480e-01 4.871255666252594096e-01
3.601311354304320700e-01 5.903831523659803793e-01
3.610927673005870919e-01 3.477293714378717482e-01
3.620543991707421139e-01 4.743171665246030955e-01
3.630160310408971913e-01 7.305216706022505946e-01
3.639776629110522133e-01 6.183583424046332766e-01
3.649392947812071797e-01 5.236690165162123378e-01
3.659009266513622016e-01 4.557412611513385059e-01
3.668625585215172791e-01 3.828576570606863072e-01
3.678241903916723010e-01 4.185760320743163732e-01
3.687858222618273230e-01 6.078434263296976781e-01
3.697474541319822894e-01 6.336428889303533651e-01
3.707090860021373668e-01 5.943080899896777680e-01
3.716707178722923888e-01 6.847394200502101569e-01
3.726323497424474107e-01 6.984539512085135016e-01
3.735939816126024327e-01 7.211145848820450510e-01
3.745556134827574546e-01 5.496673044369337902e-01
3.755172453529124765e-01 5.341572834454417773e-01
3.764788772230674985e-01 2.521648009568728810e-01
3.774405090932225204e-01 4.113457960645412470e-01
3.784021409633775423e-01 3.635007518420145800e-01
3.793637728335326198e-01 4.509802330534711245e-01
3.803254047036876417e-01 6.359059746242756717e-01
3.812870365738426082e-01 6.072445696603132603e-01
3.822486684439976301e-01 5.045263706539913073e-01
3.832103003141527076e-01 4.393711958409340923e-01
3.841719321843077295e-01 4.338820353728145562e-01
3.851335640544627514e-01 4.598740124312321598e-01
3.860951959246177734e-01 6.228144001820190567e-01
3.870568277947727953e-01 9.644290007425055933e-01
3.880184596649278173e-01 6.830096007507187039e-01
3.889800915350828392e-01 6.346261712449816628e-01
3.899417234052378611e-01 6.228990237373643879e-01
3.909033552753928831e-01 4.454110468564707048e-01
3.918649871455479050e-01 5.631698226677812613e-01
3.928266190157029270e-01 4.300561797223281246e-01
3.937882508858579489e-01 4.328991723847117612e-01
3.947498827560129708e-01 4.621646838714745797e-01
3.957115146261680483e-01 5.261964654163442390e-01
3.966731464963230702e-01 4.523641598418670640e-01
3.976347783664780366e-01 4.200725353935439443e-01
3.985964102366330586e-01 5.278794901252048533e-01
3.995580421067881360e-01 5.459577334911145385e-01
4.005196739769430470e-01 5.123500706865584675e-01
4.014813058470981244e-01 5.640092922478991966e-01
4.024429377172531463e-01 5.690483788078708471e-01
4.034045695874082238e-01 3.608141620789560022e-01
