# q (1/Angstrom), Intensity (arb)
2.067508526570814575e-02 0.000000000000000000e+00
2.163671713586316769e-02 1.643240514216792292e+00
2.259834900601819310e-02 2.783980433971310120e+00
2.355998087617321851e-02 3.957931646869488951e+00
2.452161274632824739e-02 4.744381167921301490e+00
2.548324461648326933e-02 5.303976055093921005e+00
2.644487648663829821e-02 5.826252969677206295e+00
2.740650835679332709e-02 6.384464531751069316e+00
2.836814022694834903e-02 6.854246176497452048e+00
2.932977209710337443e-02 7.054214644103339538e+00
3.029140396725839637e-02 7.154130460611069608e+00
3.125303583741342178e-02 7.262443549979881396e+00
3.221466770756845066e-02 7.300190955598456100e+00
3.317629957772347260e-02 7.718405202540727927e+00
3.413793144787850148e-02 7.745686450706540604e+00
3.509956331803352342e-02 7.784724989514829829e+00
3.606119518818855230e-02 7.845907313859523668e+00
3.702282705834358117e-02 7.852753081280505754e+00
3.798445892849860311e-02 7.856315828766361697e+00
3.894609079865363199e-02 7.951850483066213116e+00
3.990772266880865393e-02 8.033308564814914732e+00
4.086935453896367587e-02 8.103758750759915586e+00
4.183098640911870475e-02 8.145041067577860616e+00
4.279261827927372669e-02 8.027211222078332042e+00
4.375425014942875557e-02 7.827257043123144520e+00
4.471588201958377751e-02 7.958759681582597167e+00
4.567751388973880639e-02 8.131243794385461854e+00
4.663914575989382832e-02 8.100575977695223528e+00
4.760077763004885720e-02 8.063954902071525765e+00
4.856240950020387914e-02 8.094172625719233238e+00
4.952404137035890108e-02 8.169840642482673942e+00
5.048567324051392302e-02 8.136150265640026191e+00
5.144730511066895190e-02 8.164786409954492896e+00
5.240893698082397384e-02 8.158191885498769835e+00
5.337056885097899578e-02 8.093217476897065055e+00
5.433220072113403160e-02 8.080387260100614810e+00
5.529383259128905354e-02 8.141554358053703311e+00
5.625546446144407547e-02 8.106702523766864843e+00
5.721709633159910435e-02 8.247779895311369458e+00
5.817872820175412629e-02 8.155909988056384563e+00
5.914036007190914823e-02 8.063959884171966408e+00
6.010199194206417017e-02 8.100690764741168337e+00
6.106362381221920599e-02 8.198919041830309951e+00
6.202525568237422793e-02 8.245951032564036609e+00
6.298688755252924987e-02 8.084880151380945179e+00
6.394851942268428568e-02 8.092397369681807007e+00
6.491015129283930762e-02 8.174673773122510312e+00
6.587178316299432956e-02 8.341513417330556734e+00
6.683341503314935150e-02 8.242036588912592165e+00
6.779504690330438732e-02 8.229971365947385209e+00
6.875667877345940926e-02 8.161864669292024033e+00
6.971831064361443120e-02 8.202901534276170636e+00
7.067994251376945314e-02 8.040770854667242062e+00
7.164157438392447508e-02 8.122725781753768359e+00
7.260320625407949702e-02 8.156291931676200591e+00
7.356483812423453283e-02 8.228196754079482034e+00
7.452646999438955477e-02 8.128444695390186325e+00
7.548810186454457671e-02 8.264464616447044776e+00
7.644973373469959865e-02 8.228329031354110867e+00
7.741136560485463447e-02 8.160180608702372496e+00
7.837299747500965641e-02 8.164801084738034120e+00
7.933462934516467835e-02 8.315700093125494519e+00
8.029626121531971417e-02 8.365277206712761426e+00
8.125789308547473611e-02 8.240439456442711474e+00
8.221952495562975805e-02 8.254957886872636763e+00
8.318115682578479386e-02 8.285339604890545218e+00
8.414278869593981580e-02 8.245849964928467557e+00
8.510442056609483774e-02 8.137684552347264955e+00
8.606605243624985968e-02 8.266284060884837359e+00
8.702768430640489550e-02 8.279139263329227560e+00
8.798931617655991744e-02 8.272827226652022858e+00
8.895094804671493938e-02 8.268906459968679457e+00
8.991257991686996132e-02 8.240733998844728347e+00
9.087421178702498326e-02 8.313175353843726967e+00
9.183584365718000520e-02 8.438392832342238137e+00
9.279747552733502713e-02 8.319151170515143079e+00
9.375910739749006295e-02 8.298643382004803115e+00
9.472073926764508489e-02 8.237713831660919084e+00
9.568237113780010683e-02 8.256150520554841776e+00
9.664400300795514265e-02 8.266268746731530115e+00
9.760563487811016459e-02 8.377720737654644978e+00
9.856726674826518653e-02 8.392383145660971877e+00
9.952889861842022234e-02 8.333704253451822197e+00
1.004905304885752443e-01 8.330499920996977892e+00
1.014521623587302801e-01 8.334335069543794106e+00
1.024137942288853020e-01 8.297022465110423184e+00
1.033754260990403240e-01 8.312253989717353519e+00
1.043370579691953459e-01 8.266197549968042679e+00
1.052986898393503817e-01 8.347054459340711219e+00
1.062603217095053898e-01 8.247736349304622294e+00
1.072219535796604256e-01 8.285478911264233304e+00
1.081835854498154614e-01 8.346155632823727188e+00
1.091452173199704695e-01 8.287555001819217892e+00
1.101068491901255053e-01 8.275766574193742287e+00
1.110684810602805411e-01 8.309306311008549883e+00
1.120301129304355492e-01 8.317395756830999076e+00
1.129917448005905850e-01 8.317228033526410158e+00
1.139533766707456208e-01 8.235437897657890360e+00
1.149150085409006289e-01 8.259358261526301703e+00
1.158766404110556647e-01 8.336899791779540436e+00
1.168382722812106728e-01 8.272598354810369869e+00
1.177999041513657086e-01 8.330787588214876749e+00
1.187615360215207305e-01 8.249006910395058512e+00
1.197231678916757525e-01 8.289114715523822952e+00
1.206847997618307744e-01 8.314061930262518274e+00
1.216464316319858102e-01 8.307981074912452968e+00
1.226080635021408183e-01 8.409373884132511634e+00
1.235696953722958541e-01 8.328373703828077623e+00
1.245313272424508899e-01 8.381027944713276057e+00
1.254929591126059119e-01 8.441053331203534071e+00
1.264545909827609338e-01 8.345043532292013566e+00
1.274162228529159557e-01 8.350024011312422445e+00
1.283778547230709777e-01 8.302212975686122931e+00
1.293394865932259996e-01 8.271380998687755337e+00
1.303011184633810493e-01 8.331683561440218710e+00
1.312627503335360435e-01 8.318304822667792919e+00
1.322243822036910932e-01 8.357776270549164721e+00
1.331860140738460874e-01 8.409832674665574714e+00
1.341476459440011371e-01 8.432687175383287936e+00
1.351092778141561590e-01 8.365556361550909870e+00
1.360709096843111809e-01 8.323514589477399639e+00
1.370325415544662029e-01 8.411631968204449805e+00
1.379941734246212526e-01 8.341058783673995336e+00
1.389558052947762468e-01 8.335413208310802347e+00
1.399174371649312965e-01 8.285431167238987982e+00
1.408790690350863184e-01 8.341973204497254102e+00
1.418407009052413403e-01 8.387242614890897840e+00
1.428023327753963623e-01 8.331368751590147781e+00
1.437639646455513842e-01 8.329416478100045040e+00
1.447255965157064062e-01 8.350840212949034225e+00
1.456872283858614281e-01 8.492136930603244593e+00
1.466488602560164778e-01 8.374082623167900863e+00
1.476104921261714720e-01 8.304706036195813823e+00
1.485721239963265217e-01 8.494719597592021998e+00
1.495337558664815436e-01 8.524166337003235228e+00
1.504953877366365655e-01 8.416777724835842633e+00
1.514570196067915875e-01 8.420423815070506635e+00
1.524186514769466094e-01 8.414440322880359702e+00
1.533802833471016314e-01 8.396889827292618236e+00
1.543419152172566811e-01 8.373464268088440576e+00
1.553035470874116752e-01 8.405741231579618500e+00
1.562651789575667249e-01 8.393606469692848293e+00
1.572268108277217469e-01 8.364660706798586531e+00
1.581884426978767688e-01 8.428835071250182054e+00
1.591500745680317908e-01 8.317542583243428211e+00
1.601117064381868405e-01 8.455686174339229311e+00
1.610733383083418346e-01 8.397931983733627703e+00
1.620349701784968843e-01 8.404766794528773843e+00
1.629966020486519063e-01 8.693421009918919751e+00
1.639582339188069282e-01 8.534285024508534434e+00
1.649198657889619501e-01 8.465800625898769027e+00
1.658814976591169721e-01 8.447658430921183736e+00
1.668431295292719940e-01 8.370239062159562593e+00
1.678047613994270160e-01 8.437299099432117089e+00
1.687663932695820379e-01 8.474650592552794848e+00
1.697280251397370598e-01 8.368213159984051686e+00
1.706896570098921095e-01 8.385509201270094692e+00
1.716512888800471037e-01 8.473897761523673466e+00
1.726129207502021534e-01 8.414773575144669948e+00
1.735745526203571754e-01 8.334668265756260297e+00
1.745361844905121973e-01 8.340975946453996315e+00
1.754978163606672192e-01 8.378909797436797646e+00
1.764594482308222689e-01 8.508052576249674814e+00
1.774210801009772631e-01 8.474720434538575375e+00
1.783827119711323128e-01 8.319218075563956205e+00
1.793443438412873348e-01 8.418848124901959551e+00
1.803059757114423567e-01 8.496443139827402291e+00
1.812676075815973786e-01 8.432615881079838616e+00
1.822292394517524006e-01 8.431462024391610299e+00
1.831908713219074225e-01 8.369397638493376590e+00
1.841525031920624444e-01 8.434460086086259523e+00
1.851141350622174664e-01 8.384499750229274184e+00
1.860757669323724883e-01 8.426422462635290600e+00
1.870373988025275380e-01 8.391857202813843841e+00
1.879990306726825322e-01 8.382308267495833576e+00
1.889606625428375819e-01 8.309510711378313985e+00
1.899222944129926038e-01 8.390219076831577638e+00
1.908839262831476258e-01 8.440909861245344814e+00
1.918455581533026477e-01 8.440676107422440566e+00
1.928071900234576974e-01 8.381885765156418699e+00
1.937688218936126916e-01 8.416670090751900091e+00
1.947304537637677413e-01 8.403652405410912962e+00
1.956920856339227632e-01 8.319473939254832473e+00
1.966537175040777852e-01 8.457828333940945242e+00
1.976153493742328071e-01 8.430187806035535303e+00
1.985769812443878291e-01 8.410200185155764174e+00
1.995386131145428510e-01 8.404999127762637912e+00
2.005002449846978729e-01 8.474308636850391707e+00
2.014618768548528949e-01 8.419553999534082678e+00
2.024235087250079168e-01 8.372619373556664968e+00
2.033851405951629665e-01 8.356864127154894462e+00
2.043467724653179884e-01 8.449557717849128124e+00
2.053084043354730381e-01 8.479355407790174937e+00
2.062700362056280046e-01 8.467267300697997712e+00
2.072316680757830543e-01 8.485040434707840973e+00
2.081932999459380762e-01 8.416232962339774915e+00
2.091549318160931259e-01 8.428939086658377988e+00
2.101165636862481478e-01 8.467729458607919923e+00
2.110781955564031698e-01 8.434716145448827973e+00
2.120398274265581640e-01 8.426555859166395379e+00
2.130014592967132137e-01 8.356553122754638352e+00
2.139630911668682356e-01 8.398734855052840231e+00
2.149247230370232575e-01 8.435788882572900604e+00
2.158863549071783072e-01 8.418835827025921148e+00
2.168479867773333014e-01 8.449299006018431868e+00
2.178096186474883234e-01 8.430705680572769367e+00
2.187712505176433453e-01 8.467914166055141578e+00
2.197328823877983950e-01 8.659776726448724204e+00
2.206945142579534169e-01 8.460121636471436446e+00
2.216561461281084666e-01 8.450296697105518007e+00
2.226177779982634330e-01 8.436479285061382782e+00
2.235794098684184827e-01 8.492924863936551105e+00
2.245410417385735047e-01 8.522326827099298896e+00
2.255026736087285544e-01 8.439950169924406609e+00
2.264643054788835763e-01 8.444646411111532913e+00
2.274259373490385983e-01 8.437181094999708364e+00
2.283875692191935924e-01 8.443315427493612191e+00
2.293492010893486421e-01 8.472413184384855356e+00
2.303108329595036641e-01 8.508817287385230799e+00
2.312724648296586860e-01 8.515289013827688436e+00
2.322340966998137357e-01 8.486512904432720106e+00
2.331957285699687299e-01 8.486720630154987788e+00
2.341573604401237518e-01 8.477663227004327950e+00
2.351189923102787738e-01 8.525035651605172404e+00
2.360806241804338235e-01 8.484647972311199382e+00
2.370422560505888454e-01 8.491583529195365188e+00
2.380038879207438951e-01 8.485739377683575668e+00
2.389655197908988615e-01 8.398591340520431103e+00
2.399271516610539112e-01 8.421214626670192160e+00
2.408887835312089332e-01 8.512010842905079144e+00
2.418504154013639829e-01 8.505120023254580275e+00
2.428120472715190048e-01 8.418028793802541543e+00
2.437736791416740267e-01 8.495620138106183106e+00
2.447353110118290209e-01 8.529319795219329592e+00
2.456969428819840706e-01 8.446014213247902802e+00
2.466585747521390926e-01 8.423918434184352932e+00
2.476202066222941145e-01 8.507939503515688173e+00
2.485818384924491642e-01 8.493293762348480769e+00
2.495434703626041584e-01 8.482213041509199414e+00
2.505051022327591803e-01 8.448201593663963394e+00
2.514667341029142023e-01 8.430525447684063423e+00
2.524283659730692242e-01 8.463653245788002266e+00
2.533899978432243016e-01 8.470954652111638339e+00
2.543516297133793236e-01 8.449454239416649415e+00
2.553132615835342900e-01 8.417427432340558013e+00
2.562748934536893120e-01 8.411495757051582700e+00
2.572365253238443894e-01 8.455262717771958592e+00
2.581981571939994113e-01 8.468002404867711164e+00
2.591597890641544333e-01 8.396523808312609916e+00
2.601214209343094552e-01 8.420966360114407578e+00
2.610830528044644772e-01 8.426661298106287390e+00
2.620446846746194991e-01 8.461541332735686538e+00
2.630063165447745210e-01 8.445289186913450763e+00
2.639679484149295430e-01 8.467488076688622911e+00
2.649295802850845649e-01 8.467565985795509675e+00
2.658912121552395869e-01 8.557364741860062907e+00
2.668528440253946088e-01 8.515832395924698872e+00
2.678144758955496307e-01 8.496369850866678064e+00
2.687761077657046527e-01 8.470349536325011641e+00
2.697377396358597301e-01 8.480521758573475566e+00
2.706993715060147521e-01 8.474004030991638459e+00
2.716610033761697185e-01 8.481116501419062814e+00
2.726226352463247404e-01 8.487014545599569360e+00
2.735842671164798179e-01 8.543466058480300163e+00
2.745458989866348398e-01 8.477008728251821168e+00
2.755075308567898618e-01 8.498935812785660460e+00
2.764691627269448837e-01 8.447340268169812205e+00
2.774307945970999056e-01 8.472472178051798863e+00
2.783924264672549276e-01 8.485427747877329452e+00
2.793540583374099495e-01 8.490058523715546812e+00
2.803156902075649715e-01 8.490737364628385464e+00
2.812773220777199934e-01 8.472936021365530479e+00
2.822389539478750153e-01 8.458701773160719029e+00
2.832005858180300373e-01 8.494892296083181193e+00
2.841622176881850592e-01 8.470942332054653079e+00
2.851238495583400812e-01 8.431672135227962883e+00
2.860854814284951586e-01 8.492001722793219187e+00
2.870471132986501805e-01 8.547212762911483352e+00
2.880087451688051470e-01 8.458934439438730024e+00
2.889703770389601689e-01 8.470588173367808338e+00
2.899320089091152464e-01 8.428913307256138410e+00
2.908936407792702683e-01 8.428274000499991203e+00
2.918552726494252902e-01 8.444718266251726391e+00
2.928169045195803122e-01 8.445563580860255826e+00
2.937785363897353341e-01 8.440829724397971745e+00
2.947401682598903561e-01 8.489426990669613815e+00
2.957018001300453780e-01 8.477939291581130021e+00
2.966634320002003999e-01 8.478450455283704557e+00
2.976250638703554219e-01 8.403048374987911018e+00
2.985866957405104993e-01 8.424590562150143569e+00
2.995483276106654658e-01 8.451156942854964882e+00
3.005099594808204877e-01 8.470277591896122615e+00
3.014715913509755651e-01 8.485836037882927840e+00
3.024332232211305871e-01 8.519427057578674578e+00
3.033948550912856090e-01 8.543081296778341382e+00
3.043564869614405755e-01 8.463077334180306721e+00
3.053181188315956529e-01 8.436574303408786335e+00
3.062797507017506748e-01 8.394696712366238600e+00
3.072413825719056968e-01 8.431240354808446469e+00
3.082030144420607187e-01 8.480344536171521952e+00
3.091646463122157407e-01 8.499284918379032661e+00
3.101262781823707626e-01 8.418359393425660642e+00
3.110879100525257845e-01 8.432759248893585635e+00
3.120495419226808065e-01 8.426781341276662118e+00
3.130111737928358284e-01 8.484661346821132710e+00
3.139728056629909059e-01 8.483245278278605639e+00
3.149344375331459278e-01 8.460098693838071782e+00
3.158960694033008942e-01 8.386930929362401699e+00
3.168577012734559162e-01 8.416086275359065283e+00
3.178193331436109936e-01 8.462380327107826616e+00
3.187809650137660156e-01 8.479788308250283180e+00
3.197425968839210375e-01 8.497646894052591549e+00
3.207042287540760039e-01 8.478757150066929427e+00
3.216658606242310814e-01 8.447519718736639760e+00
3.226274924943861033e-01 8.483332453286337227e+00
3.235891243645411253e-01 8.526148911577919876e+00
3.245507562346961472e-01 8.440128338203933822e+00
3.255123881048511691e-01 8.412680753492402630e+00
3.264740199750061911e-01 8.495168237242179288e+00
3.274356518451612130e-01 8.454371743294755603e+00
3.283972837153162350e-01 8.433625838314076972e+00
3.293589155854712569e-01 8.442237887574297162e+00
3.303205474556263344e-01 8.447485322298398103e+00
3.312821793257813563e-01 8.471986016719171175e+00
3.322438111959363227e-01 8.449449351966812571e+00
3.332054430660913447e-01 8.473025252667975238e+00
3.341670749362464221e-01 8.486348222281637987e+00
3.351287068064014441e-01 8.432100095520889127e+00
3.360903386765564660e-01 8.430664126277195081e+00
3.370519705467114324e-01 8.458796982991113822e+00
3.380136024168665099e-01 8.527849848291813473e+00
3.389752342870215318e-01 8.506989427906175294e+00
3.399368661571765537e-01 8.537937430917022397e+00
3.408984980273315757e-01 8.524974899095962400e+00
3.418601298974865976e-01 8.520421045313463893e+00
3.428217617676416196e-01 8.603884490921643646e+00
3.437833936377966415e-01 8.549881368653794667e+00
3.447450255079516634e-01 8.510196927890312679e+00
3.457066573781066854e-01 8.537554646925180180e+00
3.466682892482617628e-01 8.506925509160385701e+00
3.476299211184167848e-01 8.492040041285951801e+00
3.485915529885717512e-01 8.509815050992340701e+00
3.495531848587267731e-01 8.499880233484660152e+00
3.505148167288818506e-01 8.438254725008230039e+00
3.514764485990368725e-01 8.461984180494717123e+00
3.524380804691918945e-01 8.482519118181986784e+00
3.533997123393468609e-01 8.459151907907397572e+00
3.543613442095019384e-01 8.569515637940396502e+00
3.553229760796569603e-01 8.443031168183253499e+00
3.562846079498119822e-01 8.442368872692012971e+00
3.572462398199670042e-01 8.503520981595755757e+00
3.582078716901220261e-01 8.552914458327853353e+00
3.591695035602770480e-01 8.496723144802750483e+00
3.601311354304320700e-01 8.501009956250870303e+00
3.610927673005870919e-01 8.538115630165254544e+00
3.620543991707421139e-01 8.534573087843401851e+00
3.630160310408971913e-01 8.574957653897619991e+00
3.639776629110522133e-01 8.511252119146192285e+00
3.649392947812071797e-01 8.504248500125994426e+00
3.659009266513622016e-01 8.503692881985919882e+00
3.668625585215172791e-01 8.480902712864335058e+00
3.678241903916723010e-01 8.497957511916624185e+00
3.687858222618273230e-01 8.523048910596404681e+00
3.697474541319822894e-01 8.470703743046968270e+00
3.707090860021373668e-01 8.459803980889947894e+00
3.716707178722923888e-01 8.457653623567077616e+00
3.726323497424474107e-01 8.477211504959655031e+00
3.735939816126024327e-01 8.465452500496509103e+00
3.745556134827574546e-01 8.506257807194591791e+00
3.755172453529124765e-01 8.504476361653162897e+00
3.764788772230674985e-01 8.505749953021926046e+00
3.774405090932225204e-01 8.452712280710517945e+00
3.784021409633775423e-01 8.419451593358667552e+00
3.793637728335326198e-01 8.474600155062850249e+00
3.803254047036876417e-01 8.486375726476762082e+00
3.812870365738426082e-01 8.516455534138184902e+00
3.822486684439976301e-01 8.500816432804676026e+00
3.832103003141527076e-01 8.474546852475079106e+00
3.841719321843077295e-01 8.483588486456019595e+00
3.851335640544627514e-01 8.511111161440032546e+00
3.860951959246177734e-01 8.472604170883762720e+00
3.870568277947727953e-01 8.476165984136791565e+00
3.880184596649278173e-01 8.490411084815818299e+00
3.889800915350828392e-01 8.517574604206881617e+00
3.899417234052378611e-01 8.478715433199011997e+00
3.909033552753928831e-01 8.439735433998174940e+00
3.918649871455479050e-01 8.447332943635124991e+00
3.928266190157029270e-01 8.526279151550221869e+00
3.937882508858579489e-01 8.511038828526725553e+00
3.947498827560129708e-01 8.463947322698622600e+00
3.957115146261680483e-01 8.467587838954298007e+00
3.966731464963230702e-01 8.488512980266076369e+00
3.976347783664780366e-01 8.538343717444265124e+00
3.985964102366330586e-01 8.501885459966258551e+00
3.995580421067881360e-01 8.530627650282557539e+00
4.005196739769430470e-01 8.535724688296275176e+00
4.014813058470981244e-01 8.479202941270402860e+00
4.024429377172531463e-01 8.472005765317296877e+00
4.034045695874082238e-01 8.523506949664453103e+00
