# q (1/Angstrom), Intensity (arb)
2.067508526570814575e-02 4.558040093009472002e+02
2.163671713586316769e-02 4.764564036388472914e+02
2.259834900601819310e-02 4.928719232895028881e+02
2.355998087617321851e-02 4.989919077806450787e+02
2.452161274632824739e-02 4.992629538142640513e+02
2.548324461648326933e-02 5.002934229906946939e+02
2.644487648663829821e-02 5.010373356313711497e+02
2.740650835679332709e-02 5.009324909242590138e+02
2.836814022694834903e-02 4.997712599540674319e+02
2.932977209710337443e-02 4.965480345004803553e+02
3.029140396725839637e-02 4.954052962877546520e+02
3.125303583741342178e-02 4.942933054437284000e+02
3.221466770756845066e-02 4.875314775011118513e+02
3.317629957772347260e-02 4.807803455319879049e+02
3.413793144787850148e-02 4.773051773991912228e+02
3.509956331803352342e-02 4.751094675077446254e+02
3.606119518818855230e-02 4.734920647306770434e+02
3.702282705834358117e-02 4.669089849173616926e+02
3.798445892849860311e-02 4.618342201164338121e+02
3.894609079865363199e-02 4.584676875996161129e+02
3.990772266880865393e-02 4.561815401207476270e+02
4.086935453896367587e-02 4.521799721318060961e+02
4.183098640911870475e-02 4.468756500092923716e+02
4.279261827927372669e-02 4.427494045739575768e+02
4.375425014942875557e-02 4.326877331634249231e+02
4.471588201958377751e-02 4.265553828157040925e+02
4.567751388973880639e-02 4.228230324277753311e+02
4.663914575989382832e-02 4.168517596125942646e+02
4.760077763004885720e-02 4.101823994807255076e+02
4.856240950020387914e-02 4.024839341419047969e+02
4.952404137035890108e-02 3.944358601155123552e+02
5.048567324051392302e-02 3.881682999755382752e+02
5.144730511066895190e-02 3.821380275755500406e+02
5.240893698082397384e-02 3.761688516472959805e+02
5.337056885097899578e-02 3.689187363621175564e+02
5.433220072113403160e-02 3.605988893373614133e+02
5.529383259128905354e-02 3.542054136240299727e+02
5.625546446144407547e-02 3.456756322142375097e+02
5.721709633159910435e-02 3.346151116409330371e+02
5.817872820175412629e-02 3.260254369852276568e+02
5.914036007190914823e-02 3.185777032927867936e+02
6.010199194206417017e-02 3.124277243932383499e+02
6.106362381221920599e-02 3.037969844112265037e+02
6.202525568237422793e-02 2.949630024119307450e+02
6.298688755252924987e-02 2.866455815160381349e+02
6.394851942268428568e-02 2.785401058026471901e+02
6.491015129283930762e-02 2.715438763784035814e+02
6.587178316299432956e-02 2.643011027157469925e+02
6.683341503314935150e-02 2.560437888495764582e+02
6.779504690330438732e-02 2.479811975209084949e+02
6.875667877345940926e-02 2.413663644250386255e+02
6.971831064361443120e-02 2.348287616446879156e+02
7.067994251376945314e-02 2.279050903478356531e+02
7.164157438392447508e-02 2.200768934741803946e+02
7.260320625407949702e-02 2.142596581636346684e+02
7.356483812423453283e-02 2.074582311770612364e+02
7.452646999438955477e-02 1.993248768068625338e+02
7.548810186454457671e-02 1.928907545290479391e+02
7.644973373469959865e-02 1.860734180901533819e+02
7.741136560485463447e-02 1.809921265845565017e+02
7.837299747500965641e-02 1.744044664634141384e+02
7.933462934516467835e-02 1.672992160928507133e+02
8.029626121531971417e-02 1.617970247286896495e+02
8.125789308547473611e-02 1.550267101034738744e+02
8.221952495562975805e-02 1.481956512255580378e+02
8.318115682578479386e-02 1.422228331063647602e+02
8.414278869593981580e-02 1.375403871838844339e+02
8.510442056609483774e-02 1.324432931412961523e+02
8.606605243624985968e-02 1.276868242750193048e+02
8.702768430640489550e-02 1.223720369120302109e+02
8.798931617655991744e-02 1.169302059201891666e+02
8.895094804671493938e-02 1.107052993086391126e+02
8.991257991686996132e-02 1.050761216630154848e+02
9.087421178702498326e-02 1.009656160961641689e+02
9.183584365718000520e-02 9.678374162501974354e+01
9.279747552733502713e-02 9.277122161950302370e+01
9.375910739749006295e-02 8.772550816624307402e+01
9.472073926764508489e-02 8.323859389372367446e+01
9.568237113780010683e-02 7.922060616672823130e+01
9.664400300795514265e-02 7.586618506252669647e+01
9.760563487811016459e-02 7.217064679155184592e+01
9.856726674826518653e-02 6.801617572558308211e+01
9.952889861842022234e-02 6.341039781522252383e+01
1.004905304885752443e-01 6.056677595994817409e+01
1.014521623587302801e-01 5.723375982096944625e+01
1.024137942288853020e-01 5.359134943205503276e+01
1.033754260990403240e-01 5.059410996631457635e+01
1.043370579691953459e-01 4.773268781696996399e+01
1.052986898393503817e-01 4.442328235575138251e+01
1.062603217095053898e-01 4.228544302343156147e+01
1.072219535796604256e-01 3.984659785587611225e+01
1.081835854498154614e-01 3.738709140473962123e+01
1.091452173199704695e-01 3.462979697250404598e+01
1.101068491901255053e-01 3.246783601144814213e+01
1.110684810602805411e-01 3.002912420613960265e+01
1.120301129304355492e-01 2.764850337232388355e+01
1.129917448005905850e-01 2.523906756548429087e+01
1.139533766707456208e-01 2.420188976661722080e+01
1.149150085409006289e-01 2.251745751890633329e+01
1.158766404110556647e-01 2.106888011020224383e+01
1.168382722812106728e-01 1.955659816684010366e+01
1.177999041513657086e-01 1.797925870243103219e+01
1.187615360215207305e-01 1.637014275916695638e+01
1.197231678916757525e-01 1.527085627306184534e+01
1.206847997618307744e-01 1.386450355543069435e+01
1.216464316319858102e-01 1.259991556288136749e+01
1.226080635021408183e-01 1.130081309924231192e+01
1.235696953722958541e-01 1.008734414064662133e+01
1.245313272424508899e-01 9.072478375072734025e+00
1.254929591126059119e-01 8.194384193034824904e+00
1.264545909827609338e-01 7.508730922629709426e+00
1.274162228529159557e-01 6.585507027198691077e+00
1.283778547230709777e-01 5.551170874337060468e+00
1.293394865932259996e-01 5.221173810899919943e+00
1.303011184633810493e-01 4.492470006549346806e+00
1.312627503335360435e-01 4.053549394162580199e+00
1.322243822036910932e-01 3.669845874992908819e+00
1.331860140738460874e-01 3.458488976284399996e+00
1.341476459440011371e-01 2.879694761311476725e+00
1.351092778141561590e-01 2.561792701403916794e+00
1.360709096843111809e-01 2.766369529210987110e+00
1.370325415544662029e-01 2.564941325079654888e+00
1.379941734246212526e-01 1.754967889877494969e+00
1.389558052947762468e-01 1.523779170865303456e+00
1.399174371649312965e-01 1.799868175331539533e+00
1.408790690350863184e-01 1.392515383285896746e+00
1.418407009052413403e-01 1.586334598440789279e+00
1.428023327753963623e-01 1.663013314011958954e+00
1.437639646455513842e-01 1.357283669477055810e+00
1.447255965157064062e-01 1.045360965048150348e+00
1.456872283858614281e-01 1.099163318096433528e+00
1.466488602560164778e-01 1.275670732861314605e+00
1.476104921261714720e-01 1.513347744789857785e+00
1.485721239963265217e-01 1.548207129237642476e+00
1.495337558664815436e-01 1.529198458342104772e+00
1.504953877366365655e-01 1.973943641379914737e+00
1.514570196067915875e-01 1.619546676697233067e+00
1.524186514769466094e-01 1.606082340379050066e+00
1.533802833471016314e-01 1.680231457954608487e+00
1.543419152172566811e-01 1.619843009420595337e+00
1.553035470874116752e-01 1.955822301769899241e+00
1.562651789575667249e-01 2.288285700495720221e+00
1.572268108277217469e-01 2.291490589911056475e+00
1.581884426978767688e-01 2.534758909603265664e+00
1.591500745680317908e-01 2.628740533389876788e+00
1.601117064381868405e-01 2.707707027233933417e+00
1.610733383083418346e-01 3.124315219016196465e+00
1.620349701784968843e-01 3.310335197148994268e+00
1.629966020486519063e-01 3.465798637739194277e+00
1.639582339188069282e-01 3.151462037091146584e+00
1.649198657889619501e-01 3.132650498746425427e+00
1.658814976591169721e-01 3.517826189764704736e+00
1.668431295292719940e-01 3.825767188011994335e+00
1.678047613994270160e-01 3.667511864705161884e+00
1.687663932695820379e-01 3.696953332503529310e+00
1.697280251397370598e-01 4.019544497304256225e+00
1.706896570098921095e-01 3.784676224204407191e+00
1.716512888800471037e-01 4.083726863295410681e+00
1.726129207502021534e-01 4.257121229395814055e+00
1.735745526203571754e-01 4.348515354441989444e+00
1.745361844905121973e-01 4.515324016892193981e+00
1.754978163606672192e-01 4.534931127645275950e+00
1.764594482308222689e-01 4.434872594991663419e+00
1.774210801009772631e-01 4.454730898932616867e+00
1.783827119711323128e-01 4.755567383593710673e+00
1.793443438412873348e-01 4.912662467147484335e+00
1.803059757114423567e-01 4.740242502449774520e+00
1.812676075815973786e-01 4.701109154108689125e+00
1.822292394517524006e-01 4.608164552904764122e+00
1.831908713219074225e-01 4.659787374001400195e+00
1.841525031920624444e-01 4.726405495243199084e+00
1.851141350622174664e-01 4.955996952096946018e+00
1.860757669323724883e-01 4.693039394898029570e+00
1.870373988025275380e-01 4.397832864070196024e+00
1.879990306726825322e-01 4.577045630778094676e+00
1.889606625428375819e-01 4.381344249565991333e+00
1.899222944129926038e-01 4.119557636091929709e+00
1.908839262831476258e-01 4.183289803204939261e+00
1.918455581533026477e-01 4.061605824235712703e+00
1.928071900234576974e-01 4.211860860882396196e+00
1.937688218936126916e-01 4.407285644791006263e+00
1.947304537637677413e-01 4.128186920949904248e+00
1.956920856339227632e-01 4.020885538886656008e+00
1.966537175040777852e-01 3.967520931317800148e+00
1.976153493742328071e-01 3.860564025095161611e+00
1.985769812443878291e-01 3.493901220758218074e+00
1.995386131145428510e-01 3.381959880739628943e+00
2.005002449846978729e-01 3.505503011187986573e+00
2.014618768548528949e-01 3.514246171171180322e+00
2.024235087250079168e-01 3.579256963129637370e+00
2.033851405951629665e-01 3.420100620499592736e+00
2.043467724653179884e-01 3.367525026172646818e+00
2.053084043354730381e-01 3.204506921201264902e+00
2.062700362056280046e-01 2.955623042992016281e+00
2.072316680757830543e-01 2.670217659590882420e+00
2.081932999459380762e-01 2.589672758035280964e+00
2.091549318160931259e-01 2.762204475894993294e+00
2.101165636862481478e-01 2.770287865855937781e+00
2.110781955564031698e-01 2.287541060332788589e+00
2.120398274265581640e-01 2.259540573202080793e+00
2.130014592967132137e-01 2.306260002705315060e+00
2.139630911668682356e-01 2.235017053195281989e+00
2.149247230370232575e-01 2.055175892034920793e+00
2.158863549071783072e-01 1.725278039316769707e+00
2.168479867773333014e-01 1.724726374448962929e+00
2.178096186474883234e-01 1.780445565721521461e+00
2.187712505176433453e-01 1.899668261195753161e+00
2.197328823877983950e-01 1.374857507464078310e+00
2.206945142579534169e-01 1.433391006239244092e+00
2.216561461281084666e-01 1.459772601842445283e+00
2.226177779982634330e-01 1.186948523861147464e+00
2.235794098684184827e-01 1.205247316764239685e+00
2.245410417385735047e-01 1.212021401687092492e+00
2.255026736087285544e-01 1.146464179083530155e+00
2.264643054788835763e-01 1.144604682560864006e+00
2.274259373490385983e-01 1.045292819110748894e+00
2.283875692191935924e-01 8.769497010099733814e-01
2.293492010893486421e-01 8.778882182868734674e-01
2.303108329595036641e-01 9.244205557491191882e-01
2.312724648296586860e-01 8.319113543853760007e-01
2.322340966998137357e-01 5.809260620370189088e-01
2.331957285699687299e-01 5.103548403340845141e-01
2.341573604401237518e-01 6.638943824947212136e-01
2.351189923102787738e-01 7.821187118033172680e-01
2.360806241804338235e-01 8.289028762279890827e-01
2.370422560505888454e-01 6.445764953292609789e-01
2.380038879207438951e-01 3.921592270466049968e-01
2.389655197908988615e-01 4.748437433269039332e-01
2.399271516610539112e-01 4.228240101041507160e-01
2.408887835312089332e-01 3.754599412686161486e-01
2.418504154013639829e-01 1.242118257054123376e-01
2.428120472715190048e-01 2.439857672268175293e-01
2.437736791416740267e-01 2.679578097735024755e-01
2.447353110118290209e-01 4.357734536042592310e-01
2.456969428819840706e-01 4.609984967695233138e-01
2.466585747521390926e-01 6.012798358720097269e-01
2.476202066222941145e-01 6.003666793714259597e-01
2.485818384924491642e-01 5.885811733890378150e-01
2.495434703626041584e-01 7.263787938579362446e-01
2.505051022327591803e-01 5.237603112643967052e-01
2.514667341029142023e-01 3.973034386938927298e-01
2.524283659730692242e-01 5.016696948183572147e-01
2.533899978432243016e-01 5.295825881817712855e-01
2.543516297133793236e-01 4.149815181487213067e-01
2.553132615835342900e-01 4.284194324677663701e-01
2.562748934536893120e-01 4.731520360230518918e-01
2.572365253238443894e-01 3.644058994563863507e-01
2.581981571939994113e-01 5.030875565478218903e-01
2.591597890641544333e-01 6.083944593840726611e-01
2.601214209343094552e-01 6.646008193676102849e-01
2.610830528044644772e-01 3.594006769539319635e-01
2.620446846746194991e-01 5.479875356175973877e-01
2.630063165447745210e-01 6.869241024170094079e-01
2.639679484149295430e-01 5.374781300358222325e-01
2.649295802850845649e-01 3.742314289203036992e-01
2.658912121552395869e-01 4.121355903074004345e-01
2.668528440253946088e-01 4.764431721431066080e-01
2.678144758955496307e-01 6.630234041646225762e-01
2.687761077657046527e-01 7.521700480045119264e-01
2.697377396358597301e-01 6.848701062950475205e-01
2.706993715060147521e-01 7.987097128253139999e-01
2.716610033761697185e-01 5.792967604412488924e-01
2.726226352463247404e-01 3.944686358855236108e-01
2.735842671164798179e-01 5.911959176738221799e-01
2.745458989866348398e-01 6.971211980030389554e-01
2.755075308567898618e-01 7.966954947743616344e-01
2.764691627269448837e-01 6.652742981683310575e-01
2.774307945970999056e-01 5.880406670360649457e-01
2.783924264672549276e-01 7.189397275158917466e-01
2.793540583374099495e-01 7.521708256381387514e-01
2.803156902075649715e-01 6.511181883909635815e-01
2.812773220777199934e-01 5.351976189097022996e-01
2.822389539478750153e-01 6.452163026883681596e-01
2.832005858180300373e-01 7.279066943482774832e-01
2.841622176881850592e-01 9.128483147382304708e-01
2.851238495583400812e-01 8.015196913123823208e-01
2.860854814284951586e-01 8.573219204224464818e-01
2.870471132986501805e-01 1.035129015981862466e+00
2.880087451688051470e-01 1.095639288150668023e+00
2.889703770389601689e-01 9.757870256442018331e-01
2.899320089091152464e-01 7.911849015191663170e-01
2.908936407792702683e-01 6.700292289824822944e-01
2.918552726494252902e-01 6.294200383577361890e-01
2.928169045195803122e-01 5.996518367745835576e-01
2.937785363897353341e-01 7.157182910188737424e-01
2.947401682598903561e-01 7.362003743425198365e-01
2.957018001300453780e-01 8.951055461459489493e-01
2.966634320002003999e-01 7.842803713698209833e-01
2.976250638703554219e-01 6.620821094801563333e-01
2.985866957405104993e-01 8.884503540221295737e-01
2.995483276106654658e-01 6.560334982933397896e-01
3.005099594808204877e-01 6.750164313517750259e-01
3.014715913509755651e-01 7.070661955947450394e-01
3.024332232211305871e-01 6.630511342301588229e-01
3.033948550912856090e-01 5.495687302702698673e-01
3.043564869614405755e-01 5.595182496846682341e-01
3.053181188315956529e-01 6.717224075721190957e-01
3.062797507017506748e-01 6.757569022406286763e-01
3.072413825719056968e-01 5.389886219263004818e-01
3.082030144420607187e-01 7.517774524821483340e-01
3.091646463122157407e-01 7.836333534854134086e-01
3.101262781823707626e-01 6.497208550945963168e-01
3.110879100525257845e-01 5.222962153229815385e-01
3.120495419226808065e-01 4.293190802059072553e-01
3.130111737928358284e-01 3.500671676878965854e-01
3.139728056629909059e-01 5.823081745151448274e-01
3.149344375331459278e-01 4.458056430840713347e-01
3.158960694033008942e-01 7.090014657835723710e-01
3.168577012734559162e-01 6.515357972348354565e-01
3.178193331436109936e-01 5.811570612484509013e-01
3.187809650137660156e-01 4.876087007578959742e-01
3.197425968839210375e-01 5.044814616419230902e-01
3.207042287540760039e-01 4.748284878732569325e-01
3.216658606242310814e-01 5.541571669332903127e-01
3.226274924943861033e-01 4.079201920909660828e-01
3.235891243645411253e-01 3.457571180198257821e-01
3.245507562346961472e-01 3.008319621977015856e-01
3.255123881048511691e-01 2.660958457567907942e-01
3.264740199750061911e-01 3.546870622409841189e-01
3.274356518451612130e-01 4.169307515947124898e-01
3.283972837153162350e-01 3.980764691108440445e-01
3.293589155854712569e-01 2.076367439385187197e-01
3.303205474556263344e-01 2.052014003813411591e-01
3.312821793257813563e-01 3.034539175157320301e-01
3.322438111959363227e-01 4.474807755455323388e-01
3.332054430660913447e-01 4.865087944326802472e-01
3.341670749362464221e-01 4.008642900186778490e-01
3.351287068064014441e-01 5.176779623715432876e-01
3.360903386765564660e-01 4.320495968008835064e-01
3.370519705467114324e-01 4.804825138253505656e-01
3.380136024168665099e-01 4.351967010821624626e-01
3.389752342870215318e-01 3.472740576177280047e-01
3.399368661571765537e-01 4.433707702123861338e-01
3.408984980273315757e-01 5.037774721095260588e-01
3.418601298974865976e-01 3.594939687525737781e-01
3.428217617676416196e-01 3.832677611058699085e-01
3.437833936377966415e-01 1.260525613168610448e-01
3.447450255079516634e-01 1.358593407857462410e-01
3.457066573781066854e-01 4.616016606580011228e-01
3.466682892482617628e-01 5.511014156410247722e-01
3.476299211184167848e-01 4.171414542988038932e-01
3.485915529885717512e-01 4.357275776210904894e-01
3.495531848587267731e-01 3.721457486781645230e-01
3.505148167288818506e-01 1.916711776524024913e-01
3.514764485990368725e-01 1.542775691717217512e-01
3.524380804691918945e-01 2.108742559081626666e-01
3.533997123393468609e-01 2.063503870533764939e-01
3.543613442095019384e-01 1.172183068550829432e-01
3.553229760796569603e-01 2.189585708959214116e-01
3.562846079498119822e-01 1.386540089123577957e-01
3.572462398199670042e-01 1.251490898458023082e-01
3.582078716901220261e-01 2.480464364055876558e-01
3.591695035602770480e-01 1.144541720307117316e-01
3.601311354304320700e-01 1.606947002458767315e-01
3.610927673005870919e-01 3.160819087637349867e-01
3.620543991707421139e-01 5.151357287395974538e-01
3.630160310408971913e-01 3.299843156807114042e-01
3.639776629110522133e-01 2.416537125291320365e-01
3.649392947812071797e-01 1.815951590512625557e-01
3.659009266513622016e-01 1.396445048952337231e-01
3.668625585215172791e-01 4.281953742662700790e-01
3.678241903916723010e-01 2.956355055105106544e-01
3.687858222618273230e-01 3.334389726214084249e-01
3.697474541319822894e-01 3.717993753642687693e-01
3.707090860021373668e-01 3.692935043315515031e-01
3.716707178722923888e-01 4.306526213605401665e-01
3.726323497424474107e-01 3.900678109535533622e-01
3.735939816126024327e-01 3.749474025518360065e-01
3.745556134827574546e-01 3.144833191582208087e-01
3.755172453529124765e-01 2.932328348030779352e-01
3.764788772230674985e-01 3.572697801585569266e-01
3.774405090932225204e-01 2.425401686521730937e-01
3.784021409633775423e-01 2.209439834758768484e-01
3.793637728335326198e-01 2.017034657429093158e-01
3.803254047036876417e-01 1.468563233144024593e-01
3.812870365738426082e-01 2.638307970133233482e-01
3.822486684439976301e-01 3.441032319543673168e-01
3.832103003141527076e-01 3.240737145830756560e-01
3.841719321843077295e-01 3.179869803439636655e-01
3.851335640544627514e-01 4.039711661466078851e-01
3.860951959246177734e-01 3.229039727629725576e-01
3.870568277947727953e-01 4.417740063318404964e-01
3.880184596649278173e-01 4.828276154858208713e-01
3.889800915350828392e-01 4.345283726502664479e-01
3.899417234052378611e-01 3.807074855740459896e-01
3.909033552753928831e-01 4.983692349701804858e-01
3.918649871455479050e-01 5.823673270572982119e-01
3.928266190157029270e-01 5.472509310283690809e-01
3.937882508858579489e-01 4.117904374525664934e-01
3.947498827560129708e-01 3.821372200402493036e-01
3.957115146261680483e-01 3.508531605217335425e-01
3.966731464963230702e-01 2.469523873321897156e-01
3.976347783664780366e-01 2.690927491281982498e-01
3.985964102366330586e-01 4.375764317642207857e-01
3.995580421067881360e-01 3.716032671427065281e-01
4.005196739769430470e-01 4.212960707761972401e-01
4.014813058470981244e-01 4.973398151338344064e-01
4.024429377172531463e-01 4.667842518902851623e-01
4.034045695874082238e-01 3.100164281981783176e-01
