# q (1/Angstrom), Intensity (arb)
2.067508526570814575e-02 4.589065926875351238e+02
2.163671713586316769e-02 4.800097942525007397e+02
2.259834900601819310e-02 4.988150901933402679e+02
2.355998087617321851e-02 5.036095629118894408e+02
2.452161274632824739e-02 5.039948532423321694e+02
2.548324461648326933e-02 5.057921663482843542e+02
2.644487648663829821e-02 5.064975504422258155e+02
2.740650835679332709e-02 5.053823900955590602e+02
2.836814022694834903e-02 5.008684841712741331e+02
2.932977209710337443e-02 4.979017978275286396e+02
3.029140396725839637e-02 4.953578529617116146e+02
3.125303583741342178e-02 4.940637885433453107e+02
3.221466770756845066e-02 4.924851759186647655e+02
3.317629957772347260e-02 4.867646528117263074e+02
3.413793144787850148e-02 4.841955037072029882e+02
3.509956331803352342e-02 4.802025447121604884e+02
3.606119518818855230e-02 4.799060601984868413e+02
3.702282705834358117e-02 4.745605182795760015e+02
3.798445892849860311e-02 4.671222369655210969e+02
3.894609079865363199e-02 4.628202090932326769e+02
3.990772266880865393e-02 4.608842581423675142e+02
4.086935453896367587e-02 4.547487024846388408e+02
4.183098640911870475e-02 4.492087043606039174e+02
4.279261827927372669e-02 4.440976377908264112e+02
4.375425014942875557e-02 4.385038499721004541e+02
4.471588201958377751e-02 4.311565660899693739e+02
4.567751388973880639e-02 4.245488256916036107e+02
4.663914575989382832e-02 4.179035280107372046e+02
4.760077763004885720e-02 4.120141589505880120e+02
4.856240950020387914e-02 4.056645681054773718e+02
4.952404137035890108e-02 3.986546074153237669e+02
5.048567324051392302e-02 3.936498331830453594e+02
5.144730511066895190e-02 3.862456825895098405e+02
5.240893698082397384e-02 3.790392780185445645e+02
5.337056885097899578e-02 3.713456384536242467e+02
5.433220072113403160e-02 3.613580207821657382e+02
5.529383259128905354e-02 3.532644994491053581e+02
5.625546446144407547e-02 3.449660470737067044e+02
5.721709633159910435e-02 3.373251628975301060e+02
5.817872820175412629e-02 3.290994265400526615e+02
5.914036007190914823e-02 3.213391046047170789e+02
6.010199194206417017e-02 3.140027892228964674e+02
6.106362381221920599e-02 3.065765491005954573e+02
6.202525568237422793e-02 2.977404020620576262e+02
6.298688755252924987e-02 2.900084268995372554e+02
6.394851942268428568e-02 2.810785207267791748e+02
6.491015129283930762e-02 2.736062568977924911e+02
6.587178316299432956e-02 2.656015142776940365e+02
6.683341503314935150e-02 2.592794637944998044e+02
6.779504690330438732e-02 2.508374474874812847e+02
6.875667877345940926e-02 2.432523512388406175e+02
6.971831064361443120e-02 2.365550801443843625e+02
7.067994251376945314e-02 2.298167826047727544e+02
7.164157438392447508e-02 2.230258145307430198e+02
7.260320625407949702e-02 2.169712662201070543e+02
7.356483812423453283e-02 2.103343032130290453e+02
7.452646999438955477e-02 2.029395033730107230e+02
7.548810186454457671e-02 1.954151674561892662e+02
7.644973373469959865e-02 1.891267302501420602e+02
7.741136560485463447e-02 1.816047011120600985e+02
7.837299747500965641e-02 1.746376709075729252e+02
7.933462934516467835e-02 1.687862784706716752e+02
8.029626121531971417e-02 1.631964368891545689e+02
8.125789308547473611e-02 1.570043746515365797e+02
8.221952495562975805e-02 1.504153168979084967e+02
8.318115682578479386e-02 1.438476883669855511e+02
8.414278869593981580e-02 1.381269169040031386e+02
8.510442056609483774e-02 1.323036428335311712e+02
8.606605243624985968e-02 1.273118321578807866e+02
8.702768430640489550e-02 1.220954846486110199e+02
8.798931617655991744e-02 1.167369304683009545e+02
8.895094804671493938e-02 1.106213168119641921e+02
8.991257991686996132e-02 1.064436416798331351e+02
9.087421178702498326e-02 1.025221285999506051e+02
9.183584365718000520e-02 9.776281155402993761e+01
9.279747552733502713e-02 9.349874504414310650e+01
9.375910739749006295e-02 8.908502028047411159e+01
9.472073926764508489e-02 8.399888861981796140e+01
9.568237113780010683e-02 7.986248389854493723e+01
9.664400300795514265e-02 7.608993073469990520e+01
9.760563487811016459e-02 7.230278179876150091e+01
9.856726674826518653e-02 6.783134568626564942e+01
9.952889861842022234e-02 6.427358004746277231e+01
1.004905304885752443e-01 6.123797659175220076e+01
1.014521623587302801e-01 5.749247769985984746e+01
1.024137942288853020e-01 5.370772429696064876e+01
1.033754260990403240e-01 5.112139511574538631e+01
1.043370579691953459e-01 4.817508252082053843e+01
1.052986898393503817e-01 4.518136690647085629e+01
1.062603217095053898e-01 4.272381724500985456e+01
1.072219535796604256e-01 4.039696629923159321e+01
1.081835854498154614e-01 3.761757234686233886e+01
1.091452173199704695e-01 3.448001016794654561e+01
1.101068491901255053e-01 3.280637428720397963e+01
1.110684810602805411e-01 3.047664771523497862e+01
1.120301129304355492e-01 2.829445774604996444e+01
1.129917448005905850e-01 2.614386112326774381e+01
1.139533766707456208e-01 2.442133361605770858e+01
1.149150085409006289e-01 2.271743007557951088e+01
1.158766404110556647e-01 2.107839735157506311e+01
1.168382722812106728e-01 1.952576180925085225e+01
1.177999041513657086e-01 1.836468444743472617e+01
1.187615360215207305e-01 1.627178244549888220e+01
1.197231678916757525e-01 1.469659098105434936e+01
1.206847997618307744e-01 1.341770653484314124e+01
1.216464316319858102e-01 1.268051939707918052e+01
1.226080635021408183e-01 1.143087318012427289e+01
1.235696953722958541e-01 1.008374197526886462e+01
1.245313272424508899e-01 9.003731863348608755e+00
1.254929591126059119e-01 7.903301384052820566e+00
1.264545909827609338e-01 7.347088295823837711e+00
1.274162228529159557e-01 6.934899038599969145e+00
1.283778547230709777e-01 5.795767796104808411e+00
1.293394865932259996e-01 4.933823140233425164e+00
1.303011184633810493e-01 4.528066302108527452e+00
1.312627503335360435e-01 4.110200033733214298e+00
1.322243822036910932e-01 3.531147496642461192e+00
1.331860140738460874e-01 3.307710847935535270e+00
1.341476459440011371e-01 2.504490482275919305e+00
1.351092778141561590e-01 2.208103035646349355e+00
1.360709096843111809e-01 2.440973709353201571e+00
1.370325415544662029e-01 2.332928872743494253e+00
1.379941734246212526e-01 1.793931915253732967e+00
1.389558052947762468e-01 1.590779395724990053e+00
1.399174371649312965e-01 1.661916484830971541e+00
1.408790690350863184e-01 1.104173556581013571e+00
1.418407009052413403e-01 1.385235287039673580e+00
1.428023327753963623e-01 1.491286258702196221e+00
1.437639646455513842e-01 1.150005514817454610e+00
1.447255965157064062e-01 1.193225871197419963e+00
1.456872283858614281e-01 1.080821657048268492e+00
1.466488602560164778e-01 1.162246578148884879e+00
1.476104921261714720e-01 1.205953746769218071e+00
1.485721239963265217e-01 1.366055456714747152e+00
1.495337558664815436e-01 1.361594234204023479e+00
1.504953877366365655e-01 1.521502634467086779e+00
1.514570196067915875e-01 1.791682174890798507e+00
1.524186514769466094e-01 1.635312153589637774e+00
1.533802833471016314e-01 1.543300415968534622e+00
1.543419152172566811e-01 1.717534190788470028e+00
1.553035470874116752e-01 1.973587848780919529e+00
1.562651789575667249e-01 2.455564459545829692e+00
1.572268108277217469e-01 2.508104733348286430e+00
1.581884426978767688e-01 2.536826829853488618e+00
1.591500745680317908e-01 2.568446393367445069e+00
1.601117064381868405e-01 2.611417981626800611e+00
1.610733383083418346e-01 3.162609547886319206e+00
1.620349701784968843e-01 2.931628600274294172e+00
1.629966020486519063e-01 3.023496939583562693e+00
1.639582339188069282e-01 3.255489966565527027e+00
1.649198657889619501e-01 3.331562486582381410e+00
1.658814976591169721e-01 3.401503230461020877e+00
1.668431295292719940e-01 3.498055906271691384e+00
1.678047613994270160e-01 3.745632401307599224e+00
1.687663932695820379e-01 3.618569934004586486e+00
1.697280251397370598e-01 3.724873445323417798e+00
1.706896570098921095e-01 3.705046285983438992e+00
1.716512888800471037e-01 4.284136550400354793e+00
1.726129207502021534e-01 4.475824887103676986e+00
1.735745526203571754e-01 4.391248738280832953e+00
1.745361844905121973e-01 4.141797703514907170e+00
1.754978163606672192e-01 4.067064310228364121e+00
1.764594482308222689e-01 4.193888137269311756e+00
1.774210801009772631e-01 4.431904247240751715e+00
1.783827119711323128e-01 4.691955087548823400e+00
1.793443438412873348e-01 4.899839589579737975e+00
1.803059757114423567e-01 5.007908485100383444e+00
1.812676075815973786e-01 4.750709136252265097e+00
1.822292394517524006e-01 4.632801404125075351e+00
1.831908713219074225e-01 4.737784366714574702e+00
1.841525031920624444e-01 4.553771525579051627e+00
1.851141350622174664e-01 4.578164282865909485e+00
1.860757669323724883e-01 4.610703874641810529e+00
1.870373988025275380e-01 4.454049919894835341e+00
1.879990306726825322e-01 4.407277172794891840e+00
1.889606625428375819e-01 4.305514877801339679e+00
1.899222944129926038e-01 4.223340523187967932e+00
1.908839262831476258e-01 4.254244458654767413e+00
1.918455581533026477e-01 4.268055193042183504e+00
1.928071900234576974e-01 4.125077549507231822e+00
1.937688218936126916e-01 3.998198531407400225e+00
1.947304537637677413e-01 4.008260211719907318e+00
1.956920856339227632e-01 4.251539316371317767e+00
1.966537175040777852e-01 3.873134877938525733e+00
1.976153493742328071e-01 3.946231276076463956e+00
1.985769812443878291e-01 3.545530386552336211e+00
1.995386131145428510e-01 3.324580965230158114e+00
2.005002449846978729e-01 3.663000627756055394e+00
2.014618768548528949e-01 3.738383597434928873e+00
2.024235087250079168e-01 3.459604059650477126e+00
2.033851405951629665e-01 3.136200995757587151e+00
2.043467724653179884e-01 3.239304912451309804e+00
2.053084043354730381e-01 3.056139355352232911e+00
2.062700362056280046e-01 2.655336111147061473e+00
2.072316680757830543e-01 2.521782969513608919e+00
2.081932999459380762e-01 2.818005775979706584e+00
2.091549318160931259e-01 2.803406373191343448e+00
2.101165636862481478e-01 2.690439699865795120e+00
2.110781955564031698e-01 2.440911436940471191e+00
2.120398274265581640e-01 2.318674099913053510e+00
2.130014592967132137e-01 2.284428986467069933e+00
2.139630911668682356e-01 1.918749659226872240e+00
2.149247230370232575e-01 1.672374141333136777e+00
2.158863549071783072e-01 1.789638109297406743e+00
2.168479867773333014e-01 1.776486469551937120e+00
2.178096186474883234e-01 1.702038761831953906e+00
2.187712505176433453e-01 1.601131922410445441e+00
2.197328823877983950e-01 1.347107606441124261e+00
2.206945142579534169e-01 1.503641943598122310e+00
2.216561461281084666e-01 1.314533574883817835e+00
2.226177779982634330e-01 1.039495492463966997e+00
2.235794098684184827e-01 1.259171438604859361e+00
2.245410417385735047e-01 1.094399999593527184e+00
2.255026736087285544e-01 1.012012651707792088e+00
2.264643054788835763e-01 1.045902368721673525e+00
2.274259373490385983e-01 1.052499792140949353e+00
2.283875692191935924e-01 8.363987804068990783e-01
2.293492010893486421e-01 7.458707363587713246e-01
2.303108329595036641e-01 6.827892014886920435e-01
2.312724648296586860e-01 7.045099939004089151e-01
2.322340966998137357e-01 5.450712967407724818e-01
2.331957285699687299e-01 5.323379245398385251e-01
2.341573604401237518e-01 7.779031510290224105e-01
2.351189923102787738e-01 8.012866748013003360e-01
2.360806241804338235e-01 7.705255562122488300e-01
2.370422560505888454e-01 7.466294337735668307e-01
2.380038879207438951e-01 4.420322932277116479e-01
2.389655197908988615e-01 4.118499908538453269e-01
2.399271516610539112e-01 5.550071320256222407e-01
2.408887835312089332e-01 5.924271426650378203e-01
2.418504154013639829e-01 4.185934080878759289e-01
2.428120472715190048e-01 4.594197450132142535e-01
2.437736791416740267e-01 4.336516464297766049e-01
2.447353110118290209e-01 6.545010919304665720e-01
2.456969428819840706e-01 5.372011642548137900e-01
2.466585747521390926e-01 6.475267898004481992e-01
2.476202066222941145e-01 4.895259677575261037e-01
2.485818384924491642e-01 4.821167110567117220e-01
2.495434703626041584e-01 4.759120152868590026e-01
2.505051022327591803e-01 3.636594884057551269e-01
2.514667341029142023e-01 4.412186644491455922e-02
2.524283659730692242e-01 1.863354699945993787e-01
2.533899978432243016e-01 4.536252457121356940e-01
2.543516297133793236e-01 4.239676724394776386e-01
2.553132615835342900e-01 3.763073517273127777e-01
2.562748934536893120e-01 3.953446813055983000e-01
2.572365253238443894e-01 1.681908286321700530e-01
2.581981571939994113e-01 4.561363082052203310e-01
2.591597890641544333e-01 6.084398448987293762e-01
2.601214209343094552e-01 6.076494260725802121e-01
2.610830528044644772e-01 4.776709537808017103e-01
2.620446846746194991e-01 5.979560913257877530e-01
2.630063165447745210e-01 5.906803283455381859e-01
2.639679484149295430e-01 5.323297493193024366e-01
2.649295802850845649e-01 3.561924060580814455e-01
2.658912121552395869e-01 3.526928454549604908e-01
2.668528440253946088e-01 5.200989591787141819e-01
2.678144758955496307e-01 7.571130850835530168e-01
2.687761077657046527e-01 7.238562478485093266e-01
2.697377396358597301e-01 7.247637379394902268e-01
2.706993715060147521e-01 8.298410955305186576e-01
2.716610033761697185e-01 9.832236869722557060e-01
2.726226352463247404e-01 7.680252907094491377e-01
2.735842671164798179e-01 7.519154630247406601e-01
2.745458989866348398e-01 7.445766998579337326e-01
2.755075308567898618e-01 7.100802420035847717e-01
2.764691627269448837e-01 5.135990267418044652e-01
2.774307945970999056e-01 5.828925511216418442e-01
2.783924264672549276e-01 8.618264450924222331e-01
2.793540583374099495e-01 9.510038215987322019e-01
2.803156902075649715e-01 8.446192458723018603e-01
2.812773220777199934e-01 6.554492304938150937e-01
2.822389539478750153e-01 7.971114136055454935e-01
2.832005858180300373e-01 8.684547645442926012e-01
2.841622176881850592e-01 1.043984190221497244e+00
2.851238495583400812e-01 8.445668592841357736e-01
2.860854814284951586e-01 6.731692341623514153e-01
2.870471132986501805e-01 8.585983004777375527e-01
2.880087451688051470e-01 9.723432511623428809e-01
2.889703770389601689e-01 8.204458175909792317e-01
2.899320089091152464e-01 7.101909664876089323e-01
2.908936407792702683e-01 6.912913959038569089e-01
2.918552726494252902e-01 7.758588597665507791e-01
2.928169045195803122e-01 8.216571622265469443e-01
2.937785363897353341e-01 9.688796134526072024e-01
2.947401682598903561e-01 8.779110701101089376e-01
2.957018001300453780e-01 7.597636624257084748e-01
2.966634320002003999e-01 6.563718441894721423e-01
2.976250638703554219e-01 4.635729725203781015e-01
2.985866957405104993e-01 6.703919284110746446e-01
2.995483276106654658e-01 5.676405119814482703e-01
3.005099594808204877e-01 6.411449667684294695e-01
3.014715913509755651e-01 5.797353303300099014e-01
3.024332232211305871e-01 5.114112171072555668e-01
3.033948550912856090e-01 4.995331756715373217e-01
3.043564869614405755e-01 6.178383361068000568e-01
3.053181188315956529e-01 8.353522218594626736e-01
3.062797507017506748e-01 8.215007833282363947e-01
3.072413825719056968e-01 4.491807879483502575e-01
3.082030144420607187e-01 7.910838214056035156e-01
3.091646463122157407e-01 9.889843038783752149e-01
3.101262781823707626e-01 7.773698570640874550e-01
3.110879100525257845e-01 6.072652248023544530e-01
3.120495419226808065e-01 4.731581325165556962e-01
3.130111737928358284e-01 2.645163912706607334e-01
3.139728056629909059e-01 4.786229721219790179e-01
3.149344375331459278e-01 5.068222046679622395e-01
3.158960694033008942e-01 5.697232101535867344e-01
3.168577012734559162e-01 6.623090514597507195e-01
3.178193331436109936e-01 7.240438198427732175e-01
3.187809650137660156e-01 6.287967945925316826e-01
3.197425968839210375e-01 6.866897754854619507e-01
3.207042287540760039e-01 4.605791751919099397e-01
3.216658606242310814e-01 3.513492504792310456e-01
3.226274924943861033e-01 3.478494817474917511e-01
3.235891243645411253e-01 3.899299463149183964e-01
3.245507562346961472e-01 4.103985884873004863e-01
3.255123881048511691e-01 3.477872393732646117e-01
3.264740199750061911e-01 3.839958559660310300e-01
3.274356518451612130e-01 4.243868327058812895e-01
3.283972837153162350e-01 4.054580949511255028e-01
3.293589155854712569e-01 2.476308029981737491e-01
3.303205474556263344e-01 1.716505022376608736e-01
3.312821793257813563e-01 3.213682837298037498e-01
3.322438111959363227e-01 3.234921770910297312e-01
3.332054430660913447e-01 4.621066759845646743e-01
3.341670749362464221e-01 4.205266565822114444e-01
3.351287068064014441e-01 4.430170995818158985e-01
3.360903386765564660e-01 4.519762994866383110e-01
3.370519705467114324e-01 5.498135167561457592e-01
3.380136024168665099e-01 3.076145113239228124e-01
3.389752342870215318e-01 1.653664416527860226e-01
3.399368661571765537e-01 2.773757516386901045e-01
3.408984980273315757e-01 4.703432494854844492e-01
3.418601298974865976e-01 4.082140493001560344e-01
3.428217617676416196e-01 3.824822703139751923e-01
3.437833936377966415e-01 8.734332053026605536e-02
3.447450255079516634e-01 7.250214754844108711e-03
3.457066573781066854e-01 2.399303482133845478e-01
3.466682892482617628e-01 4.037878584503538093e-01
3.476299211184167848e-01 4.416453922474126159e-01
3.485915529885717512e-01 3.742945340431234058e-01
3.495531848587267731e-01 3.457008652737840748e-01
3.505148167288818506e-01 2.388797778216655843e-01
3.514764485990368725e-01 3.300405459948088094e-01
3.524380804691918945e-01 3.628991782370007968e-01
3.533997123393468609e-01 2.184596533653326844e-01
3.543613442095019384e-01 1.269183704149767777e-01
3.553229760796569603e-01 3.613528686632960785e-01
3.562846079498119822e-01 4.594072246883946775e-01
3.572462398199670042e-01 2.643544729325242315e-01
3.582078716901220261e-01 3.440020233886684764e-01
3.591695035602770480e-01 2.937383318033823798e-01
3.601311354304320700e-01 2.656343522100712562e-01
3.610927673005870919e-01 4.626557318687751774e-01
3.620543991707421139e-01 5.306078100423015087e-01
3.630160310408971913e-01 3.305342562089563785e-01
3.639776629110522133e-01 2.118212524664855323e-01
3.649392947812071797e-01 6.012642075937080222e-02
3.659009266513622016e-01 0.000000000000000000e+00
3.668625585215172791e-01 2.570063464419725108e-01
3.678241903916723010e-01 2.341622881540459389e-01
3.687858222618273230e-01 3.565294717002025493e-01
3.697474541319822894e-01 4.143305662659031441e-01
3.707090860021373668e-01 3.536051713194261481e-01
3.716707178722923888e-01 2.602673538684676657e-01
3.726323497424474107e-01 2.695349416737009562e-01
3.735939816126024327e-01 3.745192930898078032e-01
3.745556134827574546e-01 4.455607521911773006e-01
3.755172453529124765e-01 3.703963232997935506e-01
3.764788772230674985e-01 3.978135526626616070e-01
3.774405090932225204e-01 3.782465313746037339e-01
3.784021409633775423e-01 3.187136633229634697e-01
3.793637728335326198e-01 2.820050314047257700e-01
3.803254047036876417e-01 3.754460714476657301e-01
3.812870365738426082e-01 4.791854990122175195e-01
3.822486684439976301e-01 3.678174307507973140e-01
3.832103003141527076e-01 1.124090890899225315e-01
3.841719321843077295e-01 3.448131262640785621e-01
3.851335640544627514e-01 5.262961395827225886e-01
3.860951959246177734e-01 4.591760229867176690e-01
3.870568277947727953e-01 4.467080163360037659e-01
3.880184596649278173e-01 4.457669704211006945e-01
3.889800915350828392e-01 2.759403772467123872e-01
3.899417234052378611e-01 2.754758521789639758e-01
3.909033552753928831e-01 3.560267389144051720e-01
3.918649871455479050e-01 4.512276943838351428e-01
3.928266190157029270e-01 4.730662602528106220e-01
3.937882508858579489e-01 4.132049134991895301e-01
3.947498827560129708e-01 2.494538084303457026e-01
3.957115146261680483e-01 1.742765798503462804e-01
3.966731464963230702e-01 2.560679019196143713e-01
3.976347783664780366e-01 2.666241394293216160e-01
3.985964102366330586e-01 3.933109330837432083e-01
3.995580421067881360e-01 4.432605977596679736e-01
4.005196739769430470e-01 4.322418951616349148e-01
4.014813058470981244e-01 4.259132717647844402e-01
4.024429377172531463e-01 5.141148042026806309e-01
4.034045695874082238e-01 4.613276935854919714e-01
