# q (1/Angstrom), Intensity (arb)
2.029070354705860696e-02 0.000000000000000000e+00
2.133125244372399004e-02 1.555180235237800801e+00
2.237180134038937659e-02 2.671260769133259494e+00
2.341235023705475968e-02 3.739282656856988574e+00
2.445289913372014276e-02 4.552880325016547935e+00
2.549344803038552584e-02 5.171370057784785423e+00
2.653399692705091240e-02 5.851560563328134457e+00
2.757454582371629548e-02 6.134523858845618349e+00
2.861509472038167856e-02 6.532483641467946356e+00
2.965564361704706164e-02 6.991009784648287706e+00
3.069619251371244473e-02 7.327914400415909135e+00
3.173674141037782781e-02 7.664456283987321150e+00
3.277729030704321089e-02 7.700558057474456319e+00
3.381783920370859398e-02 7.736138578561410739e+00
3.485838810037397706e-02 7.800093000453376391e+00
3.589893699703936014e-02 7.953065341350107786e+00
3.693948589370474322e-02 8.082450368215235770e+00
3.798003479037012631e-02 8.172972239326675492e+00
3.902058368703550939e-02 8.324582838175629718e+00
4.006113258370089247e-02 8.405307988135074737e+00
4.110168148036627556e-02 8.231576037386997058e+00
4.214223037703165864e-02 8.468422979190124877e+00
4.318277927369704866e-02 8.507274043218391313e+00
4.422332817036243174e-02 8.350283856390229076e+00
4.526387706702781483e-02 8.527880199197710454e+00
4.630442596369319791e-02 8.451733096368458931e+00
4.734497486035858099e-02 8.540062212708342315e+00
4.838552375702396408e-02 8.611142600638686417e+00
4.942607265368934716e-02 8.659658890570007372e+00
5.046662155035473024e-02 8.574544313945203555e+00
5.150717044702011332e-02 8.600055032331036742e+00
5.254771934368549641e-02 8.477737687374494513e+00
5.358826824035087949e-02 8.506819667035815158e+00
5.462881713701626257e-02 8.486408429432723111e+00
5.566936603368164566e-02 8.588456716290188808e+00
5.670991493034702874e-02 8.508776389784859617e+00
5.775046382701241182e-02 8.598780958877295433e+00
5.879101272367779490e-02 8.510565255200463142e+00
5.983156162034317799e-02 8.600167891199221870e+00
6.087211051700856107e-02 8.688238095550490314e+00
6.191265941367394415e-02 8.685991152338393917e+00
6.295320831033933417e-02 8.639653122712999789e+00
6.399375720700471726e-02 8.531677361911466306e+00
6.503430610367010034e-02 8.595744721349817041e+00
6.607485500033548342e-02 8.667845630018446101e+00
6.711540389700086651e-02 8.655778181694584461e+00
6.815595279366624959e-02 8.603778934647603904e+00
6.919650169033163267e-02 8.683044785103012586e+00
7.023705058699701576e-02 8.620105006581786355e+00
7.127759948366239884e-02 8.645260371462875071e+00
7.231814838032778192e-02 8.629878374714078149e+00
7.335869727699316500e-02 8.557628443683469754e+00
7.439924617365854809e-02 8.625547188158000367e+00
7.543979507032393117e-02 8.659799694065654307e+00
7.648034396698931425e-02 8.452917902892728819e+00
7.752089286365469734e-02 8.510566448805779061e+00
7.856144176032008042e-02 8.645410100641459650e+00
7.960199065698546350e-02 8.670044432511762267e+00
8.064253955365084658e-02 8.558349679367029950e+00
8.168308845031622967e-02 8.543571541390281965e+00
8.272363734698161275e-02 8.634298444515163595e+00
8.376418624364699583e-02 8.723790874196437173e+00
8.480473514031239279e-02 8.727707474174694724e+00
8.584528403697777588e-02 8.610212093213281292e+00
8.688583293364315896e-02 8.663484858508358144e+00
8.792638183030854204e-02 8.631850949588701027e+00
8.896693072697392513e-02 8.535857494368716658e+00
9.000747962363930821e-02 8.599078827228453292e+00
9.104802852030469129e-02 8.662747540403898938e+00
9.208857741697007437e-02 8.601755332875017146e+00
9.312912631363545746e-02 8.670982359843719678e+00
9.416967521030084054e-02 8.741708777091147908e+00
9.521022410696622362e-02 8.759396818672513518e+00
9.625077300363160671e-02 8.667212756649789185e+00
9.729132190029698979e-02 8.617355684457946197e+00
9.833187079696237287e-02 8.498532686793675239e+00
9.937241969362775595e-02 8.532334959575688771e+00
1.004129685902931390e-01 8.638175280550708379e+00
1.014535174869585221e-01 8.585687448654651277e+00
1.024940663836239052e-01 8.588979364613066991e+00
1.035346152802892883e-01 8.610597423725746324e+00
1.045751641769546714e-01 8.648220223523788164e+00
1.056157130736200545e-01 8.600732846124644837e+00
1.066562619702854375e-01 8.582239210983102495e+00
1.076968108669508206e-01 8.662483303299211457e+00
1.087373597636162037e-01 8.723768374724443220e+00
1.097779086602815868e-01 8.609603078518931696e+00
1.108184575569469699e-01 8.599210335054703336e+00
1.118590064536123529e-01 8.617910944481526059e+00
1.128995553502777360e-01 8.669164445300200583e+00
1.139401042469431191e-01 8.656749921528898994e+00
1.149806531436085022e-01 8.647434953921901979e+00
1.160212020402738853e-01 8.563709141351452558e+00
1.170617509369392684e-01 8.695153170441660251e+00
1.181022998336046514e-01 8.684050608172237062e+00
1.191428487302700345e-01 8.701236875854382546e+00
1.201833976269354176e-01 8.616849682122277088e+00
1.212239465236008007e-01 8.624376719889758292e+00
1.222644954202661838e-01 8.634427580418304160e+00
1.233050443169315669e-01 8.799229547852553068e+00
1.243455932135969499e-01 8.673459386970328922e+00
1.253861421102623330e-01 8.696275978364946369e+00
1.264266910069277161e-01 8.640666847197962852e+00
1.274672399035930992e-01 8.711693642328812714e+00
1.285077888002584823e-01 8.695433307169947668e+00
1.295483376969238654e-01 8.608702514069662470e+00
1.305888865935892484e-01 8.650153042800523551e+00
1.316294354902546315e-01 8.911377117735039377e+00
1.326699843869200146e-01 8.780024412620900165e+00
1.337105332835853977e-01 8.707955787543419035e+00
1.347510821802507808e-01 8.727270582229024853e+00
1.357916310769161639e-01 8.729463599773021443e+00
1.368321799735815469e-01 8.728486660630574434e+00
1.378727288702469300e-01 8.727526072978042393e+00
1.389132777669123131e-01 8.661747782790778061e+00
1.399538266635776962e-01 8.685536205157131207e+00
1.409943755602430793e-01 8.677096390669017723e+00
1.420349244569084624e-01 8.674981943615469149e+00
1.430754733535738454e-01 8.756653334515982934e+00
1.441160222502392285e-01 8.647488088308829646e+00
1.451565711469046116e-01 8.678274333010657315e+00
1.461971200435699947e-01 8.691402045732758097e+00
1.472376689402353778e-01 8.704379213987868624e+00
1.482782178369007609e-01 8.689063936700048174e+00
1.493187667335661439e-01 8.712615394170022398e+00
1.503593156302315270e-01 8.782854006682645931e+00
1.513998645268969101e-01 8.692649033760789123e+00
1.524404134235622932e-01 8.651441275029291944e+00
1.534809623202276763e-01 8.702221948897111758e+00
1.545215112168930593e-01 8.780132064982048234e+00
1.555620601135584424e-01 8.727082223787002491e+00
1.566026090102238255e-01 8.685220218415960147e+00
1.576431579068892086e-01 8.698920341893058961e+00
1.586837068035545917e-01 8.739553493298757303e+00
1.597242557002199748e-01 8.666922935302926234e+00
1.607648045968853578e-01 8.683971334336607839e+00
1.618053534935507409e-01 8.765836749371906933e+00
1.628459023902161240e-01 8.820164065877438730e+00
1.638864512868815071e-01 8.741177244428854465e+00
1.649270001835468902e-01 8.679115209185910729e+00
1.659675490802122733e-01 8.758001435773682175e+00
1.670080979768776563e-01 8.709641983611460248e+00
1.680486468735430672e-01 8.696105738199170432e+00
1.690891957702084503e-01 8.678676271627892902e+00
1.701297446668738333e-01 8.651919193338057923e+00
1.711702935635392164e-01 8.762477907531961208e+00
1.722108424602045995e-01 8.830804267864584389e+00
1.732513913568699826e-01 8.833055582394770511e+00
1.742919402535353657e-01 8.840198736275457492e+00
1.753324891502007488e-01 8.802500678107170629e+00
1.763730380468661318e-01 8.774086570730535328e+00
1.774135869435315149e-01 8.755027787212592116e+00
1.784541358401968980e-01 8.734175867478287003e+00
1.794946847368622811e-01 8.670486656916315482e+00
1.805352336335276642e-01 8.755398693479037320e+00
1.815757825301930473e-01 8.747833868179505146e+00
1.826163314268584303e-01 8.744857237926519034e+00
1.836568803235238134e-01 8.765685795528559865e+00
1.846974292201891965e-01 8.748351370196180810e+00
1.857379781168545796e-01 8.722108634434782459e+00
1.867785270135199627e-01 8.789234301216422907e+00
1.878190759101853458e-01 8.800694316639805947e+00
1.888596248068507288e-01 8.724636434797055529e+00
1.899001737035161119e-01 8.640793010525070983e+00
1.909407226001814950e-01 8.710681568978618117e+00
1.919812714968468781e-01 8.772159679156549927e+00
1.930218203935122612e-01 8.758273390724379937e+00
1.940623692901776443e-01 8.732996100846861509e+00
1.951029181868430273e-01 8.759923908534705816e+00
1.961434670835084104e-01 8.678028796089689578e+00
1.971840159801737935e-01 8.699905929577967711e+00
1.982245648768391766e-01 8.772715068192800558e+00
1.992651137735045597e-01 8.805320639017899964e+00
2.003056626701699428e-01 8.755590885620495811e+00
2.013462115668353813e-01 8.758065376371746424e+00
2.023867604635007644e-01 8.778240650763651232e+00
2.034273093601661475e-01 8.824390615532163196e+00
2.044678582568315306e-01 8.791244885063234094e+00
2.055084071534969137e-01 8.800309524138038242e+00
2.065489560501622968e-01 8.796075880787984858e+00
2.075895049468276798e-01 8.822621624387783967e+00
2.086300538434930629e-01 8.763512489224073221e+00
2.096706027401584460e-01 8.787804161637456701e+00
2.107111516368238291e-01 8.727217585979502701e+00
2.117517005334892122e-01 8.743544996575492334e+00
2.127922494301545953e-01 8.811408692128757991e+00
2.138327983268199783e-01 8.830511991915416914e+00
2.148733472234853614e-01 8.737912712624684275e+00
2.159138961201507445e-01 8.772651284853360210e+00
2.169544450168161276e-01 8.756884715245243811e+00
2.179949939134815107e-01 8.788846652827253081e+00
2.190355428101468938e-01 8.752806745716000592e+00
2.200760917068122768e-01 8.743894499662729913e+00
2.211166406034776599e-01 8.728910274834989380e+00
2.221571895001430430e-01 8.690717744814255852e+00
2.231977383968084261e-01 8.695157664106682560e+00
2.242382872934738092e-01 8.743891401408580677e+00
2.252788361901391923e-01 8.785408209540673141e+00
2.263193850868045753e-01 8.724924459847620994e+00
2.273599339834699584e-01 8.713962971928378209e+00
2.284004828801353415e-01 8.797391420143208407e+00
2.294410317768007246e-01 8.835998283078435378e+00
2.304815806734661077e-01 8.770868269985601984e+00
2.315221295701314908e-01 8.722185858950238568e+00
2.325626784667968738e-01 8.724485665103912879e+00
2.336032273634622569e-01 8.758958306232036861e+00
2.346437762601276400e-01 8.806211991637114878e+00
2.356843251567930231e-01 8.790592878897426132e+00
2.367248740534584062e-01 8.815416107667578771e+00
2.377654229501237892e-01 8.781567182380154435e+00
2.388059718467891723e-01 8.807812623513742167e+00
2.398465207434545554e-01 8.777820175130617741e+00
2.408870696401199385e-01 8.769741294022395550e+00
2.419276185367853216e-01 8.775729858001913186e+00
2.429681674334507047e-01 8.779982032339052722e+00
2.440087163301160877e-01 8.758592311794087593e+00
2.450492652267814708e-01 8.819717159387174377e+00
2.460898141234468539e-01 8.827395595487462998e+00
2.471303630201122370e-01 8.821502652023900382e+00
2.481709119167776201e-01 8.818518557012444248e+00
2.492114608134430032e-01 8.795782175930479951e+00
2.502520097101083585e-01 8.821602162463772601e+00
2.512925586067737416e-01 8.815199914873819154e+00
2.523331075034391247e-01 8.842545885899571800e+00
2.533736564001045077e-01 8.797499295999271496e+00
2.544142052967698908e-01 8.810714041227450721e+00
2.554547541934352739e-01 8.800773133096198464e+00
2.564953030901006570e-01 8.795215327783798998e+00
2.575358519867660401e-01 8.826506782577794752e+00
2.585764008834314231e-01 8.766983923879999807e+00
2.596169497800968062e-01 8.791334184233345894e+00
2.606574986767621893e-01 8.840385527881798211e+00
2.616980475734275724e-01 8.832389506038978766e+00
2.627385964700929555e-01 8.765071766310526868e+00
2.637791453667583386e-01 8.856899309211764049e+00
2.648196942634237216e-01 8.818831154997003097e+00
2.658602431600891047e-01 8.759230688403683018e+00
2.669007920567544878e-01 8.778747457869076953e+00
2.679413409534198709e-01 8.748292174355974282e+00
2.689818898500852540e-01 8.788563346858568437e+00
2.700224387467506371e-01 8.781104196158375785e+00
2.710629876434160201e-01 8.852132023141873418e+00
2.721035365400814032e-01 8.913537969416744033e+00
2.731440854367467863e-01 8.819983157242148764e+00
2.741846343334121694e-01 8.757534809188284086e+00
2.752251832300775525e-01 8.879277425508284693e+00
2.762657321267429356e-01 8.841288577483780387e+00
2.773062810234083186e-01 8.880481438691354867e+00
2.783468299200737017e-01 8.816668193148975874e+00
2.793873788167390848e-01 8.831010787142046681e+00
2.804279277134044679e-01 8.801109377171353998e+00
2.814684766100698510e-01 8.812825881819449592e+00
2.825090255067352341e-01 8.809434428655887217e+00
2.835495744034006171e-01 8.783150743178946840e+00
2.845901233000660002e-01 8.866853284632131960e+00
2.856306721967313833e-01 8.860604076353009617e+00
2.866712210933967664e-01 8.800537255959056893e+00
2.877117699900621495e-01 8.854126761988885264e+00
2.887523188867275326e-01 8.854824265699608787e+00
2.897928677833929156e-01 8.800814597325928190e+00
2.908334166800582987e-01 8.741835625291276557e+00
2.918739655767236818e-01 8.780487506045258073e+00
2.929145144733890649e-01 8.784961272238735575e+00
2.939550633700544480e-01 8.824373043165774533e+00
2.949956122667198311e-01 8.844711927324874878e+00
2.960361611633852141e-01 8.787520775692970076e+00
2.970767100600505972e-01 8.828079251088160717e+00
2.981172589567159803e-01 8.824117523084369807e+00
2.991578078533813634e-01 8.796176377641218735e+00
3.001983567500468020e-01 8.774660255517449770e+00
3.012389056467121851e-01 8.770830703063754896e+00
3.022794545433775681e-01 8.831120335488870765e+00
3.033200034400429512e-01 8.848888604585097184e+00
3.043605523367083343e-01 8.802366774934942129e+00
3.054011012333737174e-01 8.826012013031755643e+00
3.064416501300391005e-01 8.875511519551510631e+00
3.074821990267044836e-01 8.935133296574132800e+00
3.085227479233698666e-01 8.846717949991473873e+00
3.095632968200352497e-01 8.841670877263887007e+00
3.106038457167006328e-01 8.808270424095093531e+00
3.116443946133660159e-01 8.851183935119900426e+00
3.126849435100313990e-01 8.876027898057568422e+00
3.137254924066967821e-01 8.802552484490664853e+00
3.147660413033621651e-01 8.783733218094052830e+00
3.158065902000275482e-01 8.800379751556873131e+00
3.168471390966929313e-01 8.811569041641362787e+00
3.178876879933583144e-01 8.841010598816504640e+00
3.189282368900236975e-01 8.857030158040625878e+00
3.199687857866890806e-01 8.854352812584984633e+00
3.210093346833544636e-01 8.849976511995791384e+00
3.220498835800198467e-01 8.840337617847303875e+00
3.230904324766852298e-01 8.781978796189619629e+00
3.241309813733506129e-01 8.784111134488968631e+00
3.251715302700159960e-01 8.758675637629108834e+00
3.262120791666813790e-01 8.872079244788469765e+00
3.272526280633467621e-01 8.818771973402999009e+00
3.282931769600121452e-01 8.792130578156360343e+00
3.293337258566775283e-01 8.860081537477315194e+00
3.303742747533429114e-01 8.834821654050417195e+00
3.314148236500082945e-01 8.844726597337844609e+00
3.324553725466736775e-01 8.838029816183439635e+00
3.334959214433390606e-01 8.850448156449697734e+00
3.345364703400044437e-01 8.865913369723418924e+00
3.355770192366698268e-01 8.796787547959587172e+00
3.366175681333352099e-01 8.845602575503454190e+00
3.376581170300005930e-01 8.865950929459636143e+00
3.386986659266659760e-01 8.882516710879691857e+00
3.397392148233313591e-01 8.820274932546539048e+00
3.407797637199967422e-01 8.892028769232551255e+00
3.418203126166621253e-01 8.899271427518755218e+00
3.428608615133275084e-01 8.841677627440452270e+00
3.439014104099928915e-01 8.844149239581980737e+00
3.449419593066582745e-01 8.880123568137403112e+00
3.459825082033236576e-01 8.821487972451677706e+00
3.470230570999890407e-01 8.842340638603502612e+00
3.480636059966544238e-01 8.857787272045367644e+00
3.491041548933198069e-01 8.873548960700402333e+00
3.501447037899851900e-01 8.949118827600754500e+00
3.511852526866505730e-01 8.970876559947129181e+00
3.522258015833159561e-01 8.876806959216230197e+00
3.532663504799813392e-01 8.888189428619755361e+00
3.543068993766467223e-01 8.923040135566806086e+00
3.553474482733121054e-01 8.853457055081413785e+00
3.563879971699774885e-01 8.827164881980269939e+00
3.574285460666428715e-01 8.830535712595121822e+00
3.584690949633082546e-01 8.930377665641122675e+00
3.595096438599736377e-01 8.875761646926839887e+00
3.605501927566390208e-01 8.875869547428266060e+00
3.615907416533044039e-01 8.858213512730770844e+00
3.626312905499697870e-01 8.864574010721149477e+00
3.636718394466351700e-01 8.892942622030471256e+00
3.647123883433005531e-01 8.857249695563883307e+00
3.657529372399659362e-01 8.905232487257173091e+00
3.667934861366313193e-01 8.882191484189922548e+00
3.678340350332967024e-01 8.885603497192926525e+00
3.688745839299620854e-01 8.874059609393132320e+00
3.699151328266274685e-01 8.846019687861408798e+00
3.709556817232928516e-01 8.862358470082783768e+00
3.719962306199582347e-01 8.894989434909971848e+00
3.730367795166236178e-01 8.838355932621116295e+00
3.740773284132890009e-01 8.903876989797295138e+00
3.751178773099543839e-01 8.890957800229143615e+00
3.761584262066197670e-01 8.879661694000352767e+00
3.771989751032851501e-01 8.871326605314845182e+00
3.782395239999505332e-01 8.842777454946389781e+00
3.792800728966159163e-01 8.852091420355199247e+00
3.803206217932812994e-01 8.886603395573427377e+00
3.813611706899466824e-01 8.913369031964014866e+00
3.824017195866120655e-01 8.892919758558987198e+00
3.834422684832774486e-01 8.905598916427440059e+00
3.844828173799428317e-01 8.876797641540315809e+00
3.855233662766082148e-01 8.880090513419116149e+00
3.865639151732735979e-01 8.880848144183600468e+00
3.876044640699389809e-01 8.884032138844098370e+00
3.886450129666043640e-01 8.879321036887894536e+00
3.896855618632697471e-01 8.858083277008185874e+00
3.907261107599351302e-01 8.845926970474160100e+00
3.917666596566005133e-01 8.867370283498090089e+00
3.928072085532658964e-01 8.858964392934932874e+00
3.938477574499312794e-01 8.878788648809935680e+00
3.948883063465966625e-01 8.847653708480233803e+00
3.959288552432620456e-01 8.870206559503866828e+00
3.969694041399274287e-01 8.848465827502424830e+00
3.980099530365928118e-01 8.814895057651597199e+00
3.990505019332581949e-01 8.873318648160781308e+00
4.000910508299235779e-01 8.817638081343940115e+00
4.011315997265889610e-01 8.921085847326544638e+00
4.021721486232543441e-01 8.926298600266441952e+00
4.032126975199197272e-01 8.917664315166856426e+00
4.042532464165851103e-01 8.876288789218330422e+00
4.052937953132504934e-01 8.854093514393866826e+00
4.063343442099158764e-01 8.890476494576599720e+00
4.073748931065812595e-01 8.891122266943517261e+00
4.084154420032466426e-01 8.863749414023128992e+00
4.094559908999120257e-01 8.839030121954246866e+00
4.104965397965774088e-01 8.849905242012903628e+00
4.115370886932427918e-01 8.838724383069436641e+00
4.125776375899081749e-01 8.844541034640851507e+00
4.136181864865735580e-01 8.866229957569778719e+00
4.146587353832389411e-01 8.836184076017424616e+00
4.156992842799043242e-01 8.866861251584197134e+00
4.167398331765697073e-01 8.897196727274071293e+00
4.177803820732350903e-01 8.882142937174677400e+00
4.188209309699004734e-01 8.878733141794654671e+00
4.198614798665658565e-01 8.873049090748217793e+00
4.209020287632312396e-01 8.860486159385924765e+00
4.219425776598966227e-01 8.861667824509552815e+00
4.229831265565620058e-01 8.867477316591859449e+00
4.240236754532273888e-01 8.910483351676308672e+00
4.250642243498927719e-01 8.981066811551368545e+00
4.261047732465581550e-01 8.928803624000847705e+00
4.271453221432235381e-01 8.901016935734663349e+00
4.281858710398889212e-01 8.921045431382248481e+00
4.292264199365543043e-01 8.998398490432457208e+00
4.302669688332196873e-01 8.938114955347693069e+00
4.313075177298850704e-01 8.956559647767097232e+00
4.323480666265504535e-01 8.945852979147892015e+00
4.333886155232158366e-01 8.919166450677092683e+00
4.344291644198812197e-01 8.897378388367252811e+00
