# q (1/Angstrom), Intensity (arb)
2.029070354705860696e-02 1.784783934360439730e+02
2.133125244372399004e-02 1.497011146402557245e+02
2.237180134038937659e-02 1.290033939787454074e+02
2.341235023705475968e-02 1.138993175404862939e+02
2.445289913372014276e-02 9.859868983337915438e+01
2.549344803038552584e-02 8.868511018843983607e+01
2.653399692705091240e-02 7.861243799408211430e+01
2.757454582371629548e-02 7.084175453831808511e+01
2.861509472038167856e-02 6.299595512142555265e+01
2.965564361704706164e-02 5.665702814567998757e+01
3.069619251371244473e-02 5.304171955849744791e+01
3.173674141037782781e-02 4.891924200800811207e+01
3.277729030704321089e-02 4.482052924857163134e+01
3.381783920370859398e-02 4.263469162798198653e+01
3.485838810037397706e-02 3.919401562855211552e+01
3.589893699703936014e-02 3.849801125642026278e+01
3.693948589370474322e-02 3.697198422874726020e+01
3.798003479037012631e-02 3.352255666235978282e+01
3.902058368703550939e-02 3.196355498851627175e+01
4.006113258370089247e-02 2.973690059163017452e+01
4.110168148036627556e-02 2.960107521778034823e+01
4.214223037703165864e-02 2.879596114137328300e+01
4.318277927369704866e-02 2.789515434438219899e+01
4.422332817036243174e-02 2.763203465242878565e+01
4.526387706702781483e-02 2.708584674526169778e+01
4.630442596369319791e-02 2.668181973016710629e+01
4.734497486035858099e-02 2.824372411683948769e+01
4.838552375702396408e-02 2.898138926804446669e+01
4.942607265368934716e-02 2.966909907180370709e+01
5.046662155035473024e-02 3.063312803270529372e+01
5.150717044702011332e-02 3.196957748088968287e+01
5.254771934368549641e-02 3.272965004784541776e+01
5.358826824035087949e-02 3.328139087916274974e+01
5.462881713701626257e-02 3.469312315131979574e+01
5.566936603368164566e-02 3.765002880386219886e+01
5.670991493034702874e-02 4.045283522779430285e+01
5.775046382701241182e-02 4.402989844474866032e+01
5.879101272367779490e-02 4.691654995145232476e+01
5.983156162034317799e-02 5.271334049619814266e+01
6.087211051700856107e-02 6.006199682661529948e+01
6.191265941367394415e-02 6.988873657285400043e+01
6.295320831033933417e-02 8.158003944481072267e+01
6.399375720700471726e-02 9.900587186767873504e+01
6.503430610367010034e-02 1.283068053563809485e+02
6.607485500033548342e-02 1.769122383683338740e+02
6.711540389700086651e-02 2.561258281079512926e+02
6.815595279366624959e-02 3.752945779332934535e+02
6.919650169033163267e-02 5.324520709956952942e+02
7.023705058699701576e-02 7.299998356859543946e+02
7.127759948366239884e-02 9.410407745900135978e+02
7.231814838032778192e-02 1.081933616412024094e+03
7.335869727699316500e-02 1.055248838336972085e+03
7.439924617365854809e-02 8.503941494833713932e+02
7.543979507032393117e-02 6.113498973775273271e+02
7.648034396698931425e-02 4.419961050400112299e+02
7.752089286365469734e-02 3.368683623955395774e+02
7.856144176032008042e-02 2.684786164747467865e+02
7.960199065698546350e-02 2.228013300354831472e+02
8.064253955365084658e-02 1.915458503835796478e+02
8.168308845031622967e-02 1.730671483643614863e+02
8.272363734698161275e-02 1.558577302409831304e+02
8.376418624364699583e-02 1.354934378745827814e+02
8.480473514031239279e-02 1.086898268628245603e+02
8.584528403697777588e-02 7.891562325989650617e+01
8.688583293364315896e-02 5.387318217328766679e+01
8.792638183030854204e-02 3.781932822113840587e+01
8.896693072697392513e-02 2.676087128641485435e+01
9.000747962363930821e-02 1.910410672431398638e+01
9.104802852030469129e-02 1.412720898574090000e+01
9.208857741697007437e-02 1.137083907348799983e+01
9.312912631363545746e-02 9.604021989202699672e+00
9.416967521030084054e-02 7.850821416422483878e+00
9.521022410696622362e-02 6.825532945414501285e+00
9.625077300363160671e-02 6.196224090237592463e+00
9.729132190029698979e-02 5.127640045985089046e+00
9.833187079696237287e-02 4.703515057761293860e+00
9.937241969362775595e-02 4.297252553761225613e+00
1.004129685902931390e-01 4.914500908656769695e+00
1.014535174869585221e-01 5.182529961342915215e+00
1.024940663836239052e-01 5.061845626227544415e+00
1.035346152802892883e-01 4.690357999212913853e+00
1.045751641769546714e-01 4.974394129389082764e+00
1.056157130736200545e-01 5.224235993797641697e+00
1.066562619702854375e-01 5.395404238990465728e+00
1.076968108669508206e-01 5.787456773592438708e+00
1.087373597636162037e-01 6.411830238405833882e+00
1.097779086602815868e-01 6.942787854044645712e+00
1.108184575569469699e-01 8.140164461381687033e+00
1.118590064536123529e-01 9.719286700215221231e+00
1.128995553502777360e-01 1.245979788235323582e+01
1.139401042469431191e-01 1.609778805707024674e+01
1.149806531436085022e-01 2.126337770722176401e+01
1.160212020402738853e-01 2.700311580384089183e+01
1.170617509369392684e-01 3.205162467823202377e+01
1.181022998336046514e-01 3.638435627181758036e+01
1.191428487302700345e-01 3.891500923525042310e+01
1.201833976269354176e-01 3.652519475860945875e+01
1.212239465236008007e-01 3.104047612211349616e+01
1.222644954202661838e-01 2.569656221013165265e+01
1.233050443169315669e-01 2.160948647778641174e+01
1.243455932135969499e-01 1.908288264247442356e+01
1.253861421102623330e-01 1.713234406093233275e+01
1.264266910069277161e-01 1.624709252597428133e+01
1.274672399035930992e-01 1.664207301138617368e+01
1.285077888002584823e-01 1.668306691626661120e+01
1.295483376969238654e-01 1.682527532787465674e+01
1.305888865935892484e-01 1.765716042544212172e+01
1.316294354902546315e-01 1.922574785739190162e+01
1.326699843869200146e-01 2.125373412470842993e+01
1.337105332835853977e-01 2.559299584396021743e+01
1.347510821802507808e-01 3.173112907296666663e+01
1.357916310769161639e-01 3.805148797842342390e+01
1.368321799735815469e-01 4.334282227783430841e+01
1.378727288702469300e-01 4.833895835955551945e+01
1.389132777669123131e-01 5.260823010121857379e+01
1.399538266635776962e-01 5.356335824542072288e+01
1.409943755602430793e-01 4.940502846574038642e+01
1.420349244569084624e-01 4.205212433845444053e+01
1.430754733535738454e-01 3.384794804144151215e+01
1.441160222502392285e-01 2.790066024818566603e+01
1.451565711469046116e-01 2.384150787113521375e+01
1.461971200435699947e-01 2.047530349810741512e+01
1.472376689402353778e-01 1.668667198928466888e+01
1.482782178369007609e-01 1.300389384489517397e+01
1.493187667335661439e-01 1.012908055686843056e+01
1.503593156302315270e-01 8.188374402264052776e+00
1.513998645268969101e-01 6.917624572064823951e+00
1.524404134235622932e-01 5.659467652320351760e+00
1.534809623202276763e-01 4.364452256414558917e+00
1.545215112168930593e-01 3.912261887037459474e+00
1.555620601135584424e-01 3.561036160630216330e+00
1.566026090102238255e-01 2.880697397375129754e+00
1.576431579068892086e-01 2.549215002023089482e+00
1.586837068035545917e-01 2.331554522907389071e+00
1.597242557002199748e-01 2.640200349659430401e+00
1.607648045968853578e-01 2.891952655375668257e+00
1.618053534935507409e-01 2.635432443434090999e+00
1.628459023902161240e-01 2.389711980803603808e+00
1.638864512868815071e-01 2.208104005554915261e+00
1.649270001835468902e-01 1.959064035013057037e+00
1.659675490802122733e-01 2.154094625395629237e+00
1.670080979768776563e-01 1.854220742568209346e+00
1.680486468735430672e-01 1.856458339313228123e+00
1.690891957702084503e-01 2.210585382579758118e+00
1.701297446668738333e-01 2.309736356669077395e+00
1.711702935635392164e-01 2.008313777772166020e+00
1.722108424602045995e-01 1.940185608022524377e+00
1.732513913568699826e-01 2.574880899110958410e+00
1.742919402535353657e-01 2.463982047410425480e+00
1.753324891502007488e-01 1.889008994095107141e+00
1.763730380468661318e-01 2.295614626102079114e+00
1.774135869435315149e-01 2.785023392573741319e+00
1.784541358401968980e-01 3.107792747354800156e+00
1.794946847368622811e-01 3.685246599309685678e+00
1.805352336335276642e-01 4.002949012974021059e+00
1.815757825301930473e-01 4.403162704510950931e+00
1.826163314268584303e-01 4.994028632520610245e+00
1.836568803235238134e-01 5.730362162863247733e+00
1.846974292201891965e-01 5.951798004623945815e+00
1.857379781168545796e-01 5.471828602893872073e+00
1.867785270135199627e-01 5.286441519726864158e+00
1.878190759101853458e-01 5.318075057251732574e+00
1.888596248068507288e-01 5.357217168469375679e+00
1.899001737035161119e-01 4.943682245348359316e+00
1.909407226001814950e-01 4.470979943000415346e+00
1.919812714968468781e-01 3.935445547284306400e+00
1.930218203935122612e-01 3.646857418528682615e+00
1.940623692901776443e-01 3.442148644022108073e+00
1.951029181868430273e-01 3.579006373173925226e+00
1.961434670835084104e-01 3.543239295049374959e+00
1.971840159801737935e-01 3.561639386948854735e+00
1.982245648768391766e-01 3.414812336003169690e+00
1.992651137735045597e-01 3.347708677648075337e+00
2.003056626701699428e-01 3.710699838544421425e+00
2.013462115668353813e-01 3.891498744551043387e+00
2.023867604635007644e-01 3.836361341106517386e+00
2.034273093601661475e-01 3.935553576482419658e+00
2.044678582568315306e-01 4.514009076846200230e+00
2.055084071534969137e-01 4.425137301922248412e+00
2.065489560501622968e-01 4.568766919004179528e+00
2.075895049468276798e-01 4.621072901578106240e+00
2.086300538434930629e-01 4.342570125998928887e+00
2.096706027401584460e-01 4.366443926216938110e+00
2.107111516368238291e-01 4.045852721526784990e+00
2.117517005334892122e-01 3.626289381418050795e+00
2.127922494301545953e-01 3.033725644844018632e+00
2.138327983268199783e-01 3.036095739270532334e+00
2.148733472234853614e-01 3.298539053290767242e+00
2.159138961201507445e-01 3.584902853830303826e+00
2.169544450168161276e-01 3.385884751637536993e+00
2.179949939134815107e-01 3.205804712245051036e+00
2.190355428101468938e-01 3.482184692532168668e+00
2.200760917068122768e-01 3.198480338242465137e+00
2.211166406034776599e-01 2.816845165220751568e+00
2.221571895001430430e-01 2.431312574645247082e+00
2.231977383968084261e-01 2.184561762267051677e+00
2.242382872934738092e-01 2.209566217731946836e+00
2.252788361901391923e-01 1.862671469702164018e+00
2.263193850868045753e-01 1.517205613118914442e+00
2.273599339834699584e-01 1.535626485728503354e+00
2.284004828801353415e-01 1.410421527435016031e+00
2.294410317768007246e-01 1.443386434532115459e+00
2.304815806734661077e-01 1.041255581821477705e+00
2.315221295701314908e-01 1.174545858578952107e+00
2.325626784667968738e-01 1.249439377714299582e+00
2.336032273634622569e-01 1.266398634729849704e+00
2.346437762601276400e-01 1.068606435451169290e+00
2.356843251567930231e-01 1.360139170058886293e+00
2.367248740534584062e-01 1.162150985652896651e+00
2.377654229501237892e-01 1.048527390899028688e+00
2.388059718467891723e-01 1.321385813106722651e+00
2.398465207434545554e-01 1.299570885859143488e+00
2.408870696401199385e-01 1.510911038688750097e+00
2.419276185367853216e-01 1.267686168857789397e+00
2.429681674334507047e-01 1.013783433520856647e+00
2.440087163301160877e-01 1.054438115116383301e+00
2.450492652267814708e-01 1.332131820860340099e+00
2.460898141234468539e-01 1.225298526276986877e+00
2.471303630201122370e-01 1.069267005117104929e+00
2.481709119167776201e-01 8.903763300300724381e-01
2.492114608134430032e-01 9.119564245209410558e-01
2.502520097101083585e-01 1.065337636237398300e+00
2.512925586067737416e-01 1.250022893051298212e+00
2.523331075034391247e-01 1.298860431566051687e+00
2.533736564001045077e-01 1.106281302061134397e+00
2.544142052967698908e-01 1.112204905392484733e+00
2.554547541934352739e-01 1.330526347326440373e+00
2.564953030901006570e-01 1.308756183001921869e+00
2.575358519867660401e-01 1.227574930654235175e+00
2.585764008834314231e-01 1.414084861688305494e+00
2.596169497800968062e-01 1.489812708176469158e+00
2.606574986767621893e-01 1.411986192199993440e+00
2.616980475734275724e-01 1.563868871557307472e+00
2.627385964700929555e-01 1.373727199625538020e+00
2.637791453667583386e-01 1.334885957030152781e+00
2.648196942634237216e-01 1.655227531891011239e+00
2.658602431600891047e-01 1.707227504960233233e+00
2.669007920567544878e-01 1.453635257536429748e+00
2.679413409534198709e-01 1.427767064064358493e+00
2.689818898500852540e-01 1.347907869229054256e+00
2.700224387467506371e-01 1.466581374606303001e+00
2.710629876434160201e-01 1.384154511170478941e+00
2.721035365400814032e-01 1.416316510751691737e+00
2.731440854367467863e-01 1.532423581118010247e+00
2.741846343334121694e-01 1.420865548172891124e+00
2.752251832300775525e-01 1.643809945215942037e+00
2.762657321267429356e-01 1.382111833375795129e+00
2.773062810234083186e-01 1.395119526331523474e+00
2.783468299200737017e-01 1.706446654413781516e+00
2.793873788167390848e-01 1.398732580931000058e+00
2.804279277134044679e-01 1.163040579658705553e+00
2.814684766100698510e-01 1.202172587319321195e+00
2.825090255067352341e-01 1.212935137503439620e+00
2.835495744034006171e-01 1.144186180168034639e+00
2.845901233000660002e-01 1.004819712420196964e+00
2.856306721967313833e-01 1.036005057344763003e+00
2.866712210933967664e-01 1.166103759679351981e+00
2.877117699900621495e-01 8.383093767955216435e-01
2.887523188867275326e-01 5.918572946022244707e-01
2.897928677833929156e-01 6.898463066006961242e-01
2.908334166800582987e-01 7.381140204079912337e-01
2.918739655767236818e-01 9.904311439994515354e-01
2.929145144733890649e-01 9.905576192127618640e-01
2.939550633700544480e-01 7.969867753351351780e-01
2.949956122667198311e-01 7.695458649239483861e-01
2.960361611633852141e-01 8.649487971553746490e-01
2.970767100600505972e-01 9.660932185714727893e-01
2.981172589567159803e-01 1.059962854930496690e+00
2.991578078533813634e-01 1.031822619206639757e+00
3.001983567500468020e-01 5.639023575876827010e-01
3.012389056467121851e-01 6.380708040922726809e-01
3.022794545433775681e-01 7.852637101370554262e-01
3.033200034400429512e-01 6.500573237598494813e-01
3.043605523367083343e-01 9.211029721314787366e-01
3.054011012333737174e-01 7.508607370675193238e-01
3.064416501300391005e-01 7.169466274785278870e-01
3.074821990267044836e-01 8.633925346087885089e-01
3.085227479233698666e-01 9.483227767944910624e-01
3.095632968200352497e-01 7.905869674454422125e-01
3.106038457167006328e-01 4.239285263333059106e-01
3.116443946133660159e-01 4.141743763601581918e-01
3.126849435100313990e-01 8.679979505897250647e-01
3.137254924066967821e-01 8.442227870151306490e-01
3.147660413033621651e-01 5.665392873016159569e-01
3.158065902000275482e-01 5.465471971477242619e-01
3.168471390966929313e-01 5.151363615750206293e-01
3.178876879933583144e-01 4.449088338471369752e-01
3.189282368900236975e-01 3.843583519082187649e-01
3.199687857866890806e-01 5.150923605348225465e-01
3.210093346833544636e-01 4.392287316683578524e-01
3.220498835800198467e-01 6.398343009985509866e-01
3.230904324766852298e-01 7.298532963546264796e-01
3.241309813733506129e-01 5.621598859192076247e-01
3.251715302700159960e-01 3.879937353521825116e-01
3.262120791666813790e-01 6.804369847692974815e-01
3.272526280633467621e-01 7.993611173638122125e-01
3.282931769600121452e-01 7.155423270184613216e-01
3.293337258566775283e-01 5.898582822926492497e-01
3.303742747533429114e-01 4.626981596266226404e-01
3.314148236500082945e-01 5.996017669157431840e-01
3.324553725466736775e-01 5.429398320033804737e-01
3.334959214433390606e-01 5.310775312193989350e-01
3.345364703400044437e-01 6.699701875206649504e-01
3.355770192366698268e-01 6.019217423036380410e-01
3.366175681333352099e-01 4.734885323685489311e-01
3.376581170300005930e-01 5.375518102379714946e-01
3.386986659266659760e-01 4.950039329002215993e-01
3.397392148233313591e-01 4.507328535429699912e-01
3.407797637199967422e-01 6.840247990297889658e-01
3.418203126166621253e-01 7.960357888247173719e-01
3.428608615133275084e-01 8.395054327530750982e-01
3.439014104099928915e-01 7.976260407467599123e-01
3.449419593066582745e-01 7.605283934946065472e-01
3.459825082033236576e-01 8.478746543026858262e-01
3.470230570999890407e-01 7.461436857104821740e-01
3.480636059966544238e-01 7.155736935627388107e-01
3.491041548933198069e-01 8.323632909505214172e-01
3.501447037899851900e-01 6.486879688577147363e-01
3.511852526866505730e-01 4.225881479768318627e-01
3.522258015833159561e-01 6.153273401978509582e-01
3.532663504799813392e-01 5.733636957081955643e-01
3.543068993766467223e-01 4.542296411931943112e-01
3.553474482733121054e-01 5.899733199562753327e-01
3.563879971699774885e-01 7.074419289460465166e-01
3.574285460666428715e-01 8.241768894364334130e-01
3.584690949633082546e-01 6.827289433483620940e-01
3.595096438599736377e-01 3.672703886356991632e-01
3.605501927566390208e-01 1.721804957366330768e-01
3.615907416533044039e-01 1.743354720056586871e-01
3.626312905499697870e-01 4.215336826472295684e-01
3.636718394466351700e-01 5.220236134482227897e-01
3.647123883433005531e-01 6.928002767077146018e-01
3.657529372399659362e-01 4.608742816465394299e-01
3.667934861366313193e-01 2.960829436557546046e-01
3.678340350332967024e-01 4.388609717124154486e-01
3.688745839299620854e-01 6.230063354996673297e-01
3.699151328266274685e-01 6.961268032669245542e-01
3.709556817232928516e-01 5.236681291625195911e-01
3.719962306199582347e-01 5.054991640182784352e-01
3.730367795166236178e-01 4.987887178532020016e-01
3.740773284132890009e-01 4.469383603816154960e-01
3.751178773099543839e-01 5.141356889681532039e-01
3.761584262066197670e-01 2.955037599655980785e-01
3.771989751032851501e-01 3.589670953715184964e-01
3.782395239999505332e-01 5.153766285170426897e-01
3.792800728966159163e-01 6.733643592443527837e-01
3.803206217932812994e-01 6.092249675604080039e-01
3.813611706899466824e-01 5.529612301945476815e-01
3.824017195866120655e-01 6.236242188538483333e-01
3.834422684832774486e-01 4.499424474167632582e-01
3.844828173799428317e-01 5.185357146658482463e-01
3.855233662766082148e-01 5.694978404534722927e-01
3.865639151732735979e-01 3.939982687353200674e-01
3.876044640699389809e-01 4.440711449078555972e-01
3.886450129666043640e-01 6.452468067725050105e-01
3.896855618632697471e-01 5.087203665599844271e-01
3.907261107599351302e-01 4.870768946838914815e-01
3.917666596566005133e-01 3.546218025844467547e-01
3.928072085532658964e-01 3.466043672948124765e-01
3.938477574499312794e-01 5.090654345503509148e-01
3.948883063465966625e-01 5.583612980803493997e-01
3.959288552432620456e-01 4.603821073453921997e-01
3.969694041399274287e-01 3.562873578307659272e-01
3.980099530365928118e-01 3.293014741623387920e-01
3.990505019332581949e-01 1.826105271269824470e-01
4.000910508299235779e-01 1.067577896434386275e-01
4.011315997265889610e-01 4.107619875560502010e-01
4.021721486232543441e-01 4.262996443557831583e-01
4.032126975199197272e-01 4.414915525776059724e-01
4.042532464165851103e-01 6.508193772752726147e-01
4.052937953132504934e-01 6.532274547630656514e-01
4.063343442099158764e-01 6.006819152727409517e-01
4.073748931065812595e-01 6.067879896076853186e-01
4.084154420032466426e-01 3.798171474619174148e-01
4.094559908999120257e-01 1.949852057277574602e-01
4.104965397965774088e-01 5.870914002083225114e-01
4.115370886932427918e-01 4.707925772040688628e-01
4.125776375899081749e-01 4.326983677612297186e-01
4.136181864865735580e-01 6.335308088494109313e-01
4.146587353832389411e-01 4.429805244401094910e-01
4.156992842799043242e-01 5.736124785694052264e-01
4.167398331765697073e-01 5.343321360134183351e-01
4.177803820732350903e-01 4.953315063285330666e-01
4.188209309699004734e-01 6.551865587237806210e-01
4.198614798665658565e-01 8.184179427872457779e-01
4.209020287632312396e-01 6.882205520621518247e-01
4.219425776598966227e-01 3.122560687738200613e-01
4.229831265565620058e-01 1.886063881695569933e-01
4.240236754532273888e-01 2.170276767349541558e-01
4.250642243498927719e-01 3.941684574434489718e-01
4.261047732465581550e-01 5.225795325094040322e-01
4.271453221432235381e-01 4.200149296559878564e-01
4.281858710398889212e-01 4.281660478629696343e-01
4.292264199365543043e-01 2.686274737519802613e-01
4.302669688332196873e-01 3.398154393042034371e-01
4.313075177298850704e-01 4.701731172191294661e-01
4.323480666265504535e-01 4.840958543726507912e-01
4.333886155232158366e-01 3.904946074086872443e-01
4.344291644198812197e-01 3.645925050142189150e-01
