# q (1/Angstrom), Intensity (arb)
2.029070354705860696e-02 2.014252333777938020e+02
2.133125244372399004e-02 1.727889219210907470e+02
2.237180134038937659e-02 1.462292427580481728e+02
2.341235023705475968e-02 1.288531704789588161e+02
2.445289913372014276e-02 1.155586378376121388e+02
2.549344803038552584e-02 1.032831031074312023e+02
2.653399692705091240e-02 8.903271332029257223e+01
2.757454582371629548e-02 8.009850172886524433e+01
2.861509472038167856e-02 7.322710268572689074e+01
2.965564361704706164e-02 6.664992724827106940e+01
3.069619251371244473e-02 6.176744369703125415e+01
3.173674141037782781e-02 5.668240749022847069e+01
3.277729030704321089e-02 5.082795380174781030e+01
3.381783920370859398e-02 4.535655237361471848e+01
3.485838810037397706e-02 4.533388306688075176e+01
3.589893699703936014e-02 4.464094507762558095e+01
3.693948589370474322e-02 4.172348382157618829e+01
3.798003479037012631e-02 4.044427227209080655e+01
3.902058368703550939e-02 3.843900051064166234e+01
4.006113258370089247e-02 3.723040014649560447e+01
4.110168148036627556e-02 3.630054706009899235e+01
4.214223037703165864e-02 3.674458609683188826e+01
4.318277927369704866e-02 3.665821069616482220e+01
4.422332817036243174e-02 3.598333820964697338e+01
4.526387706702781483e-02 3.550743901026503124e+01
4.630442596369319791e-02 3.645996111969539299e+01
4.734497486035858099e-02 3.714326129949272115e+01
4.838552375702396408e-02 3.821841306396636639e+01
4.942607265368934716e-02 3.905180442561254495e+01
5.046662155035473024e-02 4.028865701249544884e+01
5.150717044702011332e-02 4.137954761372982659e+01
5.254771934368549641e-02 4.354330701702882322e+01
5.358826824035087949e-02 4.677039362483612450e+01
5.462881713701626257e-02 5.033437240444549587e+01
5.566936603368164566e-02 5.613761662900965632e+01
5.670991493034702874e-02 6.261142861334601406e+01
5.775046382701241182e-02 6.967697830193185382e+01
5.879101272367779490e-02 7.986015634873547242e+01
5.983156162034317799e-02 9.358152283334911203e+01
6.087211051700856107e-02 1.134351677869408945e+02
6.191265941367394415e-02 1.423032168724886617e+02
6.295320831033933417e-02 1.919486553150194368e+02
6.399375720700471726e-02 2.806468345375138824e+02
6.503430610367010034e-02 4.184933132132057381e+02
6.607485500033548342e-02 6.067289840427808940e+02
6.711540389700086651e-02 8.430116977960415170e+02
6.815595279366624959e-02 1.112667041647977612e+03
6.919650169033163267e-02 1.303173148853238217e+03
7.023705058699701576e-02 1.261470979468626865e+03
7.127759948366239884e-02 9.909151439757765729e+02
7.231814838032778192e-02 6.952439847750601984e+02
7.335869727699316500e-02 4.944675789904064800e+02
7.439924617365854809e-02 3.747883978200762840e+02
7.543979507032393117e-02 2.961853793028835184e+02
7.648034396698931425e-02 2.453919684688477503e+02
7.752089286365469734e-02 2.117298587486491215e+02
7.856144176032008042e-02 1.883325790232056249e+02
7.960199065698546350e-02 1.657988105122759919e+02
8.064253955365084658e-02 1.370489930254654496e+02
8.168308845031622967e-02 1.025925306220256488e+02
8.272363734698161275e-02 6.909754845450592597e+01
8.376418624364699583e-02 4.511523836370468388e+01
8.480473514031239279e-02 3.085488226724592664e+01
8.584528403697777588e-02 2.157478025054359705e+01
8.688583293364315896e-02 1.564892115469607603e+01
8.792638183030854204e-02 1.227584705199794257e+01
8.896693072697392513e-02 1.028983990030560847e+01
9.000747962363930821e-02 8.032969806040853200e+00
9.104802852030469129e-02 6.923119278496876916e+00
9.208857741697007437e-02 6.204418492304824895e+00
9.312912631363545746e-02 6.004307230578859844e+00
9.416967521030084054e-02 5.755894012765715217e+00
9.521022410696622362e-02 5.235569531664523879e+00
9.625077300363160671e-02 4.767679138944203032e+00
9.729132190029698979e-02 4.990309482818283016e+00
9.833187079696237287e-02 5.227352769821273171e+00
9.937241969362775595e-02 5.215988103759585215e+00
1.004129685902931390e-01 5.154430554463580449e+00
1.014535174869585221e-01 5.615226580776308651e+00
1.024940663836239052e-01 6.880246371913514736e+00
1.035346152802892883e-01 7.448977060014534857e+00
1.045751641769546714e-01 8.303289290866402439e+00
1.056157130736200545e-01 9.785400171950108472e+00
1.066562619702854375e-01 1.202864717868361311e+01
1.076968108669508206e-01 1.460533018732922983e+01
1.087373597636162037e-01 1.887169388161944283e+01
1.097779086602815868e-01 2.551832602825766827e+01
1.108184575569469699e-01 3.506860483176227916e+01
1.118590064536123529e-01 4.455064682437765100e+01
1.128995553502777360e-01 5.267525849613046063e+01
1.139401042469431191e-01 5.648247496423115876e+01
1.149806531436085022e-01 5.278045438245987242e+01
1.160212020402738853e-01 4.396388829479197824e+01
1.170617509369392684e-01 3.472276546473265313e+01
1.181022998336046514e-01 2.855073359662981858e+01
1.191428487302700345e-01 2.471592443085324220e+01
1.201833976269354176e-01 2.252528127299029137e+01
1.212239465236008007e-01 2.095710661703324007e+01
1.222644954202661838e-01 2.044338990313210758e+01
1.233050443169315669e-01 2.049536420263030578e+01
1.243455932135969499e-01 2.088208764857824207e+01
1.253861421102623330e-01 2.215536275709584402e+01
1.264266910069277161e-01 2.396449173358946183e+01
1.274672399035930992e-01 2.745308618679444379e+01
1.285077888002584823e-01 3.372887240924895025e+01
1.295483376969238654e-01 4.217593840842667419e+01
1.305888865935892484e-01 5.079813704386421591e+01
1.316294354902546315e-01 5.827978379922415542e+01
1.326699843869200146e-01 6.439253499679753645e+01
1.337105332835853977e-01 6.654018619377154664e+01
1.347510821802507808e-01 6.174656502456526397e+01
1.357916310769161639e-01 5.154020860247563007e+01
1.368321799735815469e-01 4.160809210369119882e+01
1.378727288702469300e-01 3.366607182647238972e+01
1.389132777669123131e-01 2.820994630059338704e+01
1.399538266635776962e-01 2.330718831413069125e+01
1.409943755602430793e-01 1.873492420353621668e+01
1.420349244569084624e-01 1.422722154460576860e+01
1.430754733535738454e-01 1.070336920020830718e+01
1.441160222502392285e-01 8.528017358865852771e+00
1.451565711469046116e-01 6.533458823110251501e+00
1.461971200435699947e-01 5.049618668623196527e+00
1.472376689402353778e-01 4.344096025732063993e+00
1.482782178369007609e-01 4.157241101121485372e+00
1.493187667335661439e-01 3.496292004433207978e+00
1.503593156302315270e-01 3.187702140352243418e+00
1.513998645268969101e-01 2.663777302048615070e+00
1.524404134235622932e-01 2.318261625416702998e+00
1.534809623202276763e-01 2.495621281191802154e+00
1.545215112168930593e-01 2.480398286357541338e+00
1.555620601135584424e-01 2.452153655054651438e+00
1.566026090102238255e-01 2.211777176954484503e+00
1.576431579068892086e-01 2.272555256899977394e+00
1.586837068035545917e-01 2.382275026269880414e+00
1.597242557002199748e-01 2.179453835182656007e+00
1.607648045968853578e-01 2.050657346147531257e+00
1.618053534935507409e-01 2.275235716915702255e+00
1.628459023902161240e-01 2.340122674952532122e+00
1.638864512868815071e-01 1.913482039179250194e+00
1.649270001835468902e-01 2.396190268633525022e+00
1.659675490802122733e-01 2.435886147078235808e+00
1.670080979768776563e-01 2.494877123470480740e+00
1.680486468735430672e-01 2.393017409699019993e+00
1.690891957702084503e-01 3.129349085284871990e+00
1.701297446668738333e-01 4.049766189686245355e+00
1.711702935635392164e-01 4.782814053639931728e+00
1.722108424602045995e-01 5.386572091176304866e+00
1.732513913568699826e-01 5.740991688343108024e+00
1.742919402535353657e-01 6.841420823853709976e+00
1.753324891502007488e-01 7.806927291441432715e+00
1.763730380468661318e-01 7.835303534213274190e+00
1.774135869435315149e-01 8.072104653387938811e+00
1.784541358401968980e-01 8.213746185015494916e+00
1.794946847368622811e-01 8.345646531038248384e+00
1.805352336335276642e-01 7.979374355966285748e+00
1.815757825301930473e-01 7.007888252250786820e+00
1.826163314268584303e-01 5.994841828800879568e+00
1.836568803235238134e-01 5.275314021101010553e+00
1.846974292201891965e-01 4.767124997448483725e+00
1.857379781168545796e-01 4.429533526964661405e+00
1.867785270135199627e-01 4.284400995259559863e+00
1.878190759101853458e-01 4.305866751369052281e+00
1.888596248068507288e-01 4.118520836658177586e+00
1.899001737035161119e-01 4.004454819878915828e+00
1.909407226001814950e-01 4.416510819427827528e+00
1.919812714968468781e-01 4.844231793224487603e+00
1.930218203935122612e-01 4.476977668947220934e+00
1.940623692901776443e-01 4.887404847978778832e+00
1.951029181868430273e-01 5.110676037119013415e+00
1.961434670835084104e-01 5.281965040798333177e+00
1.971840159801737935e-01 5.213399548459683785e+00
1.982245648768391766e-01 5.006765256647327078e+00
1.992651137735045597e-01 5.041028014847320549e+00
2.003056626701699428e-01 4.553179769464065885e+00
2.013462115668353813e-01 4.046925283285354169e+00
2.023867604635007644e-01 3.946349337810488578e+00
2.034273093601661475e-01 3.718821943986718281e+00
2.044678582568315306e-01 3.663737086043376223e+00
2.055084071534969137e-01 3.516336542007167054e+00
2.065489560501622968e-01 3.371249539278856844e+00
2.075895049468276798e-01 3.189284126580680834e+00
2.086300538434930629e-01 3.097501630804060824e+00
2.096706027401584460e-01 3.428036522671980890e+00
2.107111516368238291e-01 3.517779708674140693e+00
2.117517005334892122e-01 3.045088723252320051e+00
2.127922494301545953e-01 2.468766414092982586e+00
2.138327983268199783e-01 2.155556071375961835e+00
2.148733472234853614e-01 1.923943474834786116e+00
2.159138961201507445e-01 1.753453143150032645e+00
2.169544450168161276e-01 1.475514471454673071e+00
2.179949939134815107e-01 1.091937439197089077e+00
2.190355428101468938e-01 1.055873805479457417e+00
2.200760917068122768e-01 1.525868912562913238e+00
2.211166406034776599e-01 1.475173646255413473e+00
2.221571895001430430e-01 1.280974352886680379e+00
2.231977383968084261e-01 1.373483373313717948e+00
2.242382872934738092e-01 1.057574817267870060e+00
2.252788361901391923e-01 9.673912167305331877e-01
2.263193850868045753e-01 1.063568681310364639e+00
2.273599339834699584e-01 1.072934589153831553e+00
2.284004828801353415e-01 1.183713097166481987e+00
2.294410317768007246e-01 1.419458690206461426e+00
2.304815806734661077e-01 1.174676524744448614e+00
2.315221295701314908e-01 9.953798983189372507e-01
2.325626784667968738e-01 1.035010758231358352e+00
2.336032273634622569e-01 1.158099479356884842e+00
2.346437762601276400e-01 1.146080936547868134e+00
2.356843251567930231e-01 1.325331533753271174e+00
2.367248740534584062e-01 1.392287445024706471e+00
2.377654229501237892e-01 1.324452022814000429e+00
2.388059718467891723e-01 1.080123976026442278e+00
2.398465207434545554e-01 1.505462407598294305e+00
2.408870696401199385e-01 1.714895998119381204e+00
2.419276185367853216e-01 1.803523497975589862e+00
2.429681674334507047e-01 1.608846240843810449e+00
2.440087163301160877e-01 1.447852206791147012e+00
2.450492652267814708e-01 1.541997455635545577e+00
2.460898141234468539e-01 1.508638603119898391e+00
2.471303630201122370e-01 1.347470278912041408e+00
2.481709119167776201e-01 1.263092581502512246e+00
2.492114608134430032e-01 1.236950231787780297e+00
2.502520097101083585e-01 1.396942868964430318e+00
2.512925586067737416e-01 1.370270311093722881e+00
2.523331075034391247e-01 1.443978617520809138e+00
2.533736564001045077e-01 1.446420780308173448e+00
2.544142052967698908e-01 1.544851570609459657e+00
2.554547541934352739e-01 1.259692304361017534e+00
2.564953030901006570e-01 1.640510441840103084e+00
2.575358519867660401e-01 1.705142945191290949e+00
2.585764008834314231e-01 1.490822455175141670e+00
2.596169497800968062e-01 1.692588228167398512e+00
2.606574986767621893e-01 1.845874996269969870e+00
2.616980475734275724e-01 1.728882223377372185e+00
2.627385964700929555e-01 1.610594683136486793e+00
2.637791453667583386e-01 1.412358240525403374e+00
2.648196942634237216e-01 1.081921270895058740e+00
2.658602431600891047e-01 1.349291907568066051e+00
2.669007920567544878e-01 1.508208953127240903e+00
2.679413409534198709e-01 1.271765311035707668e+00
2.689818898500852540e-01 9.711576406759725444e-01
2.700224387467506371e-01 1.131933705007845958e+00
2.710629876434160201e-01 1.301022899127918464e+00
2.721035365400814032e-01 1.266942509286394625e+00
2.731440854367467863e-01 1.115041671066496320e+00
2.741846343334121694e-01 9.677588629573357082e-01
2.752251832300775525e-01 9.324496645252970950e-01
2.762657321267429356e-01 1.028474558245253689e+00
2.773062810234083186e-01 1.013505542016762462e+00
2.783468299200737017e-01 9.012975077089144804e-01
2.793873788167390848e-01 8.634418615213128589e-01
2.804279277134044679e-01 6.148361609779513515e-01
2.814684766100698510e-01 5.034390695004518079e-01
2.825090255067352341e-01 5.989459216143124820e-01
2.835495744034006171e-01 8.470533267167787983e-01
2.845901233000660002e-01 9.055004575881540063e-01
2.856306721967313833e-01 7.401892624102970331e-01
2.866712210933967664e-01 7.870654210670906537e-01
2.877117699900621495e-01 7.654582216031933228e-01
2.887523188867275326e-01 9.579701643531919331e-01
2.897928677833929156e-01 8.853289975056561900e-01
2.908334166800582987e-01 4.947719399510575045e-01
2.918739655767236818e-01 3.577719444728941767e-01
2.929145144733890649e-01 6.579046141391771130e-01
2.939550633700544480e-01 7.254731608861639813e-01
2.949956122667198311e-01 7.065687565699256822e-01
2.960361611633852141e-01 6.789296527701509376e-01
2.970767100600505972e-01 8.160755721766363990e-01
2.981172589567159803e-01 7.482029568350547777e-01
2.991578078533813634e-01 6.186421863709092861e-01
3.001983567500468020e-01 7.138105346982221988e-01
3.012389056467121851e-01 5.654403194355666074e-01
3.022794545433775681e-01 4.604516535471603333e-01
3.033200034400429512e-01 6.904141917854680344e-01
3.043605523367083343e-01 7.200813272183701486e-01
3.054011012333737174e-01 5.416996886775251596e-01
3.064416501300391005e-01 5.123267388644983100e-01
3.074821990267044836e-01 6.222183730436867677e-01
3.085227479233698666e-01 6.797221313930741360e-01
3.095632968200352497e-01 8.174961250044070482e-01
3.106038457167006328e-01 6.702828381731400498e-01
3.116443946133660159e-01 6.605124197563441157e-01
3.126849435100313990e-01 3.990392696103448600e-01
3.137254924066967821e-01 5.357250630566845473e-01
3.147660413033621651e-01 7.341423793693806488e-01
3.158065902000275482e-01 5.234611616679991641e-01
3.168471390966929313e-01 6.167692838106333397e-01
3.178876879933583144e-01 6.304994080766093134e-01
3.189282368900236975e-01 7.291062640001406692e-01
3.199687857866890806e-01 7.375519413866165053e-01
3.210093346833544636e-01 6.857555665205694595e-01
3.220498835800198467e-01 5.219402370355084031e-01
3.230904324766852298e-01 5.241872300390930661e-01
3.241309813733506129e-01 5.295463119474916880e-01
3.251715302700159960e-01 6.532979254956039483e-01
3.262120791666813790e-01 7.419775218342294920e-01
3.272526280633467621e-01 7.842480408165997119e-01
3.282931769600121452e-01 7.025420225515972561e-01
3.293337258566775283e-01 5.859347307129461058e-01
3.303742747533429114e-01 6.295954424082346179e-01
3.314148236500082945e-01 7.393950518767375968e-01
3.324553725466736775e-01 6.499043995730531265e-01
3.334959214433390606e-01 5.184302121941968267e-01
3.345364703400044437e-01 6.097484564978472577e-01
3.355770192366698268e-01 6.337911840719172574e-01
3.366175681333352099e-01 7.276640139820393927e-01
3.376581170300005930e-01 6.965564479872803361e-01
3.386986659266659760e-01 3.212436036401982165e-01
3.397392148233313591e-01 3.307584427790040138e-01
3.407797637199967422e-01 6.281780253923656687e-01
3.418203126166621253e-01 6.577199686298413894e-01
3.428608615133275084e-01 6.603557843754011003e-01
3.439014104099928915e-01 5.231532388195105909e-01
3.449419593066582745e-01 5.013361223112582366e-01
3.459825082033236576e-01 6.128250824158918419e-01
3.470230570999890407e-01 7.379796812504508807e-01
3.480636059966544238e-01 6.866066852778160978e-01
3.491041548933198069e-01 6.143729600657223955e-01
3.501447037899851900e-01 5.741077429964747125e-01
3.511852526866505730e-01 5.301159422479884142e-01
3.522258015833159561e-01 6.214543110047863195e-01
3.532663504799813392e-01 5.826556095454336059e-01
3.543068993766467223e-01 6.075281479483543023e-01
3.553474482733121054e-01 3.782223766142749355e-01
3.563879971699774885e-01 3.480674932566003577e-01
3.574285460666428715e-01 3.225685085654994566e-01
3.584690949633082546e-01 2.010281697567783965e-01
3.595096438599736377e-01 1.779053635387768395e-01
3.605501927566390208e-01 2.735086582441859093e-01
3.615907416533044039e-01 1.875905357097558124e-01
3.626312905499697870e-01 4.131968559739043201e-01
3.636718394466351700e-01 4.618219623313528643e-01
3.647123883433005531e-01 3.661694248351956560e-01
3.657529372399659362e-01 1.721378629692900120e-01
3.667934861366313193e-01 4.012090409894319976e-01
3.678340350332967024e-01 3.186544683065939410e-01
3.688745839299620854e-01 2.540911382915531647e-01
3.699151328266274685e-01 4.446377688783798021e-02
3.709556817232928516e-01 1.977210426089150985e-01
3.719962306199582347e-01 6.159272045023094222e-01
3.730367795166236178e-01 6.063087193298173361e-01
3.740773284132890009e-01 4.869997078531582702e-01
3.751178773099543839e-01 4.119245658172516755e-01
3.761584262066197670e-01 5.153138955061251636e-01
3.771989751032851501e-01 4.428384134220841872e-01
3.782395239999505332e-01 5.968889754826847138e-01
3.792800728966159163e-01 5.686744775547154518e-01
3.803206217932812994e-01 4.901683939393954859e-01
3.813611706899466824e-01 3.174690601549841062e-01
3.824017195866120655e-01 3.475374973699132397e-01
3.834422684832774486e-01 4.087802571163514642e-01
3.844828173799428317e-01 6.110257461815287172e-01
3.855233662766082148e-01 5.391712137592890031e-01
3.865639151732735979e-01 4.753114534277962377e-01
3.876044640699389809e-01 2.878316174227464330e-01
3.886450129666043640e-01 1.387847338570189493e-01
3.896855618632697471e-01 4.750153678120661027e-01
3.907261107599351302e-01 5.737421755838703064e-01
3.917666596566005133e-01 4.568409554300956188e-01
3.928072085532658964e-01 4.730587276540703101e-01
3.938477574499312794e-01 4.079856136496076147e-01
3.948883063465966625e-01 5.869277000271644340e-01
3.959288552432620456e-01 5.604101158541432426e-01
3.969694041399274287e-01 3.012125841009876126e-01
3.980099530365928118e-01 2.573301345398952833e-01
3.990505019332581949e-01 3.266644165320009563e-01
4.000910508299235779e-01 3.060343510583862781e-01
4.011315997265889610e-01 3.226513764718674793e-01
4.021721486232543441e-01 3.723341575647260981e-01
4.032126975199197272e-01 4.651244723844243367e-01
4.042532464165851103e-01 5.832992955479134878e-01
4.052937953132504934e-01 6.239253596686573644e-01
4.063343442099158764e-01 4.120321992845852321e-01
4.073748931065812595e-01 3.100672045923573705e-01
4.084154420032466426e-01 4.038045057442438690e-01
4.094559908999120257e-01 6.259473374846038496e-01
4.104965397965774088e-01 5.117481930776861532e-01
4.115370886932427918e-01 5.319304904812902635e-01
4.125776375899081749e-01 5.599194491275589769e-01
4.136181864865735580e-01 4.947708723439525613e-01
4.146587353832389411e-01 5.351271001239474856e-01
4.156992842799043242e-01 7.158877263565202043e-01
4.167398331765697073e-01 6.007714026850656808e-01
4.177803820732350903e-01 4.295763089215434150e-01
4.188209309699004734e-01 2.817228343476685382e-01
4.198614798665658565e-01 2.615437336329016205e-01
4.209020287632312396e-01 1.312551162703456953e-01
4.219425776598966227e-01 1.634759110621324396e-01
4.229831265565620058e-01 6.339564859304047673e-02
4.240236754532273888e-01 8.203578236860309403e-02
4.250642243498927719e-01 0.000000000000000000e+00
4.261047732465581550e-01 2.788263327310076534e-01
4.271453221432235381e-01 4.875921845925077491e-01
4.281858710398889212e-01 4.317985304088907128e-01
4.292264199365543043e-01 4.505296232983653226e-01
4.302669688332196873e-01 4.872667574122182543e-01
4.313075177298850704e-01 3.827578926237507062e-01
4.323480666265504535e-01 4.018783044319995668e-01
4.333886155232158366e-01 1.902654701192680875e-01
4.344291644198812197e-01 1.749171786325156575e-01
