# q (1/Angstrom), Intensity (arb)
2.029070354705860696e-02 1.951306609994952055e+02
2.133125244372399004e-02 1.659303709015080699e+02
2.237180134038937659e-02 1.434212047841434128e+02
2.341235023705475968e-02 1.256861238037901956e+02
2.445289913372014276e-02 1.103331755952688411e+02
2.549344803038552584e-02 9.703380894275321111e+01
2.653399692705091240e-02 8.626994958428954874e+01
2.757454582371629548e-02 7.940933445499359777e+01
2.861509472038167856e-02 7.152912877216495247e+01
2.965564361704706164e-02 6.507077457187956782e+01
3.069619251371244473e-02 5.991749072733469461e+01
3.173674141037782781e-02 5.593921625624339811e+01
3.277729030704321089e-02 5.241066286650297457e+01
3.381783920370859398e-02 4.721086070794358847e+01
3.485838810037397706e-02 4.263726974222404920e+01
3.589893699703936014e-02 4.092281202589894917e+01
3.693948589370474322e-02 4.071832265259062211e+01
3.798003479037012631e-02 3.884733872865835735e+01
3.902058368703550939e-02 3.722664631636122579e+01
4.006113258370089247e-02 3.697487912516290010e+01
4.110168148036627556e-02 3.586849229438239917e+01
4.214223037703165864e-02 3.549927046717215973e+01
4.318277927369704866e-02 3.460223031725859499e+01
4.422332817036243174e-02 3.304196271256957118e+01
4.526387706702781483e-02 3.479387941479531321e+01
4.630442596369319791e-02 3.477096534820527296e+01
4.734497486035858099e-02 3.384748173141137073e+01
4.838552375702396408e-02 3.481056227884536014e+01
4.942607265368934716e-02 3.657547793148719251e+01
5.046662155035473024e-02 3.839172180239219045e+01
5.150717044702011332e-02 4.032173076957966629e+01
5.254771934368549641e-02 4.256963068742010137e+01
5.358826824035087949e-02 4.464462951652016898e+01
5.462881713701626257e-02 4.792251303239798688e+01
5.566936603368164566e-02 5.209348612326856198e+01
5.670991493034702874e-02 5.723415672503598728e+01
5.775046382701241182e-02 6.341338147014842974e+01
5.879101272367779490e-02 7.153001964390912804e+01
5.983156162034317799e-02 8.304455684747361488e+01
6.087211051700856107e-02 9.842865919084550796e+01
6.191265941367394415e-02 1.207947570686204557e+02
6.295320831033933417e-02 1.581926847709195272e+02
6.399375720700471726e-02 2.235461534320542683e+02
6.503430610367010034e-02 3.338352182374498511e+02
6.607485500033548342e-02 4.926917662706169381e+02
6.711540389700086651e-02 6.993892444289651849e+02
6.815595279366624959e-02 9.545200528839236540e+02
6.919650169033163267e-02 1.199356997204781919e+03
7.023705058699701576e-02 1.302857178502599481e+03
7.127759948366239884e-02 1.153200168630452936e+03
7.231814838032778192e-02 8.505923247319489064e+02
7.335869727699316500e-02 5.937142161336809068e+02
7.439924617365854809e-02 4.339759160631832060e+02
7.543979507032393117e-02 3.357487967289976041e+02
7.648034396698931425e-02 2.725316746336271763e+02
7.752089286365469734e-02 2.294985628395169499e+02
7.856144176032008042e-02 2.026314488949034285e+02
7.960199065698546350e-02 1.827538613275632429e+02
8.064253955365084658e-02 1.594926250765274460e+02
8.168308845031622967e-02 1.279688698368082811e+02
8.272363734698161275e-02 9.241442396534185377e+01
8.376418624364699583e-02 6.107089333436482548e+01
8.480473514031239279e-02 4.052648931498067952e+01
8.584528403697777588e-02 2.820847318486857347e+01
8.688583293364315896e-02 1.987088635587085150e+01
8.792638183030854204e-02 1.467138348625229582e+01
8.896693072697392513e-02 1.149302631367933714e+01
9.000747962363930821e-02 9.413931610199171018e+00
9.104802852030469129e-02 7.992088907768703621e+00
9.208857741697007437e-02 6.461427956111165827e+00
9.312912631363545746e-02 6.187195397650960160e+00
9.416967521030084054e-02 6.058062375291683566e+00
9.521022410696622362e-02 5.581689668579407737e+00
9.625077300363160671e-02 5.713118642706625394e+00
9.729132190029698979e-02 5.129741028105890166e+00
9.833187079696237287e-02 4.824427383432741578e+00
9.937241969362775595e-02 4.921300464904867056e+00
1.004129685902931390e-01 5.384706970846096397e+00
1.014535174869585221e-01 5.589057038717911041e+00
1.024940663836239052e-01 6.383200274533528784e+00
1.035346152802892883e-01 6.798637319629897036e+00
1.045751641769546714e-01 7.425202374001429462e+00
1.056157130736200545e-01 8.526614265230037404e+00
1.066562619702854375e-01 9.706964004922596700e+00
1.076968108669508206e-01 1.121225828417688319e+01
1.087373597636162037e-01 1.378793119658085686e+01
1.097779086602815868e-01 1.784095934455928756e+01
1.108184575569469699e-01 2.391879609009297525e+01
1.118590064536123529e-01 3.224808689345699975e+01
1.128995553502777360e-01 4.149155324498720887e+01
1.139401042469431191e-01 4.922055319708690746e+01
1.149806531436085022e-01 5.217199328736064246e+01
1.160212020402738853e-01 4.923788176355712665e+01
1.170617509369392684e-01 4.098473219511743793e+01
1.181022998336046514e-01 3.239059167858282251e+01
1.191428487302700345e-01 2.616890175215386449e+01
1.201833976269354176e-01 2.247194569314564205e+01
1.212239465236008007e-01 2.050661926632007237e+01
1.222644954202661838e-01 1.953863907521346732e+01
1.233050443169315669e-01 1.942905314775518377e+01
1.243455932135969499e-01 1.922999395933146616e+01
1.253861421102623330e-01 2.032013797544564682e+01
1.264266910069277161e-01 2.181114227300830066e+01
1.274672399035930992e-01 2.370147869341224123e+01
1.285077888002584823e-01 2.740241355912534260e+01
1.295483376969238654e-01 3.327572488312142696e+01
1.305888865935892484e-01 4.116833930807447217e+01
1.316294354902546315e-01 4.855634244785562714e+01
1.326699843869200146e-01 5.588536017901760289e+01
1.337105332835853977e-01 6.244540277273016926e+01
1.347510821802507808e-01 6.545964508435758944e+01
1.357916310769161639e-01 6.151809380343665623e+01
1.368321799735815469e-01 5.194165100664741885e+01
1.378727288702469300e-01 4.196511231586936930e+01
1.389132777669123131e-01 3.411903605700361197e+01
1.399538266635776962e-01 2.890129658147488811e+01
1.409943755602430793e-01 2.447504074562052523e+01
1.420349244569084624e-01 1.902179818133100042e+01
1.430754733535738454e-01 1.492631648073886907e+01
1.441160222502392285e-01 1.150640919400674989e+01
1.451565711469046116e-01 8.949960006673684632e+00
1.461971200435699947e-01 7.167599859406827534e+00
1.472376689402353778e-01 5.899947837388829441e+00
1.482782178369007609e-01 4.655903342290727664e+00
1.493187667335661439e-01 4.063966381876468859e+00
1.503593156302315270e-01 3.704840138903890079e+00
1.513998645268969101e-01 3.224212633193658917e+00
1.524404134235622932e-01 2.964896285037383450e+00
1.534809623202276763e-01 2.753937836649022586e+00
1.545215112168930593e-01 2.182999392606753020e+00
1.555620601135584424e-01 2.250488333990915635e+00
1.566026090102238255e-01 2.432502153127053646e+00
1.576431579068892086e-01 2.380967206676430692e+00
1.586837068035545917e-01 2.016373043641500828e+00
1.597242557002199748e-01 1.815284995000261858e+00
1.607648045968853578e-01 1.994267002339860539e+00
1.618053534935507409e-01 1.671717607318200294e+00
1.628459023902161240e-01 1.645139156570564865e+00
1.638864512868815071e-01 1.476067171572374548e+00
1.649270001835468902e-01 1.790124772445786050e+00
1.659675490802122733e-01 1.983610289925145764e+00
1.670080979768776563e-01 2.361428323404702212e+00
1.680486468735430672e-01 2.384595589286739425e+00
1.690891957702084503e-01 2.846295581396276475e+00
1.701297446668738333e-01 3.279562621933095556e+00
1.711702935635392164e-01 3.415015672648657130e+00
1.722108424602045995e-01 3.784576890616420997e+00
1.732513913568699826e-01 4.507600519641435710e+00
1.742919402535353657e-01 5.155043701936165235e+00
1.753324891502007488e-01 5.652599012919957033e+00
1.763730380468661318e-01 6.571098558040809223e+00
1.774135869435315149e-01 7.348765379947046483e+00
1.784541358401968980e-01 7.566431154696779515e+00
1.794946847368622811e-01 7.429010914926365672e+00
1.805352336335276642e-01 7.462138208376096316e+00
1.815757825301930473e-01 7.503299737288578797e+00
1.826163314268584303e-01 7.092953535610966753e+00
1.836568803235238134e-01 6.347505642284673399e+00
1.846974292201891965e-01 5.284413231470495020e+00
1.857379781168545796e-01 4.809283957417790134e+00
1.867785270135199627e-01 4.549165246617448588e+00
1.878190759101853458e-01 3.907984033609565699e+00
1.888596248068507288e-01 3.652156837068666562e+00
1.899001737035161119e-01 3.980421093855561310e+00
1.909407226001814950e-01 4.067778818390777928e+00
1.919812714968468781e-01 4.290457462723402671e+00
1.930218203935122612e-01 4.186523790231596820e+00
1.940623692901776443e-01 4.266109695737476670e+00
1.951029181868430273e-01 4.593176128977454198e+00
1.961434670835084104e-01 4.822616152366506981e+00
1.971840159801737935e-01 5.046096158287447508e+00
1.982245648768391766e-01 5.095779448005657741e+00
1.992651137735045597e-01 5.583687859600473757e+00
2.003056626701699428e-01 5.477239418482326982e+00
2.013462115668353813e-01 5.217158124280445008e+00
2.023867604635007644e-01 4.534750882832703667e+00
2.034273093601661475e-01 4.009361600617268095e+00
2.044678582568315306e-01 3.826822677256231486e+00
2.055084071534969137e-01 3.637806967414668691e+00
2.065489560501622968e-01 3.558701019557922507e+00
2.075895049468276798e-01 3.380610418742399759e+00
2.086300538434930629e-01 3.385748179134431268e+00
2.096706027401584460e-01 3.288528002423948493e+00
2.107111516368238291e-01 3.309634984709848737e+00
2.117517005334892122e-01 3.316025397888974879e+00
2.127922494301545953e-01 3.034349384022128504e+00
2.138327983268199783e-01 2.730869771829127046e+00
2.148733472234853614e-01 2.434145194842876947e+00
2.159138961201507445e-01 2.000697039292642643e+00
2.169544450168161276e-01 1.618847302516240205e+00
2.179949939134815107e-01 1.249731094213860416e+00
2.190355428101468938e-01 1.365300134088798245e+00
2.200760917068122768e-01 1.423080732109788471e+00
2.211166406034776599e-01 1.335931969186518131e+00
2.221571895001430430e-01 1.275082138937879250e+00
2.231977383968084261e-01 1.019117924483960991e+00
2.242382872934738092e-01 1.265823817143008512e+00
2.252788361901391923e-01 1.343791798668533488e+00
2.263193850868045753e-01 1.075713153654927368e+00
2.273599339834699584e-01 1.058794482552023908e+00
2.284004828801353415e-01 9.616906309517503360e-01
2.294410317768007246e-01 1.026641589285976153e+00
2.304815806734661077e-01 1.036181390349188547e+00
2.315221295701314908e-01 1.404977012651986712e+00
2.325626784667968738e-01 1.396053476665606752e+00
2.336032273634622569e-01 1.343572932778549500e+00
2.346437762601276400e-01 1.271437168561494246e+00
2.356843251567930231e-01 9.554054170211045971e-01
2.367248740534584062e-01 1.002692083446053317e+00
2.377654229501237892e-01 1.450504866652337910e+00
2.388059718467891723e-01 1.505275711100004798e+00
2.398465207434545554e-01 1.170666750898519126e+00
2.408870696401199385e-01 1.377618078945609170e+00
2.419276185367853216e-01 1.463982954250166557e+00
2.429681674334507047e-01 1.324446131722126552e+00
2.440087163301160877e-01 1.094969871798362249e+00
2.450492652267814708e-01 1.183899191069311740e+00
2.460898141234468539e-01 1.474004441779161567e+00
2.471303630201122370e-01 1.428825765243356472e+00
2.481709119167776201e-01 1.217824135930985818e+00
2.492114608134430032e-01 1.403831392876465856e+00
2.502520097101083585e-01 1.443578668692467204e+00
2.512925586067737416e-01 1.464793050266820273e+00
2.523331075034391247e-01 1.543120972905349220e+00
2.533736564001045077e-01 1.173268284182245935e+00
2.544142052967698908e-01 1.260560023111647610e+00
2.554547541934352739e-01 1.410451232082529316e+00
2.564953030901006570e-01 1.356492867038607386e+00
2.575358519867660401e-01 1.324579038614391635e+00
2.585764008834314231e-01 1.249507350137303519e+00
2.596169497800968062e-01 1.441219136166846937e+00
2.606574986767621893e-01 1.355921871496992281e+00
2.616980475734275724e-01 1.360311072204822835e+00
2.627385964700929555e-01 1.378869696437703851e+00
2.637791453667583386e-01 1.672039804856265022e+00
2.648196942634237216e-01 1.343748550331707037e+00
2.658602431600891047e-01 1.172888091247273223e+00
2.669007920567544878e-01 1.471683009601527203e+00
2.679413409534198709e-01 1.616573405366217742e+00
2.689818898500852540e-01 1.410718982542519484e+00
2.700224387467506371e-01 1.447975984972313057e+00
2.710629876434160201e-01 1.307221494924942107e+00
2.721035365400814032e-01 1.136705578703224973e+00
2.731440854367467863e-01 1.324111686684528166e+00
2.741846343334121694e-01 1.233673565807535510e+00
2.752251832300775525e-01 9.321001324703779289e-01
2.762657321267429356e-01 8.684463826751525062e-01
2.773062810234083186e-01 7.458297357142669171e-01
2.783468299200737017e-01 7.086800641530572875e-01
2.793873788167390848e-01 7.261749659449243666e-01
2.804279277134044679e-01 8.258025061288449820e-01
2.814684766100698510e-01 7.958104732541428916e-01
2.825090255067352341e-01 6.311588851844014414e-01
2.835495744034006171e-01 7.474448091196315147e-01
2.845901233000660002e-01 8.077655667763465885e-01
2.856306721967313833e-01 8.324166680096425353e-01
2.866712210933967664e-01 9.179441132276977555e-01
2.877117699900621495e-01 7.666169512427281063e-01
2.887523188867275326e-01 8.411719224027223163e-01
2.897928677833929156e-01 7.709591681800418428e-01
2.908334166800582987e-01 6.904617360467391052e-01
2.918739655767236818e-01 4.899764695824231353e-01
2.929145144733890649e-01 3.267469760374979160e-01
2.939550633700544480e-01 4.810297201185704807e-01
2.949956122667198311e-01 6.900061120189846520e-01
2.960361611633852141e-01 7.757395127788271338e-01
2.970767100600505972e-01 7.030048175032206359e-01
2.981172589567159803e-01 7.215903221582742333e-01
2.991578078533813634e-01 7.249552767171145717e-01
3.001983567500468020e-01 5.429677600711819707e-01
3.012389056467121851e-01 7.803602505155815550e-01
3.022794545433775681e-01 8.256405727266304950e-01
3.033200034400429512e-01 4.918973750289445945e-01
3.043605523367083343e-01 4.511597145333823278e-01
3.054011012333737174e-01 5.714352673196643195e-01
3.064416501300391005e-01 5.821209528254662757e-01
3.074821990267044836e-01 5.231629880295329826e-01
3.085227479233698666e-01 8.198875830674410281e-01
3.095632968200352497e-01 6.730380950471968049e-01
3.106038457167006328e-01 7.119266433483772971e-01
3.116443946133660159e-01 5.278464634571129466e-01
3.126849435100313990e-01 3.508806662761259076e-01
3.137254924066967821e-01 2.873969514775609468e-01
3.147660413033621651e-01 5.137556573000701121e-01
3.158065902000275482e-01 6.114765000790782778e-01
3.168471390966929313e-01 5.292096648966939654e-01
3.178876879933583144e-01 3.772274597987141931e-01
3.189282368900236975e-01 3.760271204532017464e-01
3.199687857866890806e-01 5.175230515380668805e-01
3.210093346833544636e-01 3.435982632302341244e-01
3.220498835800198467e-01 2.157650157490813569e-01
3.230904324766852298e-01 4.479500716280639949e-01
3.241309813733506129e-01 6.754946196284628002e-01
3.251715302700159960e-01 6.346991751450765662e-01
3.262120791666813790e-01 5.411269002744667489e-01
3.272526280633467621e-01 7.419201224651352788e-01
3.282931769600121452e-01 7.923931314272287807e-01
3.293337258566775283e-01 6.004920504741697584e-01
3.303742747533429114e-01 6.872188212237624327e-01
3.314148236500082945e-01 7.547394712881079215e-01
3.324553725466736775e-01 7.336759385414133305e-01
3.334959214433390606e-01 6.590325272030703729e-01
3.345364703400044437e-01 5.587289395501642275e-01
3.355770192366698268e-01 6.207936986924735834e-01
3.366175681333352099e-01 6.788596802235318250e-01
3.376581170300005930e-01 6.208272784865940253e-01
3.386986659266659760e-01 4.392760169396936476e-01
3.397392148233313591e-01 5.933481697610005767e-01
3.407797637199967422e-01 9.294060548085916196e-01
3.418203126166621253e-01 7.584052513372547821e-01
3.428608615133275084e-01 5.087893294111687226e-01
3.439014104099928915e-01 3.729277036757210340e-01
3.449419593066582745e-01 5.338362421448792361e-01
3.459825082033236576e-01 6.505356937636719294e-01
3.470230570999890407e-01 5.786886451540631526e-01
3.480636059966544238e-01 4.369118038763630807e-01
3.491041548933198069e-01 3.832303277981239376e-01
3.501447037899851900e-01 4.772264273029556136e-01
3.511852526866505730e-01 3.698871012827318339e-01
3.522258015833159561e-01 4.945363971618412791e-01
3.532663504799813392e-01 3.215227465787187100e-01
3.543068993766467223e-01 3.745203895326625343e-01
3.553474482733121054e-01 4.917378624174055801e-01
3.563879971699774885e-01 3.361212058132956315e-01
3.574285460666428715e-01 4.345845461203197146e-01
3.584690949633082546e-01 3.733606307796328849e-01
3.595096438599736377e-01 5.338908329537019881e-01
3.605501927566390208e-01 6.308808124764588854e-01
3.615907416533044039e-01 6.349921545437595682e-01
3.626312905499697870e-01 6.388537805543066384e-01
3.636718394466351700e-01 7.074606484592500522e-01
3.647123883433005531e-01 4.862961209378724448e-01
3.657529372399659362e-01 2.803810490872997718e-01
3.667934861366313193e-01 1.485433805483538094e-01
3.678340350332967024e-01 2.384580317911648706e-01
3.688745839299620854e-01 4.908109895896579644e-01
3.699151328266274685e-01 4.643192489820897606e-01
3.709556817232928516e-01 6.363204466916378976e-01
3.719962306199582347e-01 4.461759735044772412e-01
3.730367795166236178e-01 3.536289322133718827e-01
3.740773284132890009e-01 3.221363994046306800e-01
3.751178773099543839e-01 4.972743849188567822e-01
3.761584262066197670e-01 5.080202613815245627e-01
3.771989751032851501e-01 3.109345534600365113e-01
3.782395239999505332e-01 3.948354500937227840e-01
3.792800728966159163e-01 3.788505454240933545e-01
3.803206217932812994e-01 3.348630749665133521e-01
3.813611706899466824e-01 4.103003955821264981e-01
3.824017195866120655e-01 3.240610626387692150e-01
3.834422684832774486e-01 3.479197538042733129e-01
3.844828173799428317e-01 3.340448120271446442e-01
3.855233662766082148e-01 3.465255380549692177e-01
3.865639151732735979e-01 3.427746045195299018e-01
3.876044640699389809e-01 4.761602596427820799e-01
3.886450129666043640e-01 3.863028872939260339e-01
3.896855618632697471e-01 5.295524102860369453e-01
3.907261107599351302e-01 4.756727183245068602e-01
3.917666596566005133e-01 2.827519953994972468e-01
3.928072085532658964e-01 3.806779928862411566e-01
3.938477574499312794e-01 4.814386925921283478e-01
3.948883063465966625e-01 2.446245419587249614e-01
3.959288552432620456e-01 4.413168269366529728e-01
3.969694041399274287e-01 5.140056175499196911e-01
3.980099530365928118e-01 3.872984974255473389e-01
3.990505019332581949e-01 5.053968420051866417e-01
4.000910508299235779e-01 5.472147839461349861e-01
4.011315997265889610e-01 4.908033121442301194e-01
4.021721486232543441e-01 3.492877039868531597e-01
4.032126975199197272e-01 3.947466279287183966e-01
4.042532464165851103e-01 2.397053349960494018e-01
4.052937953132504934e-01 5.505476185517714782e-01
4.063343442099158764e-01 6.543780732843877956e-01
4.073748931065812595e-01 4.955378527120863907e-01
4.084154420032466426e-01 2.792249716052772612e-01
4.094559908999120257e-01 3.337751810720988033e-01
4.104965397965774088e-01 4.389937188975103766e-01
4.115370886932427918e-01 6.054353734700477219e-01
4.125776375899081749e-01 4.068353040077603566e-01
4.136181864865735580e-01 3.548124553422447036e-01
4.146587353832389411e-01 4.660296116371078767e-01
4.156992842799043242e-01 2.449981305905986062e-01
4.167398331765697073e-01 3.880661281814639096e-01
4.177803820732350903e-01 3.121106435529661383e-01
4.188209309699004734e-01 3.801928743804516841e-01
4.198614798665658565e-01 5.510191087997036163e-01
4.209020287632312396e-01 5.089176550986742598e-01
4.219425776598966227e-01 2.795329209747912103e-01
4.229831265565620058e-01 5.897710587738913546e-02
4.240236754532273888e-01 1.877421802580130361e-01
4.250642243498927719e-01 4.124039457959050026e-01
4.261047732465581550e-01 4.710037905546258230e-01
4.271453221432235381e-01 4.276486854599177434e-01
4.281858710398889212e-01 4.250963975332346934e-01
4.292264199365543043e-01 2.779489327381874375e-01
4.302669688332196873e-01 2.218138142678292013e-01
4.313075177298850704e-01 3.355542894700782597e-01
4.323480666265504535e-01 2.851912311045765591e-01
4.333886155232158366e-01 3.928692948249228323e-01
4.344291644198812197e-01 2.388389342940016036e-01
