# q (1/Angstrom), Intensity (arb)
2.029070354705860696e-02 1.946662346762774405e+02
2.133125244372399004e-02 1.638676021582901114e+02
2.237180134038937659e-02 1.413373462025877814e+02
2.341235023705475968e-02 1.234810383687504611e+02
2.445289913372014276e-02 1.070989731260147266e+02
2.549344803038552584e-02 9.680653653198876896e+01
2.653399692705091240e-02 8.697913719797547571e+01
2.757454582371629548e-02 7.733834839156229179e+01
2.861509472038167856e-02 7.064596320709252097e+01
2.965564361704706164e-02 6.221359817159088834e+01
3.069619251371244473e-02 5.608959932253512193e+01
3.173674141037782781e-02 5.430981501925326427e+01
3.277729030704321089e-02 5.103593846873988582e+01
3.381783920370859398e-02 4.785163481944899644e+01
3.485838810037397706e-02 4.375554523145994779e+01
3.589893699703936014e-02 4.210755165439347536e+01
3.693948589370474322e-02 3.955647669854348436e+01
3.798003479037012631e-02 3.892207004516863833e+01
3.902058368703550939e-02 3.778289229423482709e+01
4.006113258370089247e-02 3.618369577994999986e+01
4.110168148036627556e-02 3.534812810073710665e+01
4.214223037703165864e-02 3.483154878742875127e+01
4.318277927369704866e-02 3.503868200833510826e+01
4.422332817036243174e-02 3.483142006737765684e+01
4.526387706702781483e-02 3.496742519267944971e+01
4.630442596369319791e-02 3.533719602448572061e+01
4.734497486035858099e-02 3.462381666882170350e+01
4.838552375702396408e-02 3.486081742296534003e+01
4.942607265368934716e-02 3.665858020074864498e+01
5.046662155035473024e-02 3.741284264797248937e+01
5.150717044702011332e-02 3.939553961660591597e+01
5.254771934368549641e-02 4.093738385372542865e+01
5.358826824035087949e-02 4.332002110792372918e+01
5.462881713701626257e-02 4.674292156408439780e+01
5.566936603368164566e-02 5.061966380004280808e+01
5.670991493034702874e-02 5.589836882619781022e+01
5.775046382701241182e-02 6.343263824459717171e+01
5.879101272367779490e-02 7.083724261268025657e+01
5.983156162034317799e-02 8.102331842592545286e+01
6.087211051700856107e-02 9.669909071328007144e+01
6.191265941367394415e-02 1.171835263916670300e+02
6.295320831033933417e-02 1.504904863246908917e+02
6.399375720700471726e-02 2.084809234707316250e+02
6.503430610367010034e-02 3.070078147295233748e+02
6.607485500033548342e-02 4.552715373482765244e+02
6.711540389700086651e-02 6.503179578488424113e+02
6.815595279366624959e-02 8.942811543655559490e+02
6.919650169033163267e-02 1.149244183941176061e+03
7.023705058699701576e-02 1.296947199923027028e+03
7.127759948366239884e-02 1.200178491027718337e+03
7.231814838032778192e-02 9.112979896454409072e+02
7.335869727699316500e-02 6.374951001151613355e+02
7.439924617365854809e-02 4.614345654309727820e+02
7.543979507032393117e-02 3.524061306541026966e+02
7.648034396698931425e-02 2.829820737561644250e+02
7.752089286365469734e-02 2.369991899123902499e+02
7.856144176032008042e-02 2.074015090248631736e+02
7.960199065698546350e-02 1.862354857855758894e+02
8.064253955365084658e-02 1.657994192208721529e+02
8.168308845031622967e-02 1.364586443864641865e+02
8.272363734698161275e-02 1.004122153336128349e+02
8.376418624364699583e-02 6.889651511746885149e+01
8.480473514031239279e-02 4.534307321920081790e+01
8.584528403697777588e-02 3.111741455197115158e+01
8.688583293364315896e-02 2.184051450798924066e+01
8.792638183030854204e-02 1.608529191571221872e+01
8.896693072697392513e-02 1.246787804283118106e+01
9.000747962363930821e-02 1.080677345295183045e+01
9.104802852030469129e-02 9.268027480933405116e+00
9.208857741697007437e-02 7.856888555161162913e+00
9.312912631363545746e-02 6.663092608683712115e+00
9.416967521030084054e-02 5.949417237962734362e+00
9.521022410696622362e-02 5.828387909482742657e+00
9.625077300363160671e-02 5.819005184549475018e+00
9.729132190029698979e-02 5.204614343541273058e+00
9.833187079696237287e-02 4.687158982796184148e+00
9.937241969362775595e-02 4.706716830813597596e+00
1.004129685902931390e-01 5.010366818246339449e+00
1.014535174869585221e-01 5.456828679031708873e+00
1.024940663836239052e-01 5.870027665827080909e+00
1.035346152802892883e-01 6.153740502670501655e+00
1.045751641769546714e-01 6.507304304155056229e+00
1.056157130736200545e-01 7.411516190943636673e+00
1.066562619702854375e-01 8.462055162413598453e+00
1.076968108669508206e-01 9.954269234130485700e+00
1.087373597636162037e-01 1.251188669708652412e+01
1.097779086602815868e-01 1.610490021135662175e+01
1.108184575569469699e-01 2.168320615943979135e+01
1.118590064536123529e-01 3.007853267278209586e+01
1.128995553502777360e-01 3.835755670611378321e+01
1.139401042469431191e-01 4.589620058410604031e+01
1.149806531436085022e-01 5.021371421073892094e+01
1.160212020402738853e-01 4.903386879942411269e+01
1.170617509369392684e-01 4.226283399548625397e+01
1.181022998336046514e-01 3.438423873861613345e+01
1.191428487302700345e-01 2.810506560571457157e+01
1.201833976269354176e-01 2.400447048374174841e+01
1.212239465236008007e-01 2.121261315550265891e+01
1.222644954202661838e-01 1.964730738138680977e+01
1.233050443169315669e-01 1.979531407169035617e+01
1.243455932135969499e-01 1.988312685591349549e+01
1.253861421102623330e-01 2.008986471181177080e+01
1.264266910069277161e-01 2.054009412322989192e+01
1.274672399035930992e-01 2.247959058303397484e+01
1.285077888002584823e-01 2.555565976883741541e+01
1.295483376969238654e-01 3.036088076049118456e+01
1.305888865935892484e-01 3.766242376280854387e+01
1.316294354902546315e-01 4.651750396250434250e+01
1.326699843869200146e-01 5.374230949276509506e+01
1.337105332835853977e-01 5.937611986347616266e+01
1.347510821802507808e-01 6.432970342676517816e+01
1.357916310769161639e-01 6.404579077914678464e+01
1.368321799735815469e-01 5.611152939420237118e+01
1.378727288702469300e-01 4.521048800487874786e+01
1.389132777669123131e-01 3.689011540000880984e+01
1.399538266635776962e-01 3.025935921271685913e+01
1.409943755602430793e-01 2.560378000333577830e+01
1.420349244569084624e-01 2.137634368492479098e+01
1.430754733535738454e-01 1.714788377966516464e+01
1.441160222502392285e-01 1.343598165518141485e+01
1.451565711469046116e-01 1.019392027639688791e+01
1.461971200435699947e-01 7.732764644690291789e+00
1.472376689402353778e-01 6.371511432334884262e+00
1.482782178369007609e-01 5.471847950891152834e+00
1.493187667335661439e-01 4.924089316354866241e+00
1.503593156302315270e-01 4.300189314569621502e+00
1.513998645268969101e-01 3.584944302656168702e+00
1.524404134235622932e-01 3.167455197184729343e+00
1.534809623202276763e-01 2.717599629183382604e+00
1.545215112168930593e-01 2.763171685934075583e+00
1.555620601135584424e-01 2.450274579312299750e+00
1.566026090102238255e-01 2.260124847930313763e+00
1.576431579068892086e-01 2.019396428098474416e+00
1.586837068035545917e-01 2.077866974733495908e+00
1.597242557002199748e-01 2.061793722423665542e+00
1.607648045968853578e-01 2.096109925526739914e+00
1.618053534935507409e-01 2.074386413257094830e+00
1.628459023902161240e-01 2.203133063921349333e+00
1.638864512868815071e-01 2.372374099430679451e+00
1.649270001835468902e-01 2.214077419183134054e+00
1.659675490802122733e-01 1.983848523432676814e+00
1.670080979768776563e-01 2.364772165060223585e+00
1.680486468735430672e-01 2.519064282104672259e+00
1.690891957702084503e-01 2.429296448636954153e+00
1.701297446668738333e-01 2.506476193286744092e+00
1.711702935635392164e-01 3.251492658824979287e+00
1.722108424602045995e-01 3.871316066721732341e+00
1.732513913568699826e-01 4.546143125739831703e+00
1.742919402535353657e-01 4.780884389060005901e+00
1.753324891502007488e-01 5.503293196072554849e+00
1.763730380468661318e-01 6.597871310469692219e+00
1.774135869435315149e-01 6.839708091600464002e+00
1.784541358401968980e-01 7.615018900460214013e+00
1.794946847368622811e-01 7.779700230528511895e+00
1.805352336335276642e-01 7.644115072840094172e+00
1.815757825301930473e-01 7.725198521734292001e+00
1.826163314268584303e-01 7.436226051762282907e+00
1.836568803235238134e-01 6.438699710259172093e+00
1.846974292201891965e-01 5.504149317668705521e+00
1.857379781168545796e-01 4.833715791767794201e+00
1.867785270135199627e-01 4.382889694235068134e+00
1.878190759101853458e-01 4.026667306002501334e+00
1.888596248068507288e-01 4.170397551995570495e+00
1.899001737035161119e-01 4.330842654907414158e+00
1.909407226001814950e-01 3.851027726135662022e+00
1.919812714968468781e-01 3.858085753087785008e+00
1.930218203935122612e-01 4.463935017156934748e+00
1.940623692901776443e-01 4.510428726764494911e+00
1.951029181868430273e-01 4.533929672063536032e+00
1.961434670835084104e-01 4.652396234256549690e+00
1.971840159801737935e-01 4.924527184039796168e+00
1.982245648768391766e-01 5.290141998085474029e+00
1.992651137735045597e-01 5.608274706850735924e+00
2.003056626701699428e-01 5.220856876475721720e+00
2.013462115668353813e-01 4.963776639858686224e+00
2.023867604635007644e-01 4.763012639663585901e+00
2.034273093601661475e-01 4.252674795697597432e+00
2.044678582568315306e-01 4.229356702419096337e+00
2.055084071534969137e-01 3.936040594326271957e+00
2.065489560501622968e-01 3.756286013862421669e+00
2.075895049468276798e-01 3.844732427445464396e+00
2.086300538434930629e-01 3.714321893279333153e+00
2.096706027401584460e-01 3.515151391069633036e+00
2.107111516368238291e-01 3.602257878292675741e+00
2.117517005334892122e-01 3.497513324278763491e+00
2.127922494301545953e-01 3.313297396484088608e+00
2.138327983268199783e-01 3.098293679522306832e+00
2.148733472234853614e-01 2.578312660260987599e+00
2.159138961201507445e-01 2.098571667536219820e+00
2.169544450168161276e-01 1.817589747372998943e+00
2.179949939134815107e-01 1.571590539519966967e+00
2.190355428101468938e-01 1.250922632478605578e+00
2.200760917068122768e-01 1.426518538805812142e+00
2.211166406034776599e-01 1.187661987289832410e+00
2.221571895001430430e-01 8.001140179194230484e-01
2.231977383968084261e-01 7.322766149831814175e-01
2.242382872934738092e-01 1.325193980218202228e+00
2.252788361901391923e-01 1.147316287205889296e+00
2.263193850868045753e-01 8.518035158354457792e-01
2.273599339834699584e-01 1.046607398404994171e+00
2.284004828801353415e-01 9.506316213926773173e-01
2.294410317768007246e-01 1.003383115872527043e+00
2.304815806734661077e-01 9.054088457355859987e-01
2.315221295701314908e-01 9.136606203328838660e-01
2.325626784667968738e-01 1.053277802570981692e+00
2.336032273634622569e-01 1.148660678999068097e+00
2.346437762601276400e-01 9.698408654310028965e-01
2.356843251567930231e-01 9.580732979795989479e-01
2.367248740534584062e-01 1.327945032902647426e+00
2.377654229501237892e-01 1.483934545659710835e+00
2.388059718467891723e-01 1.241631722803866467e+00
2.398465207434545554e-01 1.571869265293599938e+00
2.408870696401199385e-01 1.467825805321062660e+00
2.419276185367853216e-01 1.462782242042511172e+00
2.429681674334507047e-01 1.393928375328599145e+00
2.440087163301160877e-01 1.230685478453466430e+00
2.450492652267814708e-01 1.222187700324930404e+00
2.460898141234468539e-01 1.446378786297842112e+00
2.471303630201122370e-01 1.566524355088819931e+00
2.481709119167776201e-01 1.663196712519138032e+00
2.492114608134430032e-01 1.487438888665000292e+00
2.502520097101083585e-01 1.228308139129556054e+00
2.512925586067737416e-01 1.396543466290754765e+00
2.523331075034391247e-01 1.264073876511517369e+00
2.533736564001045077e-01 1.338535154930283966e+00
2.544142052967698908e-01 1.327972397670496463e+00
2.554547541934352739e-01 1.526119250148738615e+00
2.564953030901006570e-01 1.797758306969264197e+00
2.575358519867660401e-01 1.593759740544296477e+00
2.585764008834314231e-01 1.349515696277709509e+00
2.596169497800968062e-01 1.492944204821355925e+00
2.606574986767621893e-01 1.619109206418006153e+00
2.616980475734275724e-01 1.567259920399578732e+00
2.627385964700929555e-01 1.515947463972182163e+00
2.637791453667583386e-01 1.749015837486023628e+00
2.648196942634237216e-01 1.660945358124823912e+00
2.658602431600891047e-01 1.627039987007655952e+00
2.669007920567544878e-01 1.534875313581984813e+00
2.679413409534198709e-01 1.237628490287487892e+00
2.689818898500852540e-01 1.496865769828971793e+00
2.700224387467506371e-01 1.621023117714912587e+00
2.710629876434160201e-01 1.497990722570676780e+00
2.721035365400814032e-01 1.279831743649175735e+00
2.731440854367467863e-01 1.349688553361566790e+00
2.741846343334121694e-01 1.282186057031406534e+00
2.752251832300775525e-01 8.187661444423781631e-01
2.762657321267429356e-01 1.391938965273524786e-01
2.773062810234083186e-01 3.728317705917731928e-01
2.783468299200737017e-01 2.602154696989238403e-01
2.793873788167390848e-01 9.681064611442771195e-01
2.804279277134044679e-01 1.080132429038016539e+00
2.814684766100698510e-01 7.292056344824011660e-01
2.825090255067352341e-01 7.610114831900460786e-01
2.835495744034006171e-01 8.518419577980331781e-01
2.845901233000660002e-01 8.551990821254307207e-01
2.856306721967313833e-01 8.692047034490748558e-01
2.866712210933967664e-01 6.305045467990950669e-01
2.877117699900621495e-01 8.313082037313321848e-01
2.887523188867275326e-01 1.185451125363126579e+00
2.897928677833929156e-01 1.132568199127508279e+00
2.908334166800582987e-01 1.213529141239209963e+00
2.918739655767236818e-01 1.167611091687696501e+00
2.929145144733890649e-01 9.043842887610757941e-01
2.939550633700544480e-01 6.358424935405828649e-01
2.949956122667198311e-01 6.797708357383953626e-01
2.960361611633852141e-01 6.846293650008981047e-01
2.970767100600505972e-01 6.208973901574985632e-01
2.981172589567159803e-01 6.826002057133813139e-01
2.991578078533813634e-01 6.059639999665549226e-01
3.001983567500468020e-01 5.634886492144524084e-01
3.012389056467121851e-01 5.779084451965097458e-01
3.022794545433775681e-01 6.777382788938304259e-01
3.033200034400429512e-01 7.280743114887009426e-01
3.043605523367083343e-01 7.114348790946394274e-01
3.054011012333737174e-01 6.742439554910433230e-01
3.064416501300391005e-01 5.771344074760342835e-01
3.074821990267044836e-01 5.545084459522371390e-01
3.085227479233698666e-01 1.118345393349688521e+00
3.095632968200352497e-01 9.920356227947841887e-01
3.106038457167006328e-01 8.247927614289345399e-01
3.116443946133660159e-01 6.112840004312189990e-01
3.126849435100313990e-01 6.119452007485435274e-01
3.137254924066967821e-01 5.957442697934212106e-01
3.147660413033621651e-01 6.247807366583053579e-01
3.158065902000275482e-01 6.535194220284630262e-01
3.168471390966929313e-01 4.938204488748105803e-01
3.178876879933583144e-01 4.754800965961685222e-01
3.189282368900236975e-01 4.302131559969133434e-01
3.199687857866890806e-01 6.468480035046795251e-01
3.210093346833544636e-01 5.313082748035071745e-01
3.220498835800198467e-01 5.735519937056636763e-01
3.230904324766852298e-01 7.169813872418586698e-01
3.241309813733506129e-01 7.797757832711234016e-01
3.251715302700159960e-01 8.457679513444702479e-01
3.262120791666813790e-01 7.582169884242766500e-01
3.272526280633467621e-01 6.722299699515872362e-01
3.282931769600121452e-01 6.149855091790712436e-01
3.293337258566775283e-01 6.636203501990571851e-01
3.303742747533429114e-01 4.639010868480184513e-01
3.314148236500082945e-01 4.823967080290820775e-01
3.324553725466736775e-01 4.528479553477851027e-01
3.334959214433390606e-01 7.127039491492936918e-01
3.345364703400044437e-01 7.379255409568017399e-01
3.355770192366698268e-01 5.867034548429117535e-01
3.366175681333352099e-01 6.854409555611979954e-01
3.376581170300005930e-01 6.173023540672346599e-01
3.386986659266659760e-01 4.739663743317699129e-01
3.397392148233313591e-01 6.635327917524236341e-01
3.407797637199967422e-01 6.859804787504018009e-01
3.418203126166621253e-01 4.979128413133615538e-01
3.428608615133275084e-01 4.359609037169036583e-01
3.439014104099928915e-01 6.131388628790404027e-01
3.449419593066582745e-01 4.036736357782686468e-01
3.459825082033236576e-01 4.074134782293334922e-01
3.470230570999890407e-01 5.221951714467287786e-01
3.480636059966544238e-01 3.504662016358572885e-01
3.491041548933198069e-01 3.568805519187492337e-01
3.501447037899851900e-01 5.197310072276266624e-01
3.511852526866505730e-01 5.052912172810266611e-01
3.522258015833159561e-01 5.840710187444173584e-01
3.532663504799813392e-01 6.634244901988601839e-01
3.543068993766467223e-01 6.672480978042010236e-01
3.553474482733121054e-01 5.837580822174111006e-01
3.563879971699774885e-01 5.948531716798548530e-01
3.574285460666428715e-01 7.506728769582942107e-01
3.584690949633082546e-01 5.448630899932815908e-01
3.595096438599736377e-01 4.566656339274857146e-01
3.605501927566390208e-01 4.783303207400244617e-01
3.615907416533044039e-01 5.634501280585553218e-01
3.626312905499697870e-01 3.974309649160900904e-01
3.636718394466351700e-01 2.799684672953794973e-01
3.647123883433005531e-01 3.879283295878472870e-01
3.657529372399659362e-01 4.042100810736073413e-01
3.667934861366313193e-01 3.901399937864979961e-01
3.678340350332967024e-01 2.053354955144044425e-01
3.688745839299620854e-01 1.984026440276167591e-01
3.699151328266274685e-01 1.316464717888798930e-01
3.709556817232928516e-01 2.453908382000484778e-01
3.719962306199582347e-01 2.607373580224390253e-01
3.730367795166236178e-01 3.309446307040886381e-01
3.740773284132890009e-01 1.425856728370753501e-01
3.751178773099543839e-01 4.054613406948703869e-02
3.761584262066197670e-01 2.766370047268651433e-01
3.771989751032851501e-01 2.372920179314945699e-01
3.782395239999505332e-01 3.712818906722255008e-01
3.792800728966159163e-01 3.391739252812335792e-01
3.803206217932812994e-01 1.911055971174739909e-01
3.813611706899466824e-01 2.299169623209813551e-01
3.824017195866120655e-01 5.053217187913503494e-01
3.834422684832774486e-01 4.421578921874598223e-01
3.844828173799428317e-01 2.968553834015494886e-01
3.855233662766082148e-01 3.240401463404971594e-01
3.865639151732735979e-01 3.325281456872133390e-01
3.876044640699389809e-01 2.259141980926457904e-01
3.886450129666043640e-01 2.706228900652263292e-01
3.896855618632697471e-01 2.802598993411606898e-01
3.907261107599351302e-01 2.979907521061555542e-01
3.917666596566005133e-01 3.826663082952848072e-01
3.928072085532658964e-01 2.808459403581409219e-01
3.938477574499312794e-01 4.731393218464532424e-01
3.948883063465966625e-01 5.275561573481972744e-01
3.959288552432620456e-01 3.072673049794900635e-01
3.969694041399274287e-01 3.547694452355294459e-01
3.980099530365928118e-01 5.124360676629642342e-01
3.990505019332581949e-01 5.830290073835584508e-01
4.000910508299235779e-01 4.202513114960915175e-01
4.011315997265889610e-01 4.649458824884469266e-01
4.021721486232543441e-01 5.756150433870601546e-01
4.032126975199197272e-01 5.197518997084316084e-01
4.042532464165851103e-01 4.308721576068563763e-01
4.052937953132504934e-01 3.169018961924052746e-01
4.063343442099158764e-01 2.474553612830661109e-01
4.073748931065812595e-01 2.115435955117632716e-01
4.084154420032466426e-01 2.449714554209236894e-01
4.094559908999120257e-01 4.775298267432717125e-01
4.104965397965774088e-01 2.385350625763820176e-01
4.115370886932427918e-01 9.325385658213036777e-02
4.125776375899081749e-01 1.851801331496361058e-02
4.136181864865735580e-01 2.533073520710189541e-01
4.146587353832389411e-01 3.766162217748991736e-01
4.156992842799043242e-01 6.421434615621883779e-01
4.167398331765697073e-01 4.856385344629110534e-01
4.177803820732350903e-01 7.512051288647469960e-02
4.188209309699004734e-01 1.207389888501104735e-01
4.198614798665658565e-01 6.692350111725886563e-02
4.209020287632312396e-01 2.878124128942545212e-01
4.219425776598966227e-01 2.360723422433288476e-01
4.229831265565620058e-01 2.279876000650027379e-01
4.240236754532273888e-01 3.265227618238668583e-01
4.250642243498927719e-01 2.240211270231142748e-01
4.261047732465581550e-01 3.441165007216859806e-01
4.271453221432235381e-01 3.655296534919934004e-01
4.281858710398889212e-01 3.356882297602510334e-01
4.292264199365543043e-01 2.273062352485588633e-01
4.302669688332196873e-01 1.434487309028611435e-01
4.313075177298850704e-01 4.011861523571624843e-02
4.323480666265504535e-01 2.503512019490763407e-01
4.333886155232158366e-01 5.078396477357962624e-01
4.344291644198812197e-01 3.298733876148709498e-01
