# q (1/Angstrom), Intensity (arb)
2.029070354705860696e-02 1.998429692486977274e+02
2.133125244372399004e-02 1.696340491748761394e+02
2.237180134038937659e-02 1.459765622720045997e+02
2.341235023705475968e-02 1.273075788690732963e+02
2.445289913372014276e-02 1.127745213747894582e+02
2.549344803038552584e-02 1.010045755212042025e+02
2.653399692705091240e-02 9.052029076131398710e+01
2.757454582371629548e-02 8.208585944194865647e+01
2.861509472038167856e-02 7.206533403067906818e+01
2.965564361704706164e-02 6.376171821531852402e+01
3.069619251371244473e-02 6.071100701099273067e+01
3.173674141037782781e-02 5.706058447758324803e+01
3.277729030704321089e-02 5.151751317565553734e+01
3.381783920370859398e-02 4.636917047034042128e+01
3.485838810037397706e-02 4.357630554295663217e+01
3.589893699703936014e-02 4.257672787742454545e+01
3.693948589370474322e-02 4.223468848590601965e+01
3.798003479037012631e-02 4.033699919179763782e+01
3.902058368703550939e-02 3.781053475485161641e+01
4.006113258370089247e-02 3.737985017972485480e+01
4.110168148036627556e-02 3.689662439200153443e+01
4.214223037703165864e-02 3.581383390953754287e+01
4.318277927369704866e-02 3.594985079288667862e+01
4.422332817036243174e-02 3.489032108967155921e+01
4.526387706702781483e-02 3.444097579369623929e+01
4.630442596369319791e-02 3.540844391384774070e+01
4.734497486035858099e-02 3.668194958744054901e+01
4.838552375702396408e-02 3.768290164697831557e+01
4.942607265368934716e-02 3.739628870600179766e+01
5.046662155035473024e-02 3.846234936393835113e+01
5.150717044702011332e-02 4.101519952203302921e+01
5.254771934368549641e-02 4.347587746365131522e+01
5.358826824035087949e-02 4.734752245793538350e+01
5.462881713701626257e-02 5.018549447244235040e+01
5.566936603368164566e-02 5.478636646085213613e+01
5.670991493034702874e-02 6.206290288154761470e+01
5.775046382701241182e-02 6.884297980954126217e+01
5.879101272367779490e-02 7.900171077102208983e+01
5.983156162034317799e-02 9.330743124466064842e+01
6.087211051700856107e-02 1.122030402729372156e+02
6.191265941367394415e-02 1.402961520004828344e+02
6.295320831033933417e-02 1.908777057615863271e+02
6.399375720700471726e-02 2.797819750342699194e+02
6.503430610367010034e-02 4.176428172511681964e+02
6.607485500033548342e-02 6.076271288571472269e+02
6.711540389700086651e-02 8.458902687480945133e+02
6.815595279366624959e-02 1.118289023371159601e+03
6.919650169033163267e-02 1.309342243282568234e+03
7.023705058699701576e-02 1.268027701670535862e+03
7.127759948366239884e-02 9.988277467316636375e+02
7.231814838032778192e-02 7.018880477807647367e+02
7.335869727699316500e-02 4.977057874594781879e+02
7.439924617365854809e-02 3.758453047217745393e+02
7.543979507032393117e-02 2.981952266719932254e+02
7.648034396698931425e-02 2.467538700317705889e+02
7.752089286365469734e-02 2.131119221632280301e+02
7.856144176032008042e-02 1.895389787701082867e+02
7.960199065698546350e-02 1.670485366587534486e+02
8.064253955365084658e-02 1.390562979371312053e+02
8.168308845031622967e-02 1.033467312383359626e+02
8.272363734698161275e-02 6.955357435634952878e+01
8.376418624364699583e-02 4.589087903736366059e+01
8.480473514031239279e-02 3.066618180002086547e+01
8.584528403697777588e-02 2.181106240519782347e+01
8.688583293364315896e-02 1.618349203815329673e+01
8.792638183030854204e-02 1.242781178679834397e+01
8.896693072697392513e-02 1.004894225058660595e+01
9.000747962363930821e-02 8.448852120158015566e+00
9.104802852030469129e-02 6.980623606863176178e+00
9.208857741697007437e-02 6.476873487505976357e+00
9.312912631363545746e-02 5.867196854329726818e+00
9.416967521030084054e-02 5.156528309711966074e+00
9.521022410696622362e-02 4.975027814763720357e+00
9.625077300363160671e-02 5.259885636637342543e+00
9.729132190029698979e-02 5.081869912205256412e+00
9.833187079696237287e-02 5.041627976191122684e+00
9.937241969362775595e-02 5.341726551768616105e+00
1.004129685902931390e-01 5.519486347576638252e+00
1.014535174869585221e-01 5.828951146612176615e+00
1.024940663836239052e-01 5.904381945157233247e+00
1.035346152802892883e-01 7.038501121823010465e+00
1.045751641769546714e-01 8.500531500746554059e+00
1.056157130736200545e-01 9.587941450881608318e+00
1.066562619702854375e-01 1.064826902383452278e+01
1.076968108669508206e-01 1.358030811651465797e+01
1.087373597636162037e-01 1.775738349604480959e+01
1.097779086602815868e-01 2.456767119287628276e+01
1.108184575569469699e-01 3.414540844107673934e+01
1.118590064536123529e-01 4.372776621085512971e+01
1.128995553502777360e-01 5.146074311472229112e+01
1.139401042469431191e-01 5.538090878867267008e+01
1.149806531436085022e-01 5.316268550069872134e+01
1.160212020402738853e-01 4.436121473501968637e+01
1.170617509369392684e-01 3.563289670771199980e+01
1.181022998336046514e-01 2.931758483246633773e+01
1.191428487302700345e-01 2.507667070862395065e+01
1.201833976269354176e-01 2.238862579556419519e+01
1.212239465236008007e-01 2.060255813394558544e+01
1.222644954202661838e-01 2.040899644591199547e+01
1.233050443169315669e-01 2.062430725705775814e+01
1.243455932135969499e-01 2.095473595596838834e+01
1.253861421102623330e-01 2.219584979112453027e+01
1.264266910069277161e-01 2.442584203822637789e+01
1.274672399035930992e-01 2.763783757218251225e+01
1.285077888002584823e-01 3.350857816092412378e+01
1.295483376969238654e-01 4.249982150417731930e+01
1.305888865935892484e-01 5.177094661962139099e+01
1.316294354902546315e-01 5.886474505764240206e+01
1.326699843869200146e-01 6.385205582384283218e+01
1.337105332835853977e-01 6.659250049641792657e+01
1.347510821802507808e-01 6.153390405674259256e+01
1.357916310769161639e-01 5.113251308700398567e+01
1.368321799735815469e-01 4.128513637667219172e+01
1.378727288702469300e-01 3.450051373360244611e+01
1.389132777669123131e-01 2.879515581746328934e+01
1.399538266635776962e-01 2.398500179084149408e+01
1.409943755602430793e-01 1.850979672395323661e+01
1.420349244569084624e-01 1.371483269640318525e+01
1.430754733535738454e-01 1.059173125011278671e+01
1.441160222502392285e-01 8.740257754730727413e+00
1.451565711469046116e-01 7.426071207572412902e+00
1.461971200435699947e-01 5.704929289690767291e+00
1.472376689402353778e-01 4.721726209752041825e+00
1.482782178369007609e-01 4.273345168185443299e+00
1.493187667335661439e-01 3.782142749204304266e+00
1.503593156302315270e-01 2.833708806306319161e+00
1.513998645268969101e-01 2.651121808300608507e+00
1.524404134235622932e-01 2.247002022332445392e+00
1.534809623202276763e-01 1.921945390449216973e+00
1.545215112168930593e-01 2.062885148981806083e+00
1.555620601135584424e-01 2.364369523309349574e+00
1.566026090102238255e-01 2.167923543502602968e+00
1.576431579068892086e-01 2.348008201692621810e+00
1.586837068035545917e-01 2.422282832156085419e+00
1.597242557002199748e-01 2.096652989217695051e+00
1.607648045968853578e-01 2.192116717184021013e+00
1.618053534935507409e-01 1.874007476383631854e+00
1.628459023902161240e-01 1.749515409030792057e+00
1.638864512868815071e-01 1.970371642167997095e+00
1.649270001835468902e-01 2.092903154666529986e+00
1.659675490802122733e-01 2.345207921082007374e+00
1.670080979768776563e-01 2.701218767809670851e+00
1.680486468735430672e-01 3.122154499249752746e+00
1.690891957702084503e-01 3.597946832467755485e+00
1.701297446668738333e-01 3.981220316018635685e+00
1.711702935635392164e-01 4.265080107487847272e+00
1.722108424602045995e-01 4.796476881327002673e+00
1.732513913568699826e-01 5.970516787991869023e+00
1.742919402535353657e-01 6.643276151311205524e+00
1.753324891502007488e-01 7.199325398487054883e+00
1.763730380468661318e-01 7.936643502841334907e+00
1.774135869435315149e-01 8.099824100073000466e+00
1.784541358401968980e-01 8.210083026576171505e+00
1.794946847368622811e-01 7.876400915286737359e+00
1.805352336335276642e-01 7.405034542374984596e+00
1.815757825301930473e-01 6.276862933317026716e+00
1.826163314268584303e-01 5.728744877835545424e+00
1.836568803235238134e-01 5.101788532182432334e+00
1.846974292201891965e-01 4.849429758737962004e+00
1.857379781168545796e-01 4.681408939058087526e+00
1.867785270135199627e-01 4.109289225231826492e+00
1.878190759101853458e-01 3.714538598473062336e+00
1.888596248068507288e-01 3.582814033380849139e+00
1.899001737035161119e-01 3.765196936102093161e+00
1.909407226001814950e-01 4.056369211807215436e+00
1.919812714968468781e-01 4.331244472183193750e+00
1.930218203935122612e-01 5.041641409043592148e+00
1.940623692901776443e-01 5.452486106907898034e+00
1.951029181868430273e-01 5.429663920867639604e+00
1.961434670835084104e-01 5.780142239631956613e+00
1.971840159801737935e-01 5.823764361606208695e+00
1.982245648768391766e-01 5.591897797692617189e+00
1.992651137735045597e-01 4.997581807642937690e+00
2.003056626701699428e-01 5.130950040112146837e+00
2.013462115668353813e-01 4.621817170747689829e+00
2.023867604635007644e-01 4.039282098526470577e+00
2.034273093601661475e-01 3.728683791028558403e+00
2.044678582568315306e-01 3.356599507237149282e+00
2.055084071534969137e-01 3.287886616016045593e+00
2.065489560501622968e-01 3.432959227987772977e+00
2.075895049468276798e-01 3.795942817945224590e+00
2.086300538434930629e-01 3.746742663541255070e+00
2.096706027401584460e-01 3.336862411415651763e+00
2.107111516368238291e-01 2.704116044381727590e+00
2.117517005334892122e-01 2.326540056554023295e+00
2.127922494301545953e-01 2.102477215501657781e+00
2.138327983268199783e-01 1.620707990485200867e+00
2.148733472234853614e-01 1.651700414167386555e+00
2.159138961201507445e-01 1.532176847570688949e+00
2.169544450168161276e-01 1.352838146327954405e+00
2.179949939134815107e-01 1.236725447632082364e+00
2.190355428101468938e-01 1.579488827828868125e+00
2.200760917068122768e-01 1.247771090888889489e+00
2.211166406034776599e-01 6.115958590527270644e-01
2.221571895001430430e-01 6.581419043566896221e-01
2.231977383968084261e-01 9.676129017548120714e-01
2.242382872934738092e-01 1.132050079958844435e+00
2.252788361901391923e-01 9.573785044732332494e-01
2.263193850868045753e-01 9.139394004836489671e-01
2.273599339834699584e-01 7.404463655860027416e-01
2.284004828801353415e-01 7.023480155960371007e-01
2.294410317768007246e-01 1.006061046427596750e+00
2.304815806734661077e-01 1.609678628740539352e+00
2.315221295701314908e-01 1.637234499868938542e+00
2.325626784667968738e-01 1.096649228085595951e+00
2.336032273634622569e-01 1.026100388639456185e+00
2.346437762601276400e-01 1.450755786716101170e+00
2.356843251567930231e-01 1.872867240569473068e+00
2.367248740534584062e-01 1.851661784874604422e+00
2.377654229501237892e-01 1.529511965861487965e+00
2.388059718467891723e-01 1.712130561206883783e+00
2.398465207434545554e-01 1.738151455805251544e+00
2.408870696401199385e-01 1.447236569421598062e+00
2.419276185367853216e-01 1.494608665656166124e+00
2.429681674334507047e-01 1.405491539760177488e+00
2.440087163301160877e-01 1.227302216594836182e+00
2.450492652267814708e-01 1.428607761797326958e+00
2.460898141234468539e-01 1.217941107558544900e+00
2.471303630201122370e-01 1.331746390500470056e+00
2.481709119167776201e-01 1.577153752469939718e+00
2.492114608134430032e-01 1.368046405769206331e+00
2.502520097101083585e-01 1.232440401881888192e+00
2.512925586067737416e-01 1.195232355639504362e+00
2.523331075034391247e-01 1.425327026417491538e+00
2.533736564001045077e-01 1.672082107859861111e+00
2.544142052967698908e-01 1.572132058338880256e+00
2.554547541934352739e-01 1.476310369458271765e+00
2.564953030901006570e-01 1.766922766824976065e+00
2.575358519867660401e-01 1.730270482915891250e+00
2.585764008834314231e-01 1.542033255960170379e+00
2.596169497800968062e-01 1.789083770359258807e+00
2.606574986767621893e-01 1.726482519139427296e+00
2.616980475734275724e-01 1.576169026089548453e+00
2.627385964700929555e-01 1.676895938647891882e+00
2.637791453667583386e-01 1.273114049245627655e+00
2.648196942634237216e-01 1.225708808956763818e+00
2.658602431600891047e-01 1.459691134544080171e+00
2.669007920567544878e-01 1.286037778286836186e+00
2.679413409534198709e-01 1.502184311844157349e+00
2.689818898500852540e-01 1.124261830513312077e+00
2.700224387467506371e-01 1.067081304120556240e+00
2.710629876434160201e-01 1.145522076724468263e+00
2.721035365400814032e-01 1.202036888389717006e+00
2.731440854367467863e-01 7.791590609305671933e-01
2.741846343334121694e-01 8.363190701798188798e-01
2.752251832300775525e-01 7.511934191320897014e-01
2.762657321267429356e-01 7.215248977937065433e-01
2.773062810234083186e-01 6.806945059317399682e-01
2.783468299200737017e-01 5.503143418938947207e-01
2.793873788167390848e-01 7.718891611744531644e-01
2.804279277134044679e-01 8.182258885041093777e-01
2.814684766100698510e-01 7.122090407836800807e-01
2.825090255067352341e-01 5.326031086161115979e-01
2.835495744034006171e-01 6.924472571787703146e-01
2.845901233000660002e-01 6.430933793009323551e-01
2.856306721967313833e-01 6.430057451575983407e-01
2.866712210933967664e-01 6.155229588889419290e-01
2.877117699900621495e-01 8.440908829767224120e-01
2.887523188867275326e-01 5.619990073301366351e-01
2.897928677833929156e-01 4.097831870394195164e-01
2.908334166800582987e-01 3.941379466795602582e-01
2.918739655767236818e-01 5.447192616509894947e-01
2.929145144733890649e-01 3.475175291175141012e-01
2.939550633700544480e-01 7.960250023110759798e-02
2.949956122667198311e-01 5.291044583905559762e-01
2.960361611633852141e-01 6.222986298250248183e-01
2.970767100600505972e-01 4.793285351606044742e-01
2.981172589567159803e-01 5.192611031619591699e-01
2.991578078533813634e-01 6.159036812307441267e-01
3.001983567500468020e-01 7.336375698529700173e-01
3.012389056467121851e-01 6.691886662701946875e-01
3.022794545433775681e-01 5.683653128348566952e-01
3.033200034400429512e-01 4.943418160859849309e-01
3.043605523367083343e-01 5.511173430565712295e-01
3.054011012333737174e-01 5.299136674493496457e-01
3.064416501300391005e-01 3.499294717883891792e-01
3.074821990267044836e-01 5.029750216901724968e-01
3.085227479233698666e-01 4.245309510389567720e-01
3.095632968200352497e-01 5.709827513574232682e-01
3.106038457167006328e-01 6.456645719236604464e-01
3.116443946133660159e-01 7.564428791751893755e-01
3.126849435100313990e-01 7.157420529860090141e-01
3.137254924066967821e-01 6.890913745988136441e-01
3.147660413033621651e-01 6.001799608179148038e-01
3.158065902000275482e-01 4.052943437937557292e-01
3.168471390966929313e-01 5.551465791401710703e-01
3.178876879933583144e-01 5.918090939422810948e-01
3.189282368900236975e-01 6.906989096064641842e-01
3.199687857866890806e-01 6.124830383931296751e-01
3.210093346833544636e-01 5.106751847536195044e-01
3.220498835800198467e-01 4.193799067686647675e-01
3.230904324766852298e-01 2.880774576458975389e-01
3.241309813733506129e-01 3.150228059287876192e-01
3.251715302700159960e-01 4.895192755520056949e-01
3.262120791666813790e-01 8.407341580989964314e-01
3.272526280633467621e-01 8.640022506867595098e-01
3.282931769600121452e-01 7.764954364457423708e-01
3.293337258566775283e-01 4.098580200994774714e-01
3.303742747533429114e-01 4.571174855556634498e-01
3.314148236500082945e-01 6.258254815955126560e-01
3.324553725466736775e-01 7.389064616952438769e-01
3.334959214433390606e-01 7.667151637482376714e-01
3.345364703400044437e-01 8.054599368770105627e-01
3.355770192366698268e-01 7.615412410671851262e-01
3.366175681333352099e-01 6.757788724600217733e-01
3.376581170300005930e-01 7.687934618165108702e-01
3.386986659266659760e-01 7.592661829392994832e-01
3.397392148233313591e-01 6.792184924591211370e-01
3.407797637199967422e-01 6.152836964195707026e-01
3.418203126166621253e-01 5.353694237352684127e-01
3.428608615133275084e-01 4.536168819362167426e-01
3.439014104099928915e-01 4.286836974106726927e-01
3.449419593066582745e-01 4.622001070427046443e-01
3.459825082033236576e-01 6.028154168596167040e-01
3.470230570999890407e-01 5.403829242582460779e-01
3.480636059966544238e-01 5.447224974048801016e-01
3.491041548933198069e-01 4.438645945094705780e-01
3.501447037899851900e-01 2.669772080857768515e-01
3.511852526866505730e-01 5.321392099830362099e-01
3.522258015833159561e-01 4.359103018211456515e-01
3.532663504799813392e-01 1.943448334651698417e-01
3.543068993766467223e-01 2.668679283167918470e-01
3.553474482733121054e-01 2.121521508768857700e-01
3.563879971699774885e-01 3.544865737299573993e-01
3.574285460666428715e-01 5.069252852265293541e-01
3.584690949633082546e-01 5.253992606426720613e-01
3.595096438599736377e-01 7.023346481276355746e-01
3.605501927566390208e-01 5.619135199148033166e-01
3.615907416533044039e-01 3.421568134129984173e-01
3.626312905499697870e-01 2.156606558395424145e-01
3.636718394466351700e-01 8.503683873668776982e-02
3.647123883433005531e-01 8.674968984617237311e-02
3.657529372399659362e-01 2.006529408926702729e-01
3.667934861366313193e-01 2.069085268406354317e-01
3.678340350332967024e-01 2.936320501852591747e-01
3.688745839299620854e-01 3.903860686295637095e-01
3.699151328266274685e-01 6.699363629969923295e-01
3.709556817232928516e-01 4.509644279254096944e-01
3.719962306199582347e-01 2.947039165564007135e-01
3.730367795166236178e-01 3.735146906429740454e-01
3.740773284132890009e-01 3.288696506966140021e-01
3.751178773099543839e-01 3.256944877831635665e-01
3.761584262066197670e-01 3.702521551135440347e-01
3.771989751032851501e-01 4.171913797247555067e-01
3.782395239999505332e-01 4.740146100010989016e-01
3.792800728966159163e-01 4.432649828947283766e-01
3.803206217932812994e-01 3.568648110739260915e-01
3.813611706899466824e-01 4.261753945401309807e-01
3.824017195866120655e-01 3.348072037854663563e-01
3.834422684832774486e-01 2.472096976071895824e-01
3.844828173799428317e-01 2.360837580222892029e-01
3.855233662766082148e-01 1.196655621424618232e-01
3.865639151732735979e-01 2.780393137268859505e-01
3.876044640699389809e-01 3.954783199822458073e-01
3.886450129666043640e-01 3.438971281647340561e-01
3.896855618632697471e-01 5.061723515844072097e-01
3.907261107599351302e-01 4.067199139124078044e-01
3.917666596566005133e-01 3.539810885551020192e-01
3.928072085532658964e-01 3.776646096349018933e-01
3.938477574499312794e-01 4.610114054785157123e-01
3.948883063465966625e-01 2.336831522878455303e-01
3.959288552432620456e-01 2.287785293796567032e-01
3.969694041399274287e-01 3.118033827646549128e-01
3.980099530365928118e-01 2.475735179697089450e-01
3.990505019332581949e-01 3.874926534401765821e-01
4.000910508299235779e-01 1.305931070748229672e-01
4.011315997265889610e-01 1.150515138089716061e-01
4.021721486232543441e-01 3.082335169572587574e-01
4.032126975199197272e-01 4.011624594892424511e-01
4.042532464165851103e-01 2.368757068260372023e-01
4.052937953132504934e-01 1.612621788132173606e-01
4.063343442099158764e-01 2.167887633117651092e-01
4.073748931065812595e-01 1.366448470867176468e-01
4.084154420032466426e-01 7.113106870047047892e-02
4.094559908999120257e-01 2.142956620637583853e-01
4.104965397965774088e-01 1.720724983607055947e-01
4.115370886932427918e-01 2.537063771096690346e-01
4.125776375899081749e-01 3.743382329869966441e-01
4.136181864865735580e-01 1.208254932155305994e-01
4.146587353832389411e-01 1.935206388073567041e-01
4.156992842799043242e-01 1.826120326157720797e-01
4.167398331765697073e-01 1.343166263872497268e-01
4.177803820732350903e-01 1.577620943312112445e-01
4.188209309699004734e-01 2.604770041342625575e-01
4.198614798665658565e-01 2.114274419297323959e-01
4.209020287632312396e-01 2.204085112137263991e-01
4.219425776598966227e-01 2.448339477002896558e-01
4.229831265565620058e-01 2.665030217688411085e-01
4.240236754532273888e-01 1.543096418927305535e-01
4.250642243498927719e-01 3.291267913439064330e-01
4.261047732465581550e-01 4.883382547926302664e-01
4.271453221432235381e-01 3.684621015209756933e-01
4.281858710398889212e-01 2.970897077833889455e-01
4.292264199365543043e-01 3.038291568392175179e-01
4.302669688332196873e-01 2.928342346066621360e-01
4.313075177298850704e-01 3.956367108688887413e-01
4.323480666265504535e-01 1.790355539391512707e-01
4.333886155232158366e-01 1.077447808118385808e-01
4.344291644198812197e-01 2.994030251171508894e-01
