# q (1/Angstrom), Intensity (arb)
2.029070354705860696e-02 2.019187781472555798e+02
2.133125244372399004e-02 1.699945336257650013e+02
2.237180134038937659e-02 1.498439954732027672e+02
2.341235023705475968e-02 1.286804206338618428e+02
2.445289913372014276e-02 1.130568774351602030e+02
2.549344803038552584e-02 1.023310339630892258e+02
2.653399692705091240e-02 9.219010859736467012e+01
2.757454582371629548e-02 8.050055168806176198e+01
2.861509472038167856e-02 7.214072459415822891e+01
2.965564361704706164e-02 6.576660386769536615e+01
3.069619251371244473e-02 6.020476900714342605e+01
3.173674141037782781e-02 5.625033386868841490e+01
3.277729030704321089e-02 5.208391699154630317e+01
3.381783920370859398e-02 5.013768881390824106e+01
3.485838810037397706e-02 4.690286985872533165e+01
3.589893699703936014e-02 4.369073786354843492e+01
3.693948589370474322e-02 4.090241909861045855e+01
3.798003479037012631e-02 4.066292397932929958e+01
3.902058368703550939e-02 3.870012022466121948e+01
4.006113258370089247e-02 3.766876576350687600e+01
4.110168148036627556e-02 3.640779949121748871e+01
4.214223037703165864e-02 3.625615869544536451e+01
4.318277927369704866e-02 3.638333273256933609e+01
4.422332817036243174e-02 3.488943219848871991e+01
4.526387706702781483e-02 3.473270568776263900e+01
4.630442596369319791e-02 3.633723383311577493e+01
4.734497486035858099e-02 3.694379411832267834e+01
4.838552375702396408e-02 3.770969110231189347e+01
4.942607265368934716e-02 3.859785034427876838e+01
5.046662155035473024e-02 3.999646065878769718e+01
5.150717044702011332e-02 4.190022365327750720e+01
5.254771934368549641e-02 4.392251483005609458e+01
5.358826824035087949e-02 4.566895933307169031e+01
5.462881713701626257e-02 5.006746065808421520e+01
5.566936603368164566e-02 5.530978029087082604e+01
5.670991493034702874e-02 6.184653630179066397e+01
5.775046382701241182e-02 6.958082433852868576e+01
5.879101272367779490e-02 7.944082698156377376e+01
5.983156162034317799e-02 9.267318053565529112e+01
6.087211051700856107e-02 1.111392297655436749e+02
6.191265941367394415e-02 1.401348919346072819e+02
6.295320831033933417e-02 1.908831076800249207e+02
6.399375720700471726e-02 2.784092369168511141e+02
6.503430610367010034e-02 4.172008865667768873e+02
6.607485500033548342e-02 6.064723516362905684e+02
6.711540389700086651e-02 8.429080028778346332e+02
6.815595279366624959e-02 1.115842531665751949e+03
6.919650169033163267e-02 1.310075392182007818e+03
7.023705058699701576e-02 1.279456479031173330e+03
7.127759948366239884e-02 1.011822571062821225e+03
7.231814838032778192e-02 7.077767543727605926e+02
7.335869727699316500e-02 5.023896554895059126e+02
7.439924617365854809e-02 3.800787973148464971e+02
7.543979507032393117e-02 3.020614846342922988e+02
7.648034396698931425e-02 2.498390987119090596e+02
7.752089286365469734e-02 2.148626117677080174e+02
7.856144176032008042e-02 1.912485828963826862e+02
7.960199065698546350e-02 1.684584622279622579e+02
8.064253955365084658e-02 1.399261243004378343e+02
8.168308845031622967e-02 1.050483670707369015e+02
8.272363734698161275e-02 7.160531869832382768e+01
8.376418624364699583e-02 4.698334443272938188e+01
8.480473514031239279e-02 3.173167074184011227e+01
8.584528403697777588e-02 2.255579650791877810e+01
8.688583293364315896e-02 1.686356209742194778e+01
8.792638183030854204e-02 1.323076834379205025e+01
8.896693072697392513e-02 1.090722484413333149e+01
9.000747962363930821e-02 9.175390083775752714e+00
9.104802852030469129e-02 7.811873064092210939e+00
9.208857741697007437e-02 6.360421214256547273e+00
9.312912631363545746e-02 5.792051924868530932e+00
9.416967521030084054e-02 5.502499945917925572e+00
9.521022410696622362e-02 5.695814410644842951e+00
9.625077300363160671e-02 5.861414277487327240e+00
9.729132190029698979e-02 5.547778020599658078e+00
9.833187079696237287e-02 5.256828100980030172e+00
9.937241969362775595e-02 5.458541025263080826e+00
1.004129685902931390e-01 5.979074274086961793e+00
1.014535174869585221e-01 6.292483386060055750e+00
1.024940663836239052e-01 6.836759329321630219e+00
1.035346152802892883e-01 7.172781411555817499e+00
1.045751641769546714e-01 8.027023105737107755e+00
1.056157130736200545e-01 9.122654731387022764e+00
1.066562619702854375e-01 1.125590273611810233e+01
1.076968108669508206e-01 1.421998797470072162e+01
1.087373597636162037e-01 1.806708136649121599e+01
1.097779086602815868e-01 2.498889665168633911e+01
1.108184575569469699e-01 3.448030492672011604e+01
1.118590064536123529e-01 4.408678412677370062e+01
1.128995553502777360e-01 5.161924094995293189e+01
1.139401042469431191e-01 5.595700880674850453e+01
1.149806531436085022e-01 5.305242112109650066e+01
1.160212020402738853e-01 4.416052417919656392e+01
1.170617509369392684e-01 3.533646585706870269e+01
1.181022998336046514e-01 2.886838148814903349e+01
1.191428487302700345e-01 2.514861233324995027e+01
1.201833976269354176e-01 2.261771781707187756e+01
1.212239465236008007e-01 2.166068555114014771e+01
1.222644954202661838e-01 2.095664533776933069e+01
1.233050443169315669e-01 2.024220182018481040e+01
1.243455932135969499e-01 2.048916561629734190e+01
1.253861421102623330e-01 2.201153355952046553e+01
1.264266910069277161e-01 2.437438237305276800e+01
1.274672399035930992e-01 2.777195412447889566e+01
1.285077888002584823e-01 3.394673618946916349e+01
1.295483376969238654e-01 4.174542157468177805e+01
1.305888865935892484e-01 5.071787525777201466e+01
1.316294354902546315e-01 5.860317821331193500e+01
1.326699843869200146e-01 6.505824220749803999e+01
1.337105332835853977e-01 6.735186779478715380e+01
1.347510821802507808e-01 6.196934524273226685e+01
1.357916310769161639e-01 5.173847461578628071e+01
1.368321799735815469e-01 4.200803048959429731e+01
1.378727288702469300e-01 3.431432994271560233e+01
1.389132777669123131e-01 2.900697290080729829e+01
1.399538266635776962e-01 2.414706690321050786e+01
1.409943755602430793e-01 1.937992283420569350e+01
1.420349244569084624e-01 1.469685433062761604e+01
1.430754733535738454e-01 1.124068410047208033e+01
1.441160222502392285e-01 8.552989353233876102e+00
1.451565711469046116e-01 6.682285333723697818e+00
1.461971200435699947e-01 5.671081478440889612e+00
1.472376689402353778e-01 5.120872865857172940e+00
1.482782178369007609e-01 4.166026598826348959e+00
1.493187667335661439e-01 3.533761537026300914e+00
1.503593156302315270e-01 3.340162899050248768e+00
1.513998645268969101e-01 3.129004787287968270e+00
1.524404134235622932e-01 2.829481644131718099e+00
1.534809623202276763e-01 2.246570086808901578e+00
1.545215112168930593e-01 2.158401882568327323e+00
1.555620601135584424e-01 2.120042993671525267e+00
1.566026090102238255e-01 2.068400167859628880e+00
1.576431579068892086e-01 1.757047335153757217e+00
1.586837068035545917e-01 2.063754581012538836e+00
1.597242557002199748e-01 2.147786763973570601e+00
1.607648045968853578e-01 1.613664775138794027e+00
1.618053534935507409e-01 1.444659606315006783e+00
1.628459023902161240e-01 1.704503910256988775e+00
1.638864512868815071e-01 1.681149282937191458e+00
1.649270001835468902e-01 1.632210486385680781e+00
1.659675490802122733e-01 1.546190399107651103e+00
1.670080979768776563e-01 2.170206324968035005e+00
1.680486468735430672e-01 2.745602069551793534e+00
1.690891957702084503e-01 3.054775329820522245e+00
1.701297446668738333e-01 3.583437496619133356e+00
1.711702935635392164e-01 4.623952363819540778e+00
1.722108424602045995e-01 4.488629009374456302e+00
1.732513913568699826e-01 6.017363845613502349e+00
1.742919402535353657e-01 6.991199757843972407e+00
1.753324891502007488e-01 7.491577714792597931e+00
1.763730380468661318e-01 8.201550066282720763e+00
1.774135869435315149e-01 8.395343982439108288e+00
1.784541358401968980e-01 8.398991867564213010e+00
1.794946847368622811e-01 8.007524801474581011e+00
1.805352336335276642e-01 7.568101694054590212e+00
1.815757825301930473e-01 7.079318584151948812e+00
1.826163314268584303e-01 6.320683786035523610e+00
1.836568803235238134e-01 5.679769491070480569e+00
1.846974292201891965e-01 4.916504938668637692e+00
1.857379781168545796e-01 4.512938273843346337e+00
1.867785270135199627e-01 4.281247907775892259e+00
1.878190759101853458e-01 3.948155863872933935e+00
1.888596248068507288e-01 3.893095122289814469e+00
1.899001737035161119e-01 3.985460561127233348e+00
1.909407226001814950e-01 4.265360124815217091e+00
1.919812714968468781e-01 4.463937451846447857e+00
1.930218203935122612e-01 4.737883015284829469e+00
1.940623692901776443e-01 4.668990098358371199e+00
1.951029181868430273e-01 4.562632101217339198e+00
1.961434670835084104e-01 5.154239098340553937e+00
1.971840159801737935e-01 5.393312464030820763e+00
1.982245648768391766e-01 5.625703048344455226e+00
1.992651137735045597e-01 5.297316400367350298e+00
2.003056626701699428e-01 4.483461866739197887e+00
2.013462115668353813e-01 4.141551820328658096e+00
2.023867604635007644e-01 4.057434579229187932e+00
2.034273093601661475e-01 4.047796565120663104e+00
2.044678582568315306e-01 3.736930550074170299e+00
2.055084071534969137e-01 3.566145683560684176e+00
2.065489560501622968e-01 3.375097584588111488e+00
2.075895049468276798e-01 3.310663760628699492e+00
2.086300538434930629e-01 3.477674351464884239e+00
2.096706027401584460e-01 3.157396723587226006e+00
2.107111516368238291e-01 3.157761308213885343e+00
2.117517005334892122e-01 2.897571505180728479e+00
2.127922494301545953e-01 2.423066692069255623e+00
2.138327983268199783e-01 1.922332066119658123e+00
2.148733472234853614e-01 1.850279324317668284e+00
2.159138961201507445e-01 2.001680979688785555e+00
2.169544450168161276e-01 1.772281215489719841e+00
2.179949939134815107e-01 1.282841804334289293e+00
2.190355428101468938e-01 1.198034175926245837e+00
2.200760917068122768e-01 1.356761960666233335e+00
2.211166406034776599e-01 1.347045580966927503e+00
2.221571895001430430e-01 1.316467884659360266e+00
2.231977383968084261e-01 1.335808319701719427e+00
2.242382872934738092e-01 1.240464579441244553e+00
2.252788361901391923e-01 8.337285069321680453e-01
2.263193850868045753e-01 9.808496418523873217e-01
2.273599339834699584e-01 8.907766756979214051e-01
2.284004828801353415e-01 1.192703254387254219e+00
2.294410317768007246e-01 1.370179592060900120e+00
2.304815806734661077e-01 1.149220784462386291e+00
2.315221295701314908e-01 8.984349788693251071e-01
2.325626784667968738e-01 9.811056094207586398e-01
2.336032273634622569e-01 1.130994390814663575e+00
2.346437762601276400e-01 1.210629888893912209e+00
2.356843251567930231e-01 1.215030966033921800e+00
2.367248740534584062e-01 1.307422092482305231e+00
2.377654229501237892e-01 1.039126754403682185e+00
2.388059718467891723e-01 1.019365511316983941e+00
2.398465207434545554e-01 1.255067120436976325e+00
2.408870696401199385e-01 1.644702539216176262e+00
2.419276185367853216e-01 1.718161704478202267e+00
2.429681674334507047e-01 1.735791327562601793e+00
2.440087163301160877e-01 1.402888698176003146e+00
2.450492652267814708e-01 1.221086189974048608e+00
2.460898141234468539e-01 1.331411147267662187e+00
2.471303630201122370e-01 1.168718790767897531e+00
2.481709119167776201e-01 1.090436470368423727e+00
2.492114608134430032e-01 1.309040111197081302e+00
2.502520097101083585e-01 1.513460937042815146e+00
2.512925586067737416e-01 1.673306977464044110e+00
2.523331075034391247e-01 1.491987020727957969e+00
2.533736564001045077e-01 1.501110418720287498e+00
2.544142052967698908e-01 1.483103509887016003e+00
2.554547541934352739e-01 1.598572961119899105e+00
2.564953030901006570e-01 1.524953355883127415e+00
2.575358519867660401e-01 1.635808535751063886e+00
2.585764008834314231e-01 1.605642705548145699e+00
2.596169497800968062e-01 1.485006234473310371e+00
2.606574986767621893e-01 1.427383616158046209e+00
2.616980475734275724e-01 1.235520918837494264e+00
2.627385964700929555e-01 1.628640188867432670e+00
2.637791453667583386e-01 1.693228584444543827e+00
2.648196942634237216e-01 1.380037899865175888e+00
2.658602431600891047e-01 1.209044092812067817e+00
2.669007920567544878e-01 1.586372007093583392e+00
2.679413409534198709e-01 1.373026190947737035e+00
2.689818898500852540e-01 1.405988087239212092e+00
2.700224387467506371e-01 1.352531624687163259e+00
2.710629876434160201e-01 1.254086675802884798e+00
2.721035365400814032e-01 9.267085943760804412e-01
2.731440854367467863e-01 5.421333563630419405e-01
2.741846343334121694e-01 6.045525926233814573e-01
2.752251832300775525e-01 5.944712729714574095e-01
2.762657321267429356e-01 9.545652998501878983e-01
2.773062810234083186e-01 7.908678584446100501e-01
2.783468299200737017e-01 6.986047015875200827e-01
2.793873788167390848e-01 7.631926586133452872e-01
2.804279277134044679e-01 8.103224125767916064e-01
2.814684766100698510e-01 7.973950745316287225e-01
2.825090255067352341e-01 7.069570360177053203e-01
2.835495744034006171e-01 6.450219621656856361e-01
2.845901233000660002e-01 6.755014676830874976e-01
2.856306721967313833e-01 6.203026639239759277e-01
2.866712210933967664e-01 6.121277358884569253e-01
2.877117699900621495e-01 5.786188145530672955e-01
2.887523188867275326e-01 7.728321033328029444e-01
2.897928677833929156e-01 4.821708523858774242e-01
2.908334166800582987e-01 5.071212170348751158e-01
2.918739655767236818e-01 6.490579763736228358e-01
2.929145144733890649e-01 7.987684911662960019e-01
2.939550633700544480e-01 8.248066918045893203e-01
2.949956122667198311e-01 4.949329675269069639e-01
2.960361611633852141e-01 3.475912787781147983e-01
2.970767100600505972e-01 6.120571534986929407e-01
2.981172589567159803e-01 5.731686398215920519e-01
2.991578078533813634e-01 6.146077410352148718e-01
3.001983567500468020e-01 6.827585516629888218e-01
3.012389056467121851e-01 7.369588473414090402e-01
3.022794545433775681e-01 9.255704966228890385e-01
3.033200034400429512e-01 5.499387125174841628e-01
3.043605523367083343e-01 4.343324782640394233e-01
3.054011012333737174e-01 6.694598910090903132e-01
3.064416501300391005e-01 4.901058702491951635e-01
3.074821990267044836e-01 3.173593974310620069e-01
3.085227479233698666e-01 5.557960129081891409e-01
3.095632968200352497e-01 5.164971281524763924e-01
3.106038457167006328e-01 4.258262203226337306e-01
3.116443946133660159e-01 3.913220376819488422e-01
3.126849435100313990e-01 7.135746070036894650e-01
3.137254924066967821e-01 1.064462442025131850e+00
3.147660413033621651e-01 9.257579542804172945e-01
3.158065902000275482e-01 9.123771550881620840e-01
3.168471390966929313e-01 1.114509829855560241e+00
3.178876879933583144e-01 9.035029142312893669e-01
3.189282368900236975e-01 6.383889029589617792e-01
3.199687857866890806e-01 5.974109862633447676e-01
3.210093346833544636e-01 5.024783715288272390e-01
3.220498835800198467e-01 4.966407275904742846e-01
3.230904324766852298e-01 5.142662246442561980e-01
3.241309813733506129e-01 8.833501500560032582e-01
3.251715302700159960e-01 7.355365571867977792e-01
3.262120791666813790e-01 6.718210813976632778e-01
3.272526280633467621e-01 6.329571434367586846e-01
3.282931769600121452e-01 3.484961936937622795e-01
3.293337258566775283e-01 4.484594712247762516e-01
3.303742747533429114e-01 7.349913122735820536e-01
3.314148236500082945e-01 5.931528764605360493e-01
3.324553725466736775e-01 6.826770414716278879e-01
3.334959214433390606e-01 9.016186449917000800e-01
3.345364703400044437e-01 8.965811901078595270e-01
3.355770192366698268e-01 5.509216478997132072e-01
3.366175681333352099e-01 3.202501847233563126e-01
3.376581170300005930e-01 2.426367651826168981e-01
3.386986659266659760e-01 4.295260452812144081e-01
3.397392148233313591e-01 6.855205926523737503e-01
3.407797637199967422e-01 6.825304159868679221e-01
3.418203126166621253e-01 5.945328263823022041e-01
3.428608615133275084e-01 6.744332034356261829e-01
3.439014104099928915e-01 3.717707582109959219e-01
3.449419593066582745e-01 2.176064480262454026e-01
3.459825082033236576e-01 3.075369420716675961e-01
3.470230570999890407e-01 5.640690973536273134e-01
3.480636059966544238e-01 4.229472203822872700e-01
3.491041548933198069e-01 4.042400477469669795e-01
3.501447037899851900e-01 4.702076507796633109e-01
3.511852526866505730e-01 5.789046236719528338e-01
3.522258015833159561e-01 7.461283360660821984e-01
3.532663504799813392e-01 7.323060936635812368e-01
3.543068993766467223e-01 6.553019775616526488e-01
3.553474482733121054e-01 5.293445900330766563e-01
3.563879971699774885e-01 2.090884635591514495e-01
3.574285460666428715e-01 2.694992774875650809e-01
3.584690949633082546e-01 3.118964670810520090e-01
3.595096438599736377e-01 2.470117443121893075e-01
3.605501927566390208e-01 4.474522288097446676e-01
3.615907416533044039e-01 3.600823030995279339e-01
3.626312905499697870e-01 3.514303446961513089e-01
3.636718394466351700e-01 3.874685183798476373e-01
3.647123883433005531e-01 3.391008612414125878e-01
3.657529372399659362e-01 3.820954461930732293e-01
3.667934861366313193e-01 4.700673844054108486e-01
3.678340350332967024e-01 3.904417151378574147e-01
3.688745839299620854e-01 2.069131259169090242e-01
3.699151328266274685e-01 2.360745164513993188e-01
3.709556817232928516e-01 5.305376971288389143e-01
3.719962306199582347e-01 4.583667910239057619e-01
3.730367795166236178e-01 5.256953356659082033e-01
3.740773284132890009e-01 3.982836624494687783e-01
3.751178773099543839e-01 3.245865255374162928e-01
3.761584262066197670e-01 2.230609645508643268e-01
3.771989751032851501e-01 3.091328593725108931e-01
3.782395239999505332e-01 4.168001260668852126e-01
3.792800728966159163e-01 2.693337169523530861e-01
3.803206217932812994e-01 4.889115602873665978e-01
3.813611706899466824e-01 6.088834030569287847e-01
3.824017195866120655e-01 3.224866864969300195e-01
3.834422684832774486e-01 5.431721011612715699e-01
3.844828173799428317e-01 4.618014328974062721e-01
3.855233662766082148e-01 5.206594664128516570e-01
3.865639151732735979e-01 4.908746397225556279e-01
3.876044640699389809e-01 3.557546077365678627e-01
3.886450129666043640e-01 3.110602802221187346e-01
3.896855618632697471e-01 3.777764144729829354e-01
3.907261107599351302e-01 4.468198411854693575e-01
3.917666596566005133e-01 4.176002684034010315e-01
3.928072085532658964e-01 3.644423971706416410e-01
3.938477574499312794e-01 3.662858870792078392e-01
3.948883063465966625e-01 5.042967577752328623e-01
3.959288552432620456e-01 5.547815080213815975e-01
3.969694041399274287e-01 4.441656178194470783e-01
3.980099530365928118e-01 5.198858181474044216e-01
3.990505019332581949e-01 6.545407837642684967e-01
4.000910508299235779e-01 3.304574112404488062e-01
4.011315997265889610e-01 1.942817428850212025e-01
4.021721486232543441e-01 1.390582362931738203e-01
4.032126975199197272e-01 1.867347003771655523e-01
4.042532464165851103e-01 3.191993577147869132e-01
4.052937953132504934e-01 3.118798193527965168e-01
4.063343442099158764e-01 1.964558213753768712e-01
4.073748931065812595e-01 2.048383889519911349e-01
4.084154420032466426e-01 2.429506956471989554e-01
4.094559908999120257e-01 3.962906229534794988e-01
4.104965397965774088e-01 5.228296280701520971e-01
4.115370886932427918e-01 5.169211489841814000e-01
4.125776375899081749e-01 3.758283148838010845e-01
4.136181864865735580e-01 1.455826923715761723e-01
4.146587353832389411e-01 2.422209348339059432e-01
4.156992842799043242e-01 3.641585836820517841e-01
4.167398331765697073e-01 3.220893989419799652e-01
4.177803820732350903e-01 3.908316289687228107e-01
4.188209309699004734e-01 5.115899577490061745e-01
4.198614798665658565e-01 3.895785552584349887e-01
4.209020287632312396e-01 5.369928948624895781e-01
4.219425776598966227e-01 3.840596685305897040e-01
4.229831265565620058e-01 3.596340337570644863e-01
4.240236754532273888e-01 4.480675346615115018e-01
4.250642243498927719e-01 3.378412022858974240e-01
4.261047732465581550e-01 3.340575448585489937e-01
4.271453221432235381e-01 4.266431794420171286e-01
4.281858710398889212e-01 3.478422958021987199e-01
4.292264199365543043e-01 4.462457929735350604e-01
4.302669688332196873e-01 4.854180281829165722e-01
4.313075177298850704e-01 3.805389434157788742e-01
4.323480666265504535e-01 4.291092632108579608e-01
4.333886155232158366e-01 3.981153769622487459e-01
4.344291644198812197e-01 3.410802639516568036e-01
