# q (1/Angstrom), Intensity (arb)
2.029070354705860696e-02 1.973725334086419707e+02
2.133125244372399004e-02 1.666066342449578030e+02
2.237180134038937659e-02 1.470647619266735830e+02
2.341235023705475968e-02 1.285865881296816156e+02
2.445289913372014276e-02 1.134599104013711894e+02
2.549344803038552584e-02 1.011731973075488042e+02
2.653399692705091240e-02 8.975394002143410432e+01
2.757454582371629548e-02 7.932473728186739947e+01
2.861509472038167856e-02 7.372543941377061572e+01
2.965564361704706164e-02 6.680056176185802030e+01
3.069619251371244473e-02 6.004714876614544039e+01
3.173674141037782781e-02 5.483498334933452156e+01
3.277729030704321089e-02 5.148558451243157208e+01
3.381783920370859398e-02 4.807549419280721281e+01
3.485838810037397706e-02 4.473379967509098520e+01
3.589893699703936014e-02 4.383241740865481262e+01
3.693948589370474322e-02 4.150874129152749958e+01
3.798003479037012631e-02 3.974315131393848333e+01
3.902058368703550939e-02 3.979326137827602849e+01
4.006113258370089247e-02 3.800915556434740949e+01
4.110168148036627556e-02 3.685295587359347991e+01
4.214223037703165864e-02 3.569630976026957825e+01
4.318277927369704866e-02 3.511501426414086779e+01
4.422332817036243174e-02 3.475634532368308527e+01
4.526387706702781483e-02 3.555986139317005978e+01
4.630442596369319791e-02 3.596481544896459326e+01
4.734497486035858099e-02 3.616831504395555186e+01
4.838552375702396408e-02 3.670707381205386355e+01
4.942607265368934716e-02 3.774716504622494995e+01
5.046662155035473024e-02 3.909778211366707268e+01
5.150717044702011332e-02 4.150988674658739086e+01
5.254771934368549641e-02 4.366368402403863058e+01
5.358826824035087949e-02 4.676137948968627711e+01
5.462881713701626257e-02 5.121368504090194307e+01
5.566936603368164566e-02 5.563448303397068173e+01
5.670991493034702874e-02 6.263288842981675941e+01
5.775046382701241182e-02 7.043569849861393095e+01
5.879101272367779490e-02 7.918734519706700326e+01
5.983156162034317799e-02 9.264268223394491031e+01
6.087211051700856107e-02 1.134587404543987361e+02
6.191265941367394415e-02 1.422507262114002913e+02
6.295320831033933417e-02 1.903768487427797709e+02
6.399375720700471726e-02 2.775134257910329438e+02
6.503430610367010034e-02 4.141299244762744820e+02
6.607485500033548342e-02 5.995748348259157865e+02
6.711540389700086651e-02 8.351714684428594637e+02
6.815595279366624959e-02 1.103363920110875597e+03
6.919650169033163267e-02 1.288623254853438084e+03
7.023705058699701576e-02 1.251857852384039234e+03
7.127759948366239884e-02 9.837419202463479451e+02
7.231814838032778192e-02 6.891614409476020455e+02
7.335869727699316500e-02 4.893002427178046219e+02
7.439924617365854809e-02 3.714221614956757662e+02
7.543979507032393117e-02 2.946766520431058893e+02
7.648034396698931425e-02 2.433398330793279172e+02
7.752089286365469734e-02 2.096387336524919078e+02
7.856144176032008042e-02 1.860907788227044932e+02
7.960199065698546350e-02 1.642489317763651684e+02
8.064253955365084658e-02 1.369696274890683299e+02
8.168308845031622967e-02 1.022448578330273108e+02
8.272363734698161275e-02 6.849683751709559942e+01
8.376418624364699583e-02 4.416259374410540772e+01
8.480473514031239279e-02 2.991093978590341607e+01
8.584528403697777588e-02 2.162747426471617018e+01
8.688583293364315896e-02 1.584677773421737612e+01
8.792638183030854204e-02 1.287949014937154857e+01
8.896693072697392513e-02 1.061232240985548003e+01
9.000747962363930821e-02 8.413536658577093874e+00
9.104802852030469129e-02 7.425571639443781180e+00
9.208857741697007437e-02 6.878139975291333030e+00
9.312912631363545746e-02 5.655777151161125005e+00
9.416967521030084054e-02 5.303205739856757361e+00
9.521022410696622362e-02 5.297980775941802278e+00
9.625077300363160671e-02 5.151291507539212944e+00
9.729132190029698979e-02 5.350840600635493161e+00
9.833187079696237287e-02 5.442788403063261171e+00
9.937241969362775595e-02 5.274560810406391909e+00
1.004129685902931390e-01 5.283549581088266223e+00
1.014535174869585221e-01 6.066658240677817560e+00
1.024940663836239052e-01 6.540637944361840539e+00
1.035346152802892883e-01 7.249038481630364572e+00
1.045751641769546714e-01 8.019630494166825940e+00
1.056157130736200545e-01 9.437439065837111229e+00
1.066562619702854375e-01 1.127701096036010853e+01
1.076968108669508206e-01 1.374193358523888975e+01
1.087373597636162037e-01 1.814070232696963814e+01
1.097779086602815868e-01 2.487863615889799007e+01
1.108184575569469699e-01 3.454391562208204647e+01
1.118590064536123529e-01 4.379299662906500146e+01
1.128995553502777360e-01 5.168253077121215000e+01
1.139401042469431191e-01 5.460990749167924463e+01
1.149806531436085022e-01 5.142730766752903548e+01
1.160212020402738853e-01 4.347160823880179237e+01
1.170617509369392684e-01 3.458118925260874477e+01
1.181022998336046514e-01 2.820177170925953902e+01
1.191428487302700345e-01 2.427908089831208827e+01
1.201833976269354176e-01 2.258887133152365578e+01
1.212239465236008007e-01 2.116552509716382247e+01
1.222644954202661838e-01 1.987506517604992240e+01
1.233050443169315669e-01 2.006483637309270307e+01
1.243455932135969499e-01 2.077984559519379104e+01
1.253861421102623330e-01 2.163970959336176492e+01
1.264266910069277161e-01 2.399420250651510145e+01
1.274672399035930992e-01 2.766798341479618273e+01
1.285077888002584823e-01 3.365259320215751870e+01
1.295483376969238654e-01 4.175196564163329072e+01
1.305888865935892484e-01 5.026154347765503161e+01
1.316294354902546315e-01 5.751817029179903074e+01
1.326699843869200146e-01 6.340873438058206801e+01
1.337105332835853977e-01 6.619732327443679765e+01
1.347510821802507808e-01 6.081772512493059679e+01
1.357916310769161639e-01 5.125939460230748068e+01
1.368321799735815469e-01 4.139688843761390302e+01
1.378727288702469300e-01 3.331731716131731247e+01
1.389132777669123131e-01 2.778239730117766726e+01
1.399538266635776962e-01 2.314911014831098868e+01
1.409943755602430793e-01 1.836290173309466667e+01
1.420349244569084624e-01 1.394525244558153076e+01
1.430754733535738454e-01 1.077971978519799734e+01
1.441160222502392285e-01 7.955470270302107849e+00
1.451565711469046116e-01 6.474754525526606130e+00
1.461971200435699947e-01 4.972942991109000843e+00
1.472376689402353778e-01 4.203813758677355850e+00
1.482782178369007609e-01 4.203312558933667731e+00
1.493187667335661439e-01 3.756540834017080499e+00
1.503593156302315270e-01 3.436872110975848216e+00
1.513998645268969101e-01 2.880083677508928020e+00
1.524404134235622932e-01 2.656598692415968799e+00
1.534809623202276763e-01 2.698376134457284081e+00
1.545215112168930593e-01 2.302209969684504642e+00
1.555620601135584424e-01 2.091314908825111729e+00
1.566026090102238255e-01 1.955180113326413505e+00
1.576431579068892086e-01 1.926620827603620967e+00
1.586837068035545917e-01 1.818088724996776762e+00
1.597242557002199748e-01 1.553279724130085526e+00
1.607648045968853578e-01 1.866021696368392213e+00
1.618053534935507409e-01 2.011258108605339601e+00
1.628459023902161240e-01 1.555021627705478693e+00
1.638864512868815071e-01 1.704015216137847233e+00
1.649270001835468902e-01 2.048367665275407035e+00
1.659675490802122733e-01 1.909682612529415735e+00
1.670080979768776563e-01 2.303512322530430367e+00
1.680486468735430672e-01 2.503821331612584800e+00
1.690891957702084503e-01 2.957960235725693110e+00
1.701297446668738333e-01 3.529112603836821904e+00
1.711702935635392164e-01 4.112367060594380064e+00
1.722108424602045995e-01 4.814820409415801805e+00
1.732513913568699826e-01 6.311210127545848536e+00
1.742919402535353657e-01 7.047467159726075181e+00
1.753324891502007488e-01 7.334821093666192837e+00
1.763730380468661318e-01 7.972287619007204285e+00
1.774135869435315149e-01 8.175164370056556606e+00
1.784541358401968980e-01 8.055935814652997351e+00
1.794946847368622811e-01 7.604546416900433314e+00
1.805352336335276642e-01 6.892172837667196461e+00
1.815757825301930473e-01 6.793838423692037054e+00
1.826163314268584303e-01 5.841777475556703791e+00
1.836568803235238134e-01 5.214881089341645293e+00
1.846974292201891965e-01 4.437617586192331487e+00
1.857379781168545796e-01 3.700911987225858013e+00
1.867785270135199627e-01 3.582113701336872680e+00
1.878190759101853458e-01 3.973763827960340222e+00
1.888596248068507288e-01 3.842569772740169753e+00
1.899001737035161119e-01 3.543501961662556710e+00
1.909407226001814950e-01 3.964923413417622555e+00
1.919812714968468781e-01 4.338369688597055074e+00
1.930218203935122612e-01 4.698106759050567405e+00
1.940623692901776443e-01 4.654981005916674519e+00
1.951029181868430273e-01 4.684057384301347327e+00
1.961434670835084104e-01 4.888723537970669497e+00
1.971840159801737935e-01 4.591785647159206007e+00
1.982245648768391766e-01 4.637495339292023289e+00
1.992651137735045597e-01 4.803132367330164243e+00
2.003056626701699428e-01 4.451288559568993719e+00
2.013462115668353813e-01 4.285440268396811803e+00
2.023867604635007644e-01 4.115835230274676348e+00
2.034273093601661475e-01 4.155278072755159258e+00
2.044678582568315306e-01 3.954499912098796699e+00
2.055084071534969137e-01 3.273834334653706435e+00
2.065489560501622968e-01 3.219787850620356551e+00
2.075895049468276798e-01 3.253949193532967854e+00
2.086300538434930629e-01 3.158095860031536972e+00
2.096706027401584460e-01 3.399677711339279540e+00
2.107111516368238291e-01 3.178563626163118272e+00
2.117517005334892122e-01 2.384216187919186325e+00
2.127922494301545953e-01 2.082723743975222419e+00
2.138327983268199783e-01 1.746342659628176364e+00
2.148733472234853614e-01 1.549864903769865521e+00
2.159138961201507445e-01 1.483325943113690926e+00
2.169544450168161276e-01 1.566128480538083068e+00
2.179949939134815107e-01 1.639356327688503256e+00
2.190355428101468938e-01 1.338389735616196674e+00
2.200760917068122768e-01 1.030536558915422063e+00
2.211166406034776599e-01 8.624167324192910655e-01
2.221571895001430430e-01 6.350262116287055392e-01
2.231977383968084261e-01 6.190121644700496972e-01
2.242382872934738092e-01 8.054998265634552013e-01
2.252788361901391923e-01 9.169843084943920530e-01
2.263193850868045753e-01 7.596962026102360710e-01
2.273599339834699584e-01 1.010783405250165856e+00
2.284004828801353415e-01 1.084763993249033831e+00
2.294410317768007246e-01 9.969464115175128427e-01
2.304815806734661077e-01 1.316136652771497495e+00
2.315221295701314908e-01 1.473687821713930646e+00
2.325626784667968738e-01 1.528714145454301843e+00
2.336032273634622569e-01 1.486815958831876117e+00
2.346437762601276400e-01 1.369129942171227299e+00
2.356843251567930231e-01 1.282789620551589849e+00
2.367248740534584062e-01 1.400622710334523902e+00
2.377654229501237892e-01 1.598329928527618904e+00
2.388059718467891723e-01 1.568499826678547038e+00
2.398465207434545554e-01 9.835387271723732283e-01
2.408870696401199385e-01 1.279624272697411413e+00
2.419276185367853216e-01 1.436866634909861773e+00
2.429681674334507047e-01 1.439275914427639691e+00
2.440087163301160877e-01 1.503832727623006349e+00
2.450492652267814708e-01 1.459848421220677039e+00
2.460898141234468539e-01 1.252531646210826466e+00
2.471303630201122370e-01 1.264879133277176493e+00
2.481709119167776201e-01 1.373942876512167288e+00
2.492114608134430032e-01 1.600336079041106530e+00
2.502520097101083585e-01 1.443592176085353174e+00
2.512925586067737416e-01 1.436167467294477973e+00
2.523331075034391247e-01 1.416548254078907831e+00
2.533736564001045077e-01 1.220367131703110175e+00
2.544142052967698908e-01 1.452618701931292833e+00
2.554547541934352739e-01 1.544653490353745440e+00
2.564953030901006570e-01 1.500813006326772836e+00
2.575358519867660401e-01 1.601442699964309213e+00
2.585764008834314231e-01 1.744144171544821376e+00
2.596169497800968062e-01 1.475314413551661374e+00
2.606574986767621893e-01 1.331761882831564492e+00
2.616980475734275724e-01 1.243735933733077559e+00
2.627385964700929555e-01 1.481099077487893823e+00
2.637791453667583386e-01 1.718184367173854810e+00
2.648196942634237216e-01 1.676383157371137855e+00
2.658602431600891047e-01 1.654603568128905522e+00
2.669007920567544878e-01 1.521436040513258092e+00
2.679413409534198709e-01 1.301367209734710428e+00
2.689818898500852540e-01 8.408510957724679713e-01
2.700224387467506371e-01 8.124951593859606191e-01
2.710629876434160201e-01 1.061877459563788761e+00
2.721035365400814032e-01 9.125920126589548431e-01
2.731440854367467863e-01 7.694408084184232166e-01
2.741846343334121694e-01 9.274860860879030611e-01
2.752251832300775525e-01 1.107042481783590659e+00
2.762657321267429356e-01 9.567012126041127829e-01
2.773062810234083186e-01 1.066751984532679387e+00
2.783468299200737017e-01 9.732085074315186546e-01
2.793873788167390848e-01 9.122864505342924701e-01
2.804279277134044679e-01 6.432238968472105967e-01
2.814684766100698510e-01 4.930800018833956244e-01
2.825090255067352341e-01 7.284570068660158881e-01
2.835495744034006171e-01 5.626672428739745158e-01
2.845901233000660002e-01 2.486643695511432384e-01
2.856306721967313833e-01 5.908230966688208241e-01
2.866712210933967664e-01 7.017258888322501775e-01
2.877117699900621495e-01 5.534703935728266799e-01
2.887523188867275326e-01 6.004927056175510813e-01
2.897928677833929156e-01 7.335794735420257950e-01
2.908334166800582987e-01 7.666033798525404563e-01
2.918739655767236818e-01 8.130932286509704454e-01
2.929145144733890649e-01 7.904921702650256066e-01
2.939550633700544480e-01 6.910632541289487563e-01
2.949956122667198311e-01 6.885270450863636427e-01
2.960361611633852141e-01 4.477290085540772679e-01
2.970767100600505972e-01 3.702788782161015035e-01
2.981172589567159803e-01 3.308415750958886292e-01
2.991578078533813634e-01 3.515891001449737985e-01
3.001983567500468020e-01 4.635180251697263998e-01
3.012389056467121851e-01 5.956584795205230876e-01
3.022794545433775681e-01 7.899910077706699951e-01
3.033200034400429512e-01 6.385880785400566140e-01
3.043605523367083343e-01 6.051836856210286442e-01
3.054011012333737174e-01 6.790929644376006991e-01
3.064416501300391005e-01 5.225427425219422162e-01
3.074821990267044836e-01 4.627876079122437147e-01
3.085227479233698666e-01 4.115708719062709520e-01
3.095632968200352497e-01 5.240575109121117237e-01
3.106038457167006328e-01 6.900174880238481023e-01
3.116443946133660159e-01 6.473611489620694215e-01
3.126849435100313990e-01 8.831065546844101277e-01
3.137254924066967821e-01 6.354521603343492586e-01
3.147660413033621651e-01 3.086384430009445623e-01
3.158065902000275482e-01 3.314588266405102956e-01
3.168471390966929313e-01 6.264012664026914479e-01
3.178876879933583144e-01 8.194675192153724197e-01
3.189282368900236975e-01 5.034095008552590400e-01
3.199687857866890806e-01 5.301107986000239691e-01
3.210093346833544636e-01 5.715262469288333591e-01
3.220498835800198467e-01 3.411989640740351604e-01
3.230904324766852298e-01 3.517103458082075917e-01
3.241309813733506129e-01 6.084839926344187688e-01
3.251715302700159960e-01 6.375262388982285700e-01
3.262120791666813790e-01 3.744779368430215527e-01
3.272526280633467621e-01 3.933861015509165782e-01
3.282931769600121452e-01 6.034300145960855843e-01
3.293337258566775283e-01 6.297737155737799242e-01
3.303742747533429114e-01 6.085035503876277119e-01
3.314148236500082945e-01 8.531487679524119017e-01
3.324553725466736775e-01 7.767235659278561855e-01
3.334959214433390606e-01 5.599019513397394121e-01
3.345364703400044437e-01 7.288004375510510613e-01
3.355770192366698268e-01 7.355345941578868008e-01
3.366175681333352099e-01 5.708596672268875238e-01
3.376581170300005930e-01 4.392030229387167140e-01
3.386986659266659760e-01 5.956704142320283779e-01
3.397392148233313591e-01 6.452291081498024994e-01
3.407797637199967422e-01 4.127879974119501583e-01
3.418203126166621253e-01 4.575833109213469641e-01
3.428608615133275084e-01 5.164977806546175998e-01
3.439014104099928915e-01 5.847095638420078956e-01
3.449419593066582745e-01 4.590334424688613524e-01
3.459825082033236576e-01 6.085997837241201580e-01
3.470230570999890407e-01 4.202082405043050528e-01
3.480636059966544238e-01 4.118363723895086537e-01
3.491041548933198069e-01 4.036019316843955096e-01
3.501447037899851900e-01 3.322458492626623183e-01
3.511852526866505730e-01 3.734524973715416252e-01
3.522258015833159561e-01 6.085830586016527377e-01
3.532663504799813392e-01 3.785783631154018281e-01
3.543068993766467223e-01 2.788246592173315719e-01
3.553474482733121054e-01 1.481850078417643601e-01
3.563879971699774885e-01 8.244008261124591286e-02
3.574285460666428715e-01 1.972942791225307246e-01
3.584690949633082546e-01 4.755829674664049378e-01
3.595096438599736377e-01 4.464250615143328105e-01
3.605501927566390208e-01 4.983042789506946235e-01
3.615907416533044039e-01 7.298418233051826576e-01
3.626312905499697870e-01 5.963165287426512862e-01
3.636718394466351700e-01 5.362537063588739272e-01
3.647123883433005531e-01 4.787272491854075440e-01
3.657529372399659362e-01 8.147143903596187897e-02
3.667934861366313193e-01 2.191261880413080121e-01
3.678340350332967024e-01 3.892057489965701222e-01
3.688745839299620854e-01 2.211255605035944427e-01
3.699151328266274685e-01 3.481777987619665282e-01
3.709556817232928516e-01 4.300998253054437725e-01
3.719962306199582347e-01 4.650290459483095162e-01
3.730367795166236178e-01 3.588719856454609669e-01
3.740773284132890009e-01 2.650996377543393123e-01
3.751178773099543839e-01 2.981705464769461855e-01
3.761584262066197670e-01 5.343311608369951671e-01
3.771989751032851501e-01 4.280531874429058803e-01
3.782395239999505332e-01 1.681199427278983194e-01
3.792800728966159163e-01 4.034637764159185735e-01
3.803206217932812994e-01 5.898379453045450305e-01
3.813611706899466824e-01 3.439010504793991174e-01
3.824017195866120655e-01 3.378025710895968814e-01
3.834422684832774486e-01 5.339253208529370909e-01
3.844828173799428317e-01 6.700277647682462145e-01
3.855233662766082148e-01 4.258078637155122692e-01
3.865639151732735979e-01 5.084098322379482227e-01
3.876044640699389809e-01 5.375366643918368936e-01
3.886450129666043640e-01 1.539558719776259466e-01
3.896855618632697471e-01 3.122435726506509468e-01
3.907261107599351302e-01 3.728311471238257013e-01
3.917666596566005133e-01 3.860512359196022203e-01
3.928072085532658964e-01 2.156874089639018166e-01
3.938477574499312794e-01 3.014372049590221536e-01
3.948883063465966625e-01 2.488042726875576705e-01
3.959288552432620456e-01 3.056224467013102242e-01
3.969694041399274287e-01 1.973164559348141722e-01
3.980099530365928118e-01 1.358143076463136367e-01
3.990505019332581949e-01 8.179691119661569587e-02
4.000910508299235779e-01 2.567373716808027950e-01
4.011315997265889610e-01 3.521124118375738021e-01
4.021721486232543441e-01 2.057254752818700183e-01
4.032126975199197272e-01 2.763984424661600769e-01
4.042532464165851103e-01 4.363271532464843006e-01
4.052937953132504934e-01 5.083270152780912099e-01
4.063343442099158764e-01 3.357092116102435853e-01
4.073748931065812595e-01 3.690979799365088354e-01
4.084154420032466426e-01 2.479713497602986649e-01
4.094559908999120257e-01 0.000000000000000000e+00
4.104965397965774088e-01 1.344697926267883759e-01
4.115370886932427918e-01 1.948143171372116456e-01
4.125776375899081749e-01 4.040093403635687253e-01
4.136181864865735580e-01 5.741795182153737187e-01
4.146587353832389411e-01 4.543847017450666215e-01
4.156992842799043242e-01 2.861933556131184275e-01
4.167398331765697073e-01 2.271237530555580975e-01
4.177803820732350903e-01 4.910807897252666976e-01
4.188209309699004734e-01 5.644998960223759354e-01
4.198614798665658565e-01 4.536411375693738535e-01
4.209020287632312396e-01 5.392579364025031907e-01
4.219425776598966227e-01 3.783945330229911974e-01
4.229831265565620058e-01 4.706821396817346681e-01
4.240236754532273888e-01 4.109109379928312933e-01
4.250642243498927719e-01 3.059645423014316634e-01
4.261047732465581550e-01 2.904838980915869229e-01
4.271453221432235381e-01 3.283224638717179289e-01
4.281858710398889212e-01 1.545078292795345476e-01
4.292264199365543043e-01 1.869752974563638759e-01
4.302669688332196873e-01 1.576635917210502669e-01
4.313075177298850704e-01 2.403069749531070443e-01
4.323480666265504535e-01 2.734850393192154172e-01
4.333886155232158366e-01 4.056605486672246741e-01
4.344291644198812197e-01 2.907246321055509952e-01
