# q (1/Angstrom), Intensity (arb)
2.029070354705860696e-02 7.316306925473219280e+01
2.133125244372399004e-02 6.229566120232874482e+01
2.237180134038937659e-02 5.411296594895384260e+01
2.341235023705475968e-02 4.810531277983375276e+01
2.445289913372014276e-02 4.348565455631799637e+01
2.549344803038552584e-02 4.011251197266560098e+01
2.653399692705091240e-02 3.510634453988619441e+01
2.757454582371629548e-02 3.145030378737212118e+01
2.861509472038167856e-02 2.842988576611801932e+01
2.965564361704706164e-02 2.444844218337470920e+01
3.069619251371244473e-02 2.268221320935936092e+01
3.173674141037782781e-02 2.136803605927859451e+01
3.277729030704321089e-02 1.948045423910335217e+01
3.381783920370859398e-02 1.810238534649936781e+01
3.485838810037397706e-02 1.657070146934476185e+01
3.589893699703936014e-02 1.638190117110379873e+01
3.693948589370474322e-02 1.552058179499985613e+01
3.798003479037012631e-02 1.436204383924497563e+01
3.902058368703550939e-02 1.338233544006241260e+01
4.006113258370089247e-02 1.432944661412894050e+01
4.110168148036627556e-02 1.480972188517681332e+01
4.214223037703165864e-02 1.450215943429685694e+01
4.318277927369704866e-02 1.363096507849936501e+01
4.422332817036243174e-02 1.243792872942498917e+01
4.526387706702781483e-02 1.285958444730048456e+01
4.630442596369319791e-02 1.288888776648958867e+01
4.734497486035858099e-02 1.212108298037294674e+01
4.838552375702396408e-02 1.172106436427656462e+01
4.942607265368934716e-02 1.098779119088279543e+01
5.046662155035473024e-02 1.151153069979684318e+01
5.150717044702011332e-02 1.136542435815317020e+01
5.254771934368549641e-02 1.073523482844091603e+01
5.358826824035087949e-02 1.077750751622316017e+01
5.462881713701626257e-02 1.144635484921703750e+01
5.566936603368164566e-02 1.136295401227405222e+01
5.670991493034702874e-02 1.084442746385329315e+01
5.775046382701241182e-02 1.087221686639141183e+01
5.879101272367779490e-02 1.148127557284783506e+01
5.983156162034317799e-02 1.186341927680011565e+01
6.087211051700856107e-02 1.158295421106449652e+01
6.191265941367394415e-02 1.170074250566607788e+01
6.295320831033933417e-02 1.167785323507907691e+01
6.399375720700471726e-02 1.152126015748033439e+01
6.503430610367010034e-02 1.198579762542154725e+01
6.607485500033548342e-02 1.261781107253393230e+01
6.711540389700086651e-02 1.283505916810270975e+01
6.815595279366624959e-02 1.286079933565466860e+01
6.919650169033163267e-02 1.248010052409309623e+01
7.023705058699701576e-02 1.364732816277437166e+01
7.127759948366239884e-02 1.485331986357343226e+01
7.231814838032778192e-02 1.589642340370052409e+01
7.335869727699316500e-02 1.697136398426204806e+01
7.439924617365854809e-02 1.793056888905885415e+01
7.543979507032393117e-02 1.923024097112988784e+01
7.648034396698931425e-02 2.069046880264200183e+01
7.752089286365469734e-02 2.320136357363580970e+01
7.856144176032008042e-02 2.590921069223904993e+01
7.960199065698546350e-02 3.052491154683539776e+01
8.064253955365084658e-02 3.589572710800089794e+01
8.168308845031622967e-02 4.517199500395363287e+01
8.272363734698161275e-02 5.865110943354938655e+01
8.376418624364699583e-02 7.738650434826999458e+01
8.480473514031239279e-02 1.025382130197054948e+02
8.584528403697777588e-02 1.367997140799655824e+02
8.688583293364315896e-02 1.797135009159610490e+02
8.792638183030854204e-02 2.193923730410484154e+02
8.896693072697392513e-02 2.434114610864728547e+02
9.000747962363930821e-02 2.591128382266977042e+02
9.104802852030469129e-02 2.706033802845143441e+02
9.208857741697007437e-02 2.661859118045140917e+02
9.312912631363545746e-02 2.361390240491865882e+02
9.416967521030084054e-02 1.958577392259028613e+02
9.521022410696622362e-02 1.606862960163863363e+02
9.625077300363160671e-02 1.332179855116146143e+02
9.729132190029698979e-02 1.116632499061811501e+02
9.833187079696237287e-02 9.508196388322089376e+01
9.937241969362775595e-02 8.174709757025587464e+01
1.004129685902931390e-01 7.158531953858938834e+01
1.014535174869585221e-01 6.463943625386187364e+01
1.024940663836239052e-01 5.884478386138470540e+01
1.035346152802892883e-01 5.308572872639995666e+01
1.045751641769546714e-01 4.760672346615611872e+01
1.056157130736200545e-01 4.242892064263861585e+01
1.066562619702854375e-01 3.634689545751921003e+01
1.076968108669508206e-01 2.997098767086519189e+01
1.087373597636162037e-01 2.350019998643715979e+01
1.097779086602815868e-01 1.872169671335471719e+01
1.108184575569469699e-01 1.464588957826521209e+01
1.118590064536123529e-01 1.217613899082733298e+01
1.128995553502777360e-01 1.046122028682126626e+01
1.139401042469431191e-01 8.703644684083485572e+00
1.149806531436085022e-01 6.880978509939076559e+00
1.160212020402738853e-01 6.263670695745894079e+00
1.170617509369392684e-01 5.718794748705114728e+00
1.181022998336046514e-01 4.391285900712567525e+00
1.191428487302700345e-01 4.082288611094263331e+00
1.201833976269354176e-01 3.808657623860568719e+00
1.212239465236008007e-01 3.570564555397609752e+00
1.222644954202661838e-01 3.587730304333916820e+00
1.233050443169315669e-01 3.261433281559042996e+00
1.243455932135969499e-01 2.922796680214112541e+00
1.253861421102623330e-01 2.816801194082145798e+00
1.264266910069277161e-01 4.147180576634326599e+00
1.274672399035930992e-01 4.145295197714318647e+00
1.285077888002584823e-01 2.404952557616290676e+00
1.295483376969238654e-01 2.171074774653916961e+00
1.305888865935892484e-01 2.344671146731116096e+00
1.316294354902546315e-01 2.304806577469499018e+00
1.326699843869200146e-01 2.121443657749487954e+00
1.337105332835853977e-01 1.856970231381588121e+00
1.347510821802507808e-01 2.212727962198350440e+00
1.357916310769161639e-01 2.313248199928636950e+00
1.368321799735815469e-01 2.689170329434624307e+00
1.378727288702469300e-01 3.059553875303436143e+00
1.389132777669123131e-01 2.902439207564185608e+00
1.399538266635776962e-01 2.998093915630050788e+00
1.409943755602430793e-01 3.696779891098238124e+00
1.420349244569084624e-01 4.415650033443533573e+00
1.430754733535738454e-01 4.575451746357259708e+00
1.441160222502392285e-01 5.211969381637118204e+00
1.451565711469046116e-01 5.386861879617384830e+00
1.461971200435699947e-01 5.393363452446116924e+00
1.472376689402353778e-01 5.775054404429763366e+00
1.482782178369007609e-01 5.925237368284907546e+00
1.493187667335661439e-01 6.058189012478820246e+00
1.503593156302315270e-01 6.303385626899235206e+00
1.513998645268969101e-01 5.829931793103099835e+00
1.524404134235622932e-01 5.228681452474248204e+00
1.534809623202276763e-01 4.653221876380573718e+00
1.545215112168930593e-01 4.481553020657191411e+00
1.555620601135584424e-01 4.566918964122205438e+00
1.566026090102238255e-01 4.428052619605903573e+00
1.576431579068892086e-01 4.492122076900830763e+00
1.586837068035545917e-01 4.459477450082758310e+00
1.597242557002199748e-01 4.629341353617764554e+00
1.607648045968853578e-01 4.841289406564314390e+00
1.618053534935507409e-01 4.755952298788177046e+00
1.628459023902161240e-01 4.949415697950279025e+00
1.638864512868815071e-01 5.214155511912512253e+00
1.649270001835468902e-01 5.854695433056068765e+00
1.659675490802122733e-01 6.777614953735813685e+00
1.670080979768776563e-01 8.043705791834437235e+00
1.680486468735430672e-01 8.916124769936232042e+00
1.690891957702084503e-01 9.917193997019992935e+00
1.701297446668738333e-01 9.617621025885934927e+00
1.711702935635392164e-01 9.597837064519950445e+00
1.722108424602045995e-01 9.453171988646218438e+00
1.732513913568699826e-01 1.036296625992720166e+01
1.742919402535353657e-01 1.165555924524676712e+01
1.753324891502007488e-01 1.200447220010643079e+01
1.763730380468661318e-01 1.194751893836318857e+01
1.774135869435315149e-01 1.101110156404919138e+01
1.784541358401968980e-01 9.842107039288787718e+00
1.794946847368622811e-01 8.658255465117818517e+00
1.805352336335276642e-01 7.792425424757105645e+00
1.815757825301930473e-01 7.228582753285468954e+00
1.826163314268584303e-01 6.665827486077073871e+00
1.836568803235238134e-01 6.252355689554253360e+00
1.846974292201891965e-01 5.611097818760892864e+00
1.857379781168545796e-01 4.923435236032442930e+00
1.867785270135199627e-01 4.275159005720741590e+00
1.878190759101853458e-01 3.680954704976056036e+00
1.888596248068507288e-01 3.345880413803563158e+00
1.899001737035161119e-01 3.094479630467368736e+00
1.909407226001814950e-01 2.350868049698021878e+00
1.919812714968468781e-01 2.342800038108666882e+00
1.930218203935122612e-01 2.247258617842987860e+00
1.940623692901776443e-01 2.106543416838501770e+00
1.951029181868430273e-01 1.954848802028784860e+00
1.961434670835084104e-01 1.774080653697648557e+00
1.971840159801737935e-01 1.536141242310293364e+00
1.982245648768391766e-01 1.602088711972971424e+00
1.992651137735045597e-01 1.660749553962951097e+00
2.003056626701699428e-01 1.590752916943429796e+00
2.013462115668353813e-01 1.621793544668179265e+00
2.023867604635007644e-01 1.646559330351784922e+00
2.034273093601661475e-01 1.507176281246795924e+00
2.044678582568315306e-01 1.451291683301946023e+00
2.055084071534969137e-01 1.730240102012079006e+00
2.065489560501622968e-01 1.473726972849163985e+00
2.075895049468276798e-01 1.550159894539891781e+00
2.086300538434930629e-01 1.598535109883499672e+00
2.096706027401584460e-01 1.292466778376763159e+00
2.107111516368238291e-01 1.582111894065661772e+00
2.117517005334892122e-01 1.633176486800568483e+00
2.127922494301545953e-01 1.602923537637458651e+00
2.138327983268199783e-01 1.680944706662305776e+00
2.148733472234853614e-01 1.584855477112842692e+00
2.159138961201507445e-01 1.640067696331122704e+00
2.169544450168161276e-01 1.755175638301800234e+00
2.179949939134815107e-01 1.778727723718972697e+00
2.190355428101468938e-01 1.829318321022142868e+00
2.200760917068122768e-01 1.765480889046425972e+00
2.211166406034776599e-01 1.547124148316243009e+00
2.221571895001430430e-01 1.626364976102955495e+00
2.231977383968084261e-01 1.587277086880998667e+00
2.242382872934738092e-01 1.404668308491942241e+00
2.252788361901391923e-01 1.288461894407245012e+00
2.263193850868045753e-01 1.561669705350759330e+00
2.273599339834699584e-01 1.460520362136719541e+00
2.284004828801353415e-01 1.517032723882206113e+00
2.294410317768007246e-01 1.467048337716022388e+00
2.304815806734661077e-01 1.285888122629359032e+00
2.315221295701314908e-01 1.544340352146711837e+00
2.325626784667968738e-01 1.480757621625862441e+00
2.336032273634622569e-01 1.312544044451716019e+00
2.346437762601276400e-01 1.274931466898397758e+00
2.356843251567930231e-01 1.383449321020925993e+00
2.367248740534584062e-01 1.412908987338912681e+00
2.377654229501237892e-01 1.463383730394532733e+00
2.388059718467891723e-01 1.538943531607859683e+00
2.398465207434545554e-01 1.302866545561634837e+00
2.408870696401199385e-01 1.091265548525417017e+00
2.419276185367853216e-01 1.141833376534428623e+00
2.429681674334507047e-01 1.332216435053133807e+00
2.440087163301160877e-01 1.553328366431081520e+00
2.450492652267814708e-01 1.236538763223691717e+00
2.460898141234468539e-01 1.149704957524281923e+00
2.471303630201122370e-01 1.595889108158470293e+00
2.481709119167776201e-01 2.007843171123958825e+00
2.492114608134430032e-01 1.863476879311232182e+00
2.502520097101083585e-01 1.564424291935495148e+00
2.512925586067737416e-01 1.530767243028101632e+00
2.523331075034391247e-01 1.545735548800422521e+00
2.533736564001045077e-01 1.571855897717007622e+00
2.544142052967698908e-01 1.611093025051960836e+00
2.554547541934352739e-01 1.745460953275166816e+00
2.564953030901006570e-01 1.920787877591283888e+00
2.575358519867660401e-01 1.790335872129610095e+00
2.585764008834314231e-01 1.770491797624579533e+00
2.596169497800968062e-01 1.943518220781001560e+00
2.606574986767621893e-01 1.892214491106809504e+00
2.616980475734275724e-01 1.632009069972152560e+00
2.627385964700929555e-01 1.782455813080257911e+00
2.637791453667583386e-01 1.646009484252413557e+00
2.648196942634237216e-01 1.264401694312361712e+00
2.658602431600891047e-01 1.276627892445706181e+00
2.669007920567544878e-01 1.340742069024383198e+00
2.679413409534198709e-01 1.300066581060768556e+00
2.689818898500852540e-01 9.329359214058001726e-01
2.700224387467506371e-01 1.086164228947701815e+00
2.710629876434160201e-01 1.227226242869573269e+00
2.721035365400814032e-01 1.375704605795608160e+00
2.731440854367467863e-01 1.447955338931937064e+00
2.741846343334121694e-01 1.261353578001237707e+00
2.752251832300775525e-01 1.499612550257964472e+00
2.762657321267429356e-01 1.437163599122758484e+00
2.773062810234083186e-01 1.315350297888937092e+00
2.783468299200737017e-01 1.380302479899441437e+00
2.793873788167390848e-01 1.193428840786850742e+00
2.804279277134044679e-01 1.276798593399181669e+00
2.814684766100698510e-01 1.334895939973112178e+00
2.825090255067352341e-01 1.368763990667204666e+00
2.835495744034006171e-01 1.384245256494534004e+00
2.845901233000660002e-01 9.171571439216883448e-01
2.856306721967313833e-01 1.246833687328997797e+00
2.866712210933967664e-01 1.534208076211239558e+00
2.877117699900621495e-01 1.349820005173011594e+00
2.887523188867275326e-01 1.118317802620659052e+00
2.897928677833929156e-01 1.007248047612776531e+00
2.908334166800582987e-01 1.007373260081124045e+00
2.918739655767236818e-01 1.055960124498945163e+00
2.929145144733890649e-01 1.097648898977205079e+00
2.939550633700544480e-01 1.100271612324860371e+00
2.949956122667198311e-01 8.700614534401260869e-01
2.960361611633852141e-01 9.591178866690484028e-01
2.970767100600505972e-01 9.559958337796956584e-01
2.981172589567159803e-01 9.719279609707562884e-01
2.991578078533813634e-01 8.568554826632777122e-01
3.001983567500468020e-01 7.348620782302042187e-01
3.012389056467121851e-01 1.075566497264073718e+00
3.022794545433775681e-01 1.021382271240973694e+00
3.033200034400429512e-01 7.600020074611393284e-01
3.043605523367083343e-01 9.727939735749053796e-01
3.054011012333737174e-01 7.854626886583915280e-01
3.064416501300391005e-01 8.700862054556317560e-01
3.074821990267044836e-01 9.533482807868232101e-01
3.085227479233698666e-01 8.026983620199139580e-01
3.095632968200352497e-01 7.861685340287571933e-01
3.106038457167006328e-01 8.035593484722660662e-01
3.116443946133660159e-01 8.287129137158828485e-01
3.126849435100313990e-01 1.136399022596265240e+00
3.137254924066967821e-01 7.442411274718168102e-01
3.147660413033621651e-01 7.287128009544119323e-01
3.158065902000275482e-01 7.102500057155829438e-01
3.168471390966929313e-01 7.657078422857317435e-01
3.178876879933583144e-01 1.035735435771016455e+00
3.189282368900236975e-01 8.841307570512171310e-01
3.199687857866890806e-01 7.520588981805964579e-01
3.210093346833544636e-01 8.500381760680291165e-01
3.220498835800198467e-01 7.380268284066104911e-01
3.230904324766852298e-01 8.346274432655853559e-01
3.241309813733506129e-01 9.096230774011857534e-01
3.251715302700159960e-01 7.933704126104075272e-01
3.262120791666813790e-01 7.090465270132106923e-01
3.272526280633467621e-01 1.014048842270835138e+00
3.282931769600121452e-01 1.211950871355387704e+00
3.293337258566775283e-01 9.536796675002712220e-01
3.303742747533429114e-01 8.434326246936443283e-01
3.314148236500082945e-01 9.246076024066205434e-01
3.324553725466736775e-01 1.066002414861209502e+00
3.334959214433390606e-01 9.416643723245918807e-01
3.345364703400044437e-01 9.397322069896603125e-01
3.355770192366698268e-01 1.033052325142225669e+00
3.366175681333352099e-01 1.073020931077071083e+00
3.376581170300005930e-01 1.006646851401974629e+00
3.386986659266659760e-01 6.370633176566613542e-01
3.397392148233313591e-01 7.611025029267182163e-01
3.407797637199967422e-01 5.717859132073712658e-01
3.418203126166621253e-01 7.531105970819673701e-01
3.428608615133275084e-01 8.358603993999338400e-01
3.439014104099928915e-01 9.143251183931155879e-01
3.449419593066582745e-01 1.010389886309678076e+00
3.459825082033236576e-01 1.024836676443229067e+00
3.470230570999890407e-01 9.086537062077368887e-01
3.480636059966544238e-01 8.517759435312193261e-01
3.491041548933198069e-01 7.805772055966677669e-01
3.501447037899851900e-01 5.780841905806859415e-01
3.511852526866505730e-01 6.276185750382552442e-01
3.522258015833159561e-01 6.630109259527259269e-01
3.532663504799813392e-01 8.260863515559755399e-01
3.543068993766467223e-01 1.096504667744184758e+00
3.553474482733121054e-01 9.386655024700161221e-01
3.563879971699774885e-01 7.248841561354240071e-01
3.574285460666428715e-01 9.673941014131948180e-01
3.584690949633082546e-01 8.164823297427759030e-01
3.595096438599736377e-01 6.807320508787455537e-01
3.605501927566390208e-01 5.922389845723934343e-01
3.615907416533044039e-01 8.337815648343820385e-01
3.626312905499697870e-01 9.884874747567309328e-01
3.636718394466351700e-01 9.112271023477411802e-01
3.647123883433005531e-01 7.849528876203173411e-01
3.657529372399659362e-01 8.490266384293789770e-01
3.667934861366313193e-01 7.771351559933350472e-01
3.678340350332967024e-01 7.184527404033680398e-01
3.688745839299620854e-01 6.764155281003638720e-01
3.699151328266274685e-01 4.572733700269786539e-01
3.709556817232928516e-01 4.599905589011967777e-01
3.719962306199582347e-01 6.275133332809339493e-01
3.730367795166236178e-01 4.164544141982240433e-01
3.740773284132890009e-01 4.661353000638648325e-01
3.751178773099543839e-01 5.965596020142918121e-01
3.761584262066197670e-01 5.348645038303914134e-01
3.771989751032851501e-01 5.116419693658293966e-01
3.782395239999505332e-01 2.848565825010354047e-01
3.792800728966159163e-01 5.320514835570300249e-01
3.803206217932812994e-01 8.706830862767809265e-01
3.813611706899466824e-01 6.069562363227447577e-01
3.824017195866120655e-01 7.691293851594416253e-01
3.834422684832774486e-01 8.853669486553705781e-01
3.844828173799428317e-01 7.332110501972657346e-01
3.855233662766082148e-01 7.401223380683745745e-01
3.865639151732735979e-01 6.573428768059201843e-01
3.876044640699389809e-01 6.906809275886622856e-01
3.886450129666043640e-01 6.888895499393825617e-01
3.896855618632697471e-01 7.049863867647303550e-01
3.907261107599351302e-01 5.790825181980494563e-01
3.917666596566005133e-01 5.142929807629599281e-01
3.928072085532658964e-01 5.155567652175285787e-01
3.938477574499312794e-01 4.089497919838045448e-01
3.948883063465966625e-01 5.381742164969871567e-01
3.959288552432620456e-01 4.949328016251151041e-01
3.969694041399274287e-01 3.838165868221139476e-01
3.980099530365928118e-01 4.953920119947845535e-01
3.990505019332581949e-01 4.560559413206064505e-01
4.000910508299235779e-01 5.512129188656658130e-01
4.011315997265889610e-01 6.797973946083324392e-01
4.021721486232543441e-01 5.723404363650352877e-01
4.032126975199197272e-01 4.806399628539494984e-01
4.042532464165851103e-01 5.124983350567262619e-01
4.052937953132504934e-01 3.293943598447661714e-01
4.063343442099158764e-01 2.050860971899872709e-01
4.073748931065812595e-01 5.311882436340162883e-01
4.084154420032466426e-01 7.774695673612050939e-01
4.094559908999120257e-01 7.330645327228886288e-01
4.104965397965774088e-01 6.975425048059769040e-01
4.115370886932427918e-01 5.132850377130502295e-01
4.125776375899081749e-01 4.796667967245475950e-01
4.136181864865735580e-01 5.469950506216569863e-01
4.146587353832389411e-01 6.212381678273040109e-01
4.156992842799043242e-01 6.441401662170882503e-01
4.167398331765697073e-01 7.260183827722670458e-01
4.177803820732350903e-01 4.190122529154756137e-01
4.188209309699004734e-01 4.939616826632544644e-01
4.198614798665658565e-01 6.089748908242214043e-01
4.209020287632312396e-01 7.093631882388571341e-01
4.219425776598966227e-01 6.328668921252962321e-01
4.229831265565620058e-01 7.087865900458503177e-01
4.240236754532273888e-01 7.333455624509745974e-01
4.250642243498927719e-01 4.382654724393049150e-01
4.261047732465581550e-01 4.214565155496643456e-01
4.271453221432235381e-01 5.607094302887034587e-01
4.281858710398889212e-01 6.075120910237821192e-01
4.292264199365543043e-01 7.039259910795330200e-01
4.302669688332196873e-01 5.949239148419991352e-01
4.313075177298850704e-01 6.506462987950953902e-01
4.323480666265504535e-01 6.148951375997064872e-01
4.333886155232158366e-01 7.562775483199928317e-01
4.344291644198812197e-01 6.499707430684509291e-01
