# q (1/Angstrom), Intensity (arb)
2.029070354705860696e-02 1.806162543696797798e+02
2.133125244372399004e-02 1.529447179597942181e+02
2.237180134038937659e-02 1.329247724200838547e+02
2.341235023705475968e-02 1.159869062077630701e+02
2.445289913372014276e-02 1.009769492800293733e+02
2.549344803038552584e-02 8.864437103659841455e+01
2.653399692705091240e-02 7.925161505517786509e+01
2.757454582371629548e-02 7.175404110738986674e+01
2.861509472038167856e-02 6.506845608797829073e+01
2.965564361704706164e-02 5.970745833792913970e+01
3.069619251371244473e-02 5.384028560137110730e+01
3.173674141037782781e-02 4.913510976671121000e+01
3.277729030704321089e-02 4.509433745534262528e+01
3.381783920370859398e-02 4.202423792078874953e+01
3.485838810037397706e-02 4.056944036826037348e+01
3.589893699703936014e-02 4.017370199998400437e+01
3.693948589370474322e-02 3.749509564408894846e+01
3.798003479037012631e-02 3.509946929041792174e+01
3.902058368703550939e-02 3.430011290842396221e+01
4.006113258370089247e-02 3.311816888614744414e+01
4.110168148036627556e-02 3.193015739972771172e+01
4.214223037703165864e-02 3.046383813557147846e+01
4.318277927369704866e-02 3.042929304239603283e+01
4.422332817036243174e-02 2.970321859795723896e+01
4.526387706702781483e-02 2.925324195468024158e+01
4.630442596369319791e-02 2.944333145502861271e+01
4.734497486035858099e-02 2.990439028671048050e+01
4.838552375702396408e-02 3.081144022390270720e+01
4.942607265368934716e-02 3.134965413983857019e+01
5.046662155035473024e-02 3.147241834674584027e+01
5.150717044702011332e-02 3.280149460104959047e+01
5.254771934368549641e-02 3.406845007059821029e+01
5.358826824035087949e-02 3.568312053647400717e+01
5.462881713701626257e-02 3.817202905525773815e+01
5.566936603368164566e-02 4.091556366063608863e+01
5.670991493034702874e-02 4.389488334929406221e+01
5.775046382701241182e-02 4.757181694368262725e+01
5.879101272367779490e-02 5.287008306583198447e+01
5.983156162034317799e-02 6.047493685747439685e+01
6.087211051700856107e-02 6.940963753224662014e+01
6.191265941367394415e-02 8.131721638236668070e+01
6.295320831033933417e-02 9.710105817838234543e+01
6.399375720700471726e-02 1.200444480901092277e+02
6.503430610367010034e-02 1.606011996278783158e+02
6.607485500033548342e-02 2.325655792564157593e+02
6.711540389700086651e-02 3.435509346464575060e+02
6.815595279366624959e-02 4.984051445505718334e+02
6.919650169033163267e-02 6.930768262804807591e+02
7.023705058699701576e-02 9.225156591689524248e+02
7.127759948366239884e-02 1.118852892418309239e+03
7.231814838032778192e-02 1.163106030562160413e+03
7.335869727699316500e-02 9.916905014595506600e+02
7.439924617365854809e-02 7.236608660017780039e+02
7.543979507032393117e-02 5.129461578153610617e+02
7.648034396698931425e-02 3.833136356039800603e+02
7.752089286365469734e-02 3.007508731971984730e+02
7.856144176032008042e-02 2.465058716000236245e+02
7.960199065698546350e-02 2.097868171478783950e+02
8.064253955365084658e-02 1.862306523441946524e+02
8.168308845031622967e-02 1.675937487876047953e+02
8.272363734698161275e-02 1.479561463986927095e+02
8.376418624364699583e-02 1.213923810947987079e+02
8.480473514031239279e-02 8.834266369396257801e+01
8.584528403697777588e-02 6.009222091781970931e+01
8.688583293364315896e-02 4.051115954238011341e+01
8.792638183030854204e-02 2.879742015308558223e+01
8.896693072697392513e-02 2.058679012874470260e+01
9.000747962363930821e-02 1.590613220992351984e+01
9.104802852030469129e-02 1.249936339624838411e+01
9.208857741697007437e-02 9.865665103842111705e+00
9.312912631363545746e-02 8.558303929865736848e+00
9.416967521030084054e-02 7.571472153117397852e+00
9.521022410696622362e-02 6.599562873933287221e+00
9.625077300363160671e-02 5.932223631761345928e+00
9.729132190029698979e-02 5.704951373237726386e+00
9.833187079696237287e-02 5.630358785644745012e+00
9.937241969362775595e-02 5.012903269394684003e+00
1.004129685902931390e-01 4.789956509213567415e+00
1.014535174869585221e-01 4.626547319638362410e+00
1.024940663836239052e-01 4.574702463778301365e+00
1.035346152802892883e-01 4.750010698475357174e+00
1.045751641769546714e-01 5.164314039673051582e+00
1.056157130736200545e-01 5.502255093879739434e+00
1.066562619702854375e-01 6.247252076362109108e+00
1.076968108669508206e-01 6.595312162049779658e+00
1.087373597636162037e-01 7.236529209422954523e+00
1.097779086602815868e-01 8.676978458636000369e+00
1.108184575569469699e-01 1.013552755511661729e+01
1.118590064536123529e-01 1.280301293029039300e+01
1.128995553502777360e-01 1.699589234003951788e+01
1.139401042469431191e-01 2.272790823045310304e+01
1.149806531436085022e-01 2.958471194211408317e+01
1.160212020402738853e-01 3.521896431347427381e+01
1.170617509369392684e-01 4.028662393369398131e+01
1.181022998336046514e-01 4.252558182304063905e+01
1.191428487302700345e-01 3.985418836692080191e+01
1.201833976269354176e-01 3.406280103908710544e+01
1.212239465236008007e-01 2.713014271892780727e+01
1.222644954202661838e-01 2.291396139459169490e+01
1.233050443169315669e-01 2.038230221011995980e+01
1.243455932135969499e-01 1.841535745928181456e+01
1.253861421102623330e-01 1.774201117113187109e+01
1.264266910069277161e-01 1.711183798743912376e+01
1.274672399035930992e-01 1.699268885675243013e+01
1.285077888002584823e-01 1.757808261313625309e+01
1.295483376969238654e-01 1.847369292607498181e+01
1.305888865935892484e-01 2.003766960746177261e+01
1.316294354902546315e-01 2.292413510343680372e+01
1.326699843869200146e-01 2.775221892131542489e+01
1.337105332835853977e-01 3.466313191273557237e+01
1.347510821802507808e-01 4.182831487944751814e+01
1.357916310769161639e-01 4.738120866375616913e+01
1.368321799735815469e-01 5.229458457472083666e+01
1.378727288702469300e-01 5.671695943442514931e+01
1.389132777669123131e-01 5.599099681814382024e+01
1.399538266635776962e-01 4.958645396727102650e+01
1.409943755602430793e-01 4.144688771808367989e+01
1.420349244569084624e-01 3.449362956835365424e+01
1.430754733535738454e-01 2.849754182222079635e+01
1.441160222502392285e-01 2.410851593871299769e+01
1.451565711469046116e-01 2.076123472493938493e+01
1.461971200435699947e-01 1.623994262539923028e+01
1.472376689402353778e-01 1.194156072249920442e+01
1.482782178369007609e-01 9.493106833337691342e+00
1.493187667335661439e-01 7.524118946540987451e+00
1.503593156302315270e-01 6.221763281414396829e+00
1.513998645268969101e-01 5.365351420536562443e+00
1.524404134235622932e-01 4.907952446162937576e+00
1.534809623202276763e-01 4.321966826230529080e+00
1.545215112168930593e-01 3.624986967455669173e+00
1.555620601135584424e-01 3.301897354825314324e+00
1.566026090102238255e-01 2.981350008480347924e+00
1.576431579068892086e-01 2.568780867291941661e+00
1.586837068035545917e-01 2.514360522627882233e+00
1.597242557002199748e-01 2.339102625578277639e+00
1.607648045968853578e-01 2.302692548504325032e+00
1.618053534935507409e-01 2.457548804310917490e+00
1.628459023902161240e-01 2.251757362384431360e+00
1.638864512868815071e-01 2.249430076566120817e+00
1.649270001835468902e-01 1.915626964452556535e+00
1.659675490802122733e-01 1.782351326986322704e+00
1.670080979768776563e-01 1.789742411451463511e+00
1.680486468735430672e-01 1.697073745280150092e+00
1.690891957702084503e-01 1.820028257152884521e+00
1.701297446668738333e-01 1.817422171584276214e+00
1.711702935635392164e-01 2.250665585367720212e+00
1.722108424602045995e-01 2.306143754088914477e+00
1.732513913568699826e-01 2.637397892772305852e+00
1.742919402535353657e-01 3.007844453254442385e+00
1.753324891502007488e-01 3.229386394127814697e+00
1.763730380468661318e-01 3.188298571774801360e+00
1.774135869435315149e-01 3.664352514220524881e+00
1.784541358401968980e-01 4.369289366920725115e+00
1.794946847368622811e-01 5.118674605437639968e+00
1.805352336335276642e-01 5.653963755707152927e+00
1.815757825301930473e-01 5.972506766263940392e+00
1.826163314268584303e-01 6.515024285279721994e+00
1.836568803235238134e-01 6.438439318904705999e+00
1.846974292201891965e-01 6.117723668703142437e+00
1.857379781168545796e-01 6.042375726539468417e+00
1.867785270135199627e-01 6.076068344886621730e+00
1.878190759101853458e-01 5.270087883074424440e+00
1.888596248068507288e-01 4.893428178497476466e+00
1.899001737035161119e-01 4.388919530822352755e+00
1.909407226001814950e-01 3.739140600311102958e+00
1.919812714968468781e-01 3.687547927870419073e+00
1.930218203935122612e-01 3.666444415620194519e+00
1.940623692901776443e-01 3.314349134616158210e+00
1.951029181868430273e-01 3.445761249913736890e+00
1.961434670835084104e-01 3.473001775250068590e+00
1.971840159801737935e-01 3.480896455756496977e+00
1.982245648768391766e-01 3.888831577792203120e+00
1.992651137735045597e-01 4.014033597785406471e+00
2.003056626701699428e-01 4.073554830543667293e+00
2.013462115668353813e-01 4.440122734987959063e+00
2.023867604635007644e-01 4.509393922235755525e+00
2.034273093601661475e-01 4.512737913562425263e+00
2.044678582568315306e-01 4.747054725781620022e+00
2.055084071534969137e-01 4.801281302790734173e+00
2.065489560501622968e-01 4.714398003234542500e+00
2.075895049468276798e-01 4.162177153017207587e+00
2.086300538434930629e-01 3.856722549333291283e+00
2.096706027401584460e-01 3.934585422412332889e+00
2.107111516368238291e-01 3.662485475361279441e+00
2.117517005334892122e-01 3.549938727171142006e+00
2.127922494301545953e-01 3.275132741535390579e+00
2.138327983268199783e-01 3.140040229170008246e+00
2.148733472234853614e-01 3.052546129152329257e+00
2.159138961201507445e-01 3.152682876246306165e+00
2.169544450168161276e-01 3.087164189738874853e+00
2.179949939134815107e-01 2.957881266907349982e+00
2.190355428101468938e-01 2.566898125101367611e+00
2.200760917068122768e-01 2.120769279209358871e+00
2.211166406034776599e-01 1.839246164990075982e+00
2.221571895001430430e-01 1.555738176328919309e+00
2.231977383968084261e-01 1.351360773105465540e+00
2.242382872934738092e-01 1.529214535482498860e+00
2.252788361901391923e-01 1.257794723433129036e+00
2.263193850868045753e-01 1.064862905409842853e+00
2.273599339834699584e-01 1.172612292780836896e+00
2.284004828801353415e-01 1.112307109995605003e+00
2.294410317768007246e-01 9.751340314100005457e-01
2.304815806734661077e-01 9.115893343734597920e-01
2.315221295701314908e-01 1.184132660051432140e+00
2.325626784667968738e-01 1.253146725403532002e+00
2.336032273634622569e-01 1.276393644287370677e+00
2.346437762601276400e-01 1.321417248426541846e+00
2.356843251567930231e-01 1.308665677515293169e+00
2.367248740534584062e-01 1.329053974726189580e+00
2.377654229501237892e-01 1.188693767407482227e+00
2.388059718467891723e-01 1.155293973966333709e+00
2.398465207434545554e-01 1.475707976269287514e+00
2.408870696401199385e-01 1.379156484409111982e+00
2.419276185367853216e-01 1.247796057226661759e+00
2.429681674334507047e-01 1.261562584566430445e+00
2.440087163301160877e-01 1.057349640527576184e+00
2.450492652267814708e-01 1.232122457610245192e+00
2.460898141234468539e-01 1.439933386411265559e+00
2.471303630201122370e-01 1.217254729060545770e+00
2.481709119167776201e-01 9.261572696265680804e-01
2.492114608134430032e-01 1.112569654984227441e+00
2.502520097101083585e-01 1.454659886834686944e+00
2.512925586067737416e-01 1.197943149028155574e+00
2.523331075034391247e-01 1.262977039746949970e+00
2.533736564001045077e-01 1.402341666345066074e+00
2.544142052967698908e-01 1.203823399340940625e+00
2.554547541934352739e-01 1.075627989105122140e+00
2.564953030901006570e-01 7.765651692978039478e-01
2.575358519867660401e-01 9.618616494610705558e-01
2.585764008834314231e-01 8.459043465983100418e-01
2.596169497800968062e-01 1.087590260924631735e+00
2.606574986767621893e-01 1.011740712922769347e+00
2.616980475734275724e-01 1.175982436541936238e+00
2.627385964700929555e-01 1.409758647952973121e+00
2.637791453667583386e-01 1.832347518254486829e+00
2.648196942634237216e-01 1.306247318895486842e+00
2.658602431600891047e-01 1.391664060236898592e+00
2.669007920567544878e-01 1.414693228579338324e+00
2.679413409534198709e-01 1.190724319998501812e+00
2.689818898500852540e-01 1.115307270174248799e+00
2.700224387467506371e-01 1.441582649095188629e+00
2.710629876434160201e-01 1.707019776425429569e+00
2.721035365400814032e-01 1.497796038224045390e+00
2.731440854367467863e-01 1.454512830167988824e+00
2.741846343334121694e-01 1.296199027173010165e+00
2.752251832300775525e-01 1.427848244622634155e+00
2.762657321267429356e-01 1.559070319689123352e+00
2.773062810234083186e-01 1.582430073112295332e+00
2.783468299200737017e-01 1.135582294286631821e+00
2.793873788167390848e-01 1.121618334747584100e+00
2.804279277134044679e-01 1.227135596015511254e+00
2.814684766100698510e-01 1.082100862817899412e+00
2.825090255067352341e-01 8.432262135633905586e-01
2.835495744034006171e-01 1.066420560474199419e+00
2.845901233000660002e-01 1.266794187439113983e+00
2.856306721967313833e-01 9.888562347008367226e-01
2.866712210933967664e-01 6.706677291716829359e-01
2.877117699900621495e-01 5.535095787972359460e-01
2.887523188867275326e-01 4.498299720133793755e-01
2.897928677833929156e-01 6.711542406477590816e-01
2.908334166800582987e-01 6.754102959949435103e-01
2.918739655767236818e-01 4.318656475585633814e-01
2.929145144733890649e-01 4.139041546598392074e-01
2.939550633700544480e-01 7.074318375253199065e-01
2.949956122667198311e-01 8.696727495261100671e-01
2.960361611633852141e-01 8.498663965781538820e-01
2.970767100600505972e-01 7.131926272533242184e-01
2.981172589567159803e-01 8.472158776713385464e-01
2.991578078533813634e-01 1.020083885707951055e+00
3.001983567500468020e-01 7.792207901312053764e-01
3.012389056467121851e-01 5.085581975075399441e-01
3.022794545433775681e-01 4.493386890504638131e-01
3.033200034400429512e-01 5.920244554237434897e-01
3.043605523367083343e-01 6.122058015734381797e-01
3.054011012333737174e-01 6.580186405082848466e-01
3.064416501300391005e-01 6.859029074462235087e-01
3.074821990267044836e-01 6.618002931293673896e-01
3.085227479233698666e-01 5.586606922103278805e-01
3.095632968200352497e-01 5.049733776351885695e-01
3.106038457167006328e-01 5.742510163526617362e-01
3.116443946133660159e-01 7.148834350993027442e-01
3.126849435100313990e-01 7.202259101356993654e-01
3.137254924066967821e-01 8.048567399557029489e-01
3.147660413033621651e-01 8.002810622860678791e-01
3.158065902000275482e-01 6.794520936103545239e-01
3.168471390966929313e-01 4.781816433555050594e-01
3.178876879933583144e-01 5.887660107099819129e-01
3.189282368900236975e-01 4.588892496241747665e-01
3.199687857866890806e-01 4.349381061652337621e-01
3.210093346833544636e-01 4.946692190802188804e-01
3.220498835800198467e-01 7.799709019421037226e-01
3.230904324766852298e-01 8.835038706594069424e-01
3.241309813733506129e-01 6.118892095676642384e-01
3.251715302700159960e-01 4.017920045276106578e-01
3.262120791666813790e-01 5.078048870773947954e-01
3.272526280633467621e-01 4.878325027529690772e-01
3.282931769600121452e-01 4.340458537451254983e-01
3.293337258566775283e-01 3.185949518785413659e-01
3.303742747533429114e-01 6.140918311788539086e-01
3.314148236500082945e-01 7.026165513602400381e-01
3.324553725466736775e-01 4.572671106437447008e-01
3.334959214433390606e-01 1.099595373371506923e-01
3.345364703400044437e-01 2.801488521595949521e-01
3.355770192366698268e-01 5.189589454000866908e-01
3.366175681333352099e-01 6.181177477849431057e-01
3.376581170300005930e-01 5.891579923366876415e-01
3.386986659266659760e-01 5.720564596153785430e-01
3.397392148233313591e-01 6.452853989435212156e-01
3.407797637199967422e-01 4.783936267926804931e-01
3.418203126166621253e-01 4.353338131987634085e-01
3.428608615133275084e-01 4.758585316505623553e-01
3.439014104099928915e-01 5.449808301070824257e-01
3.449419593066582745e-01 5.850596277530151212e-01
3.459825082033236576e-01 5.814000999143544846e-01
3.470230570999890407e-01 5.445510615134452337e-01
3.480636059966544238e-01 6.114559859287140853e-01
3.491041548933198069e-01 5.305524783916482079e-01
3.501447037899851900e-01 7.719147201131342229e-01
3.511852526866505730e-01 7.631706743018291661e-01
3.522258015833159561e-01 6.343358515041437329e-01
3.532663504799813392e-01 6.512563363175907227e-01
3.543068993766467223e-01 4.110376291620738698e-01
3.553474482733121054e-01 2.573884045682426347e-01
3.563879971699774885e-01 4.789912080702336539e-01
3.574285460666428715e-01 3.494458204660695344e-01
3.584690949633082546e-01 2.955462061643139293e-01
3.595096438599736377e-01 5.034179079200740148e-01
3.605501927566390208e-01 5.916028549711427331e-01
3.615907416533044039e-01 4.450403312472879236e-01
3.626312905499697870e-01 4.101154592322302506e-01
3.636718394466351700e-01 3.327149891284726380e-01
3.647123883433005531e-01 4.628397645433324215e-01
3.657529372399659362e-01 4.257508650798982330e-01
3.667934861366313193e-01 2.981811959053608518e-01
3.678340350332967024e-01 4.094510654723251264e-01
3.688745839299620854e-01 6.253153371943405148e-01
3.699151328266274685e-01 4.222051310444001615e-01
3.709556817232928516e-01 3.235790257636992351e-01
3.719962306199582347e-01 4.567316450829501662e-01
3.730367795166236178e-01 2.876537540816954674e-01
3.740773284132890009e-01 1.814127930625417662e-01
3.751178773099543839e-01 1.426031250262980166e-01
3.761584262066197670e-01 2.962468841341383552e-01
3.771989751032851501e-01 3.733429884364340978e-01
3.782395239999505332e-01 4.462760697862080406e-01
3.792800728966159163e-01 2.931259993647188367e-01
3.803206217932812994e-01 3.586699326155695644e-01
3.813611706899466824e-01 4.114837335270067342e-01
3.824017195866120655e-01 3.511112216930101226e-01
3.834422684832774486e-01 1.570795906346305060e-01
3.844828173799428317e-01 2.690708050016503705e-01
3.855233662766082148e-01 3.530410640072787487e-01
3.865639151732735979e-01 2.338340217787475694e-01
3.876044640699389809e-01 1.811528284006165279e-01
3.886450129666043640e-01 1.835987632612230414e-01
3.896855618632697471e-01 2.439701629965647101e-01
3.907261107599351302e-01 5.529756980195479343e-01
3.917666596566005133e-01 4.586267664956977796e-01
3.928072085532658964e-01 2.062682141736793540e-01
3.938477574499312794e-01 8.397870702900789297e-02
3.948883063465966625e-01 1.147500536835046603e-01
3.959288552432620456e-01 3.376463682786159382e-01
3.969694041399274287e-01 2.650574434950243585e-01
3.980099530365928118e-01 1.524654744939830664e-01
3.990505019332581949e-01 3.731399134508137649e-01
4.000910508299235779e-01 4.020022938547889169e-01
4.011315997265889610e-01 2.834850214704971449e-01
4.021721486232543441e-01 2.816542703451858642e-01
4.032126975199197272e-01 3.313567180459955352e-01
4.042532464165851103e-01 3.467142944842187546e-01
4.052937953132504934e-01 3.445605272074026004e-01
4.063343442099158764e-01 3.443289146096866205e-01
4.073748931065812595e-01 2.404563908927883631e-01
4.084154420032466426e-01 3.065163402143227245e-01
4.094559908999120257e-01 3.658931972084147333e-01
4.104965397965774088e-01 2.673053970078278496e-01
4.115370886932427918e-01 5.052879239181891080e-01
4.125776375899081749e-01 4.098964519607548596e-01
4.136181864865735580e-01 1.743767074774389414e-01
4.146587353832389411e-01 1.920437249751607567e-01
4.156992842799043242e-01 2.949999408722767669e-01
4.167398331765697073e-01 2.271623120019974351e-01
4.177803820732350903e-01 3.020284683823462046e-01
4.188209309699004734e-01 2.844708265044744167e-01
4.198614798665658565e-01 4.108407625477958902e-01
4.209020287632312396e-01 4.354536314582553302e-01
4.219425776598966227e-01 4.207275206904590448e-01
4.229831265565620058e-01 3.273937256055923228e-01
4.240236754532273888e-01 2.823328743977562283e-01
4.250642243498927719e-01 2.923582847415815422e-01
4.261047732465581550e-01 3.855752752373540204e-01
4.271453221432235381e-01 3.922242441995322793e-01
4.281858710398889212e-01 4.275364645918671158e-01
4.292264199365543043e-01 4.325026595907708327e-01
4.302669688332196873e-01 3.482769659923370398e-01
4.313075177298850704e-01 2.422285655091584999e-01
4.323480666265504535e-01 1.953271198067696446e-01
4.333886155232158366e-01 3.892003631565188471e-01
4.344291644198812197e-01 2.281638782216006689e-01
