# q (1/Angstrom), Intensity (arb)
2.029070354705860696e-02 1.889366584877245714e+02
2.133125244372399004e-02 1.570517277441069268e+02
2.237180134038937659e-02 1.343682265574877022e+02
2.341235023705475968e-02 1.198566736974775324e+02
2.445289913372014276e-02 1.070675017408069039e+02
2.549344803038552584e-02 9.450389123372627864e+01
2.653399692705091240e-02 8.319170952935586172e+01
2.757454582371629548e-02 7.460482239080130284e+01
2.861509472038167856e-02 6.764641392439463630e+01
2.965564361704706164e-02 6.175314093300882234e+01
3.069619251371244473e-02 5.687121894323801996e+01
3.173674141037782781e-02 5.123681660116049841e+01
3.277729030704321089e-02 4.863611382106196857e+01
3.381783920370859398e-02 4.603114581644346970e+01
3.485838810037397706e-02 4.153527734171927221e+01
3.589893699703936014e-02 3.972391525562127157e+01
3.693948589370474322e-02 3.783843578527289253e+01
3.798003479037012631e-02 3.542161622680269062e+01
3.902058368703550939e-02 3.389402138291193012e+01
4.006113258370089247e-02 3.331265985216484893e+01
4.110168148036627556e-02 3.381216901091998750e+01
4.214223037703165864e-02 3.174642279891642715e+01
4.318277927369704866e-02 3.254695899860087849e+01
4.422332817036243174e-02 3.223235632399142503e+01
4.526387706702781483e-02 3.067363851422548748e+01
4.630442596369319791e-02 3.033991244671383924e+01
4.734497486035858099e-02 3.137906789393350948e+01
4.838552375702396408e-02 3.216545920419945048e+01
4.942607265368934716e-02 3.226918012106173705e+01
5.046662155035473024e-02 3.339857933327575523e+01
5.150717044702011332e-02 3.546494560748327274e+01
5.254771934368549641e-02 3.636593077819092201e+01
5.358826824035087949e-02 3.826487960391917653e+01
5.462881713701626257e-02 4.064597242205444161e+01
5.566936603368164566e-02 4.371471445200590011e+01
5.670991493034702874e-02 4.726427568412471203e+01
5.775046382701241182e-02 5.197466637371540799e+01
5.879101272367779490e-02 5.858890154148562601e+01
5.983156162034317799e-02 6.608320380416827788e+01
6.087211051700856107e-02 7.707189834114528537e+01
6.191265941367394415e-02 9.158667746306750246e+01
6.295320831033933417e-02 1.103699347429225384e+02
6.399375720700471726e-02 1.437094406632093069e+02
6.503430610367010034e-02 1.997974897991483374e+02
6.607485500033548342e-02 2.931531041813366301e+02
6.711540389700086651e-02 4.313381853932404510e+02
6.815595279366624959e-02 6.142458062427602954e+02
6.919650169033163267e-02 8.404942641007517068e+02
7.023705058699701576e-02 1.076723289125200154e+03
7.127759948366239884e-02 1.212974469426637370e+03
7.231814838032778192e-02 1.136516305753484858e+03
7.335869727699316500e-02 8.761387757006668835e+02
7.439924617365854809e-02 6.188843085069804602e+02
7.543979507032393117e-02 4.476593396949675139e+02
7.648034396698931425e-02 3.446756865623352155e+02
7.752089286365469734e-02 2.769662253729705412e+02
7.856144176032008042e-02 2.314003979927403520e+02
7.960199065698546350e-02 2.011776292640360850e+02
8.064253955365084658e-02 1.802666120120647406e+02
8.168308845031622967e-02 1.618223869774834895e+02
8.272363734698161275e-02 1.372595244734721405e+02
8.376418624364699583e-02 1.045790381504516517e+02
8.480473514031239279e-02 7.255374831911775857e+01
8.584528403697777588e-02 4.834178708253127610e+01
8.688583293364315896e-02 3.252383979988510276e+01
8.792638183030854204e-02 2.340819227993323892e+01
8.896693072697392513e-02 1.751913448693612452e+01
9.000747962363930821e-02 1.331780922362364805e+01
9.104802852030469129e-02 1.093588241765156255e+01
9.208857741697007437e-02 9.341111166037215696e+00
9.312912631363545746e-02 7.758209303932197543e+00
9.416967521030084054e-02 6.652226100733749092e+00
9.521022410696622362e-02 5.887644156116145666e+00
9.625077300363160671e-02 4.994784121005672262e+00
9.729132190029698979e-02 4.871911119594933837e+00
9.833187079696237287e-02 4.614529465813163256e+00
9.937241969362775595e-02 4.464820898874705790e+00
1.004129685902931390e-01 4.282864877465435427e+00
1.014535174869585221e-01 4.828035334844472004e+00
1.024940663836239052e-01 5.142236815911012116e+00
1.035346152802892883e-01 5.484800049160064361e+00
1.045751641769546714e-01 6.143604896155380857e+00
1.056157130736200545e-01 6.227857725809421652e+00
1.066562619702854375e-01 6.647081679143113320e+00
1.076968108669508206e-01 7.465496001039625185e+00
1.087373597636162037e-01 8.353286695356118230e+00
1.097779086602815868e-01 1.000362801208527230e+01
1.108184575569469699e-01 1.244063201981659006e+01
1.118590064536123529e-01 1.609708761287854628e+01
1.128995553502777360e-01 2.234785527905282976e+01
1.139401042469431191e-01 2.937965292867939127e+01
1.149806531436085022e-01 3.669603404342225872e+01
1.160212020402738853e-01 4.297014761435519858e+01
1.170617509369392684e-01 4.517590721809632726e+01
1.181022998336046514e-01 4.312607614146039481e+01
1.191428487302700345e-01 3.645341369837250767e+01
1.201833976269354176e-01 2.924933046560216354e+01
1.212239465236008007e-01 2.408917609891768308e+01
1.222644954202661838e-01 2.137483724124876971e+01
1.233050443169315669e-01 1.973541315938539498e+01
1.243455932135969499e-01 1.832210580902894037e+01
1.253861421102623330e-01 1.796747594654721070e+01
1.264266910069277161e-01 1.806855218984662059e+01
1.274672399035930992e-01 1.838216262789424604e+01
1.285077888002584823e-01 1.880564922279157969e+01
1.295483376969238654e-01 2.095975754309645822e+01
1.305888865935892484e-01 2.491400712000067585e+01
1.316294354902546315e-01 2.935306416370045213e+01
1.326699843869200146e-01 3.575276043129969850e+01
1.337105332835853977e-01 4.334835934340861030e+01
1.347510821802507808e-01 4.965867432120442970e+01
1.357916310769161639e-01 5.465582781470624951e+01
1.368321799735815469e-01 5.945466259247250207e+01
1.378727288702469300e-01 5.876969705009278755e+01
1.389132777669123131e-01 5.203985333439836580e+01
1.399538266635776962e-01 4.336930263056224533e+01
1.409943755602430793e-01 3.529888837463653317e+01
1.420349244569084624e-01 2.923624147473300638e+01
1.430754733535738454e-01 2.431619135910352725e+01
1.441160222502392285e-01 2.006773869305632019e+01
1.451565711469046116e-01 1.620881479995286156e+01
1.461971200435699947e-01 1.245650738541812785e+01
1.472376689402353778e-01 9.557929765006456080e+00
1.482782178369007609e-01 7.680293340066967289e+00
1.493187667335661439e-01 6.656458382727961975e+00
1.503593156302315270e-01 5.563632516877689227e+00
1.513998645268969101e-01 4.395463535202999594e+00
1.524404134235622932e-01 4.051313643993722735e+00
1.534809623202276763e-01 3.302643100037464308e+00
1.545215112168930593e-01 3.041850762975016664e+00
1.555620601135584424e-01 3.370861725856890700e+00
1.566026090102238255e-01 2.797267323615358237e+00
1.576431579068892086e-01 2.731115301268090434e+00
1.586837068035545917e-01 2.942134244209491101e+00
1.597242557002199748e-01 2.114868048778383525e+00
1.607648045968853578e-01 2.192307744984432816e+00
1.618053534935507409e-01 1.919353585592141087e+00
1.628459023902161240e-01 1.859779965679692282e+00
1.638864512868815071e-01 2.132761738760478920e+00
1.649270001835468902e-01 2.233568221781617069e+00
1.659675490802122733e-01 2.130193315794038256e+00
1.670080979768776563e-01 2.196253122523579293e+00
1.680486468735430672e-01 2.387960095667018834e+00
1.690891957702084503e-01 2.050456340031864499e+00
1.701297446668738333e-01 1.414771654687584146e+00
1.711702935635392164e-01 2.163515609744550261e+00
1.722108424602045995e-01 2.703209803241819031e+00
1.732513913568699826e-01 2.679707315746583163e+00
1.742919402535353657e-01 3.410374347839891129e+00
1.753324891502007488e-01 3.475830299919707045e+00
1.763730380468661318e-01 4.091693635297943388e+00
1.774135869435315149e-01 4.524838885764225438e+00
1.784541358401968980e-01 5.208652126612975053e+00
1.794946847368622811e-01 6.082250723338333387e+00
1.805352336335276642e-01 6.524173545573340505e+00
1.815757825301930473e-01 6.802849792162867004e+00
1.826163314268584303e-01 6.379064587706643863e+00
1.836568803235238134e-01 6.327256665858250528e+00
1.846974292201891965e-01 6.358531742495252104e+00
1.857379781168545796e-01 6.072253854131425044e+00
1.867785270135199627e-01 5.519950594628618035e+00
1.878190759101853458e-01 4.966705139337427966e+00
1.888596248068507288e-01 4.722247179910510795e+00
1.899001737035161119e-01 4.310281889641814246e+00
1.909407226001814950e-01 4.196412178045207497e+00
1.919812714968468781e-01 3.871437747906384175e+00
1.930218203935122612e-01 3.195065864418793922e+00
1.940623692901776443e-01 3.387623720255263038e+00
1.951029181868430273e-01 3.869227774623059446e+00
1.961434670835084104e-01 3.898658801638028137e+00
1.971840159801737935e-01 4.287914097129021940e+00
1.982245648768391766e-01 4.429582788063921583e+00
1.992651137735045597e-01 4.469948482039324489e+00
2.003056626701699428e-01 4.795843439662625940e+00
2.013462115668353813e-01 4.761286804828685604e+00
2.023867604635007644e-01 4.928111463200618658e+00
2.034273093601661475e-01 4.879055748160581629e+00
2.044678582568315306e-01 4.660066551980523997e+00
2.055084071534969137e-01 4.710400552292263399e+00
2.065489560501622968e-01 4.526945089079728035e+00
2.075895049468276798e-01 3.937031882050352039e+00
2.086300538434930629e-01 3.726529752830678888e+00
2.096706027401584460e-01 3.499878221360454233e+00
2.107111516368238291e-01 3.615116883369999812e+00
2.117517005334892122e-01 3.599070096750917713e+00
2.127922494301545953e-01 3.342890679163950551e+00
2.138327983268199783e-01 3.066376227128145615e+00
2.148733472234853614e-01 3.099221833753301070e+00
2.159138961201507445e-01 2.941335774008518200e+00
2.169544450168161276e-01 2.697012735320310384e+00
2.179949939134815107e-01 2.623627516132270188e+00
2.190355428101468938e-01 2.393683932524787394e+00
2.200760917068122768e-01 2.293364993974883248e+00
2.211166406034776599e-01 1.859501809748003609e+00
2.221571895001430430e-01 1.401733908303715026e+00
2.231977383968084261e-01 1.318897473294239120e+00
2.242382872934738092e-01 1.548744798272650769e+00
2.252788361901391923e-01 1.192301672696107318e+00
2.263193850868045753e-01 1.233408791690962403e+00
2.273599339834699584e-01 1.298494903505996945e+00
2.284004828801353415e-01 1.162661712622231391e+00
2.294410317768007246e-01 1.297775519060365923e+00
2.304815806734661077e-01 1.254693684455638447e+00
2.315221295701314908e-01 1.338985055135978541e+00
2.325626784667968738e-01 1.185332454549801184e+00
2.336032273634622569e-01 8.190061977296103635e-01
2.346437762601276400e-01 6.374902720216972796e-01
2.356843251567930231e-01 9.329784383783561452e-01
2.367248740534584062e-01 1.033834441898608958e+00
2.377654229501237892e-01 9.136326035862509798e-01
2.388059718467891723e-01 1.135990231395073380e+00
2.398465207434545554e-01 1.353065842907906102e+00
2.408870696401199385e-01 1.377573275971073485e+00
2.419276185367853216e-01 1.214930724092539549e+00
2.429681674334507047e-01 1.198962626155676503e+00
2.440087163301160877e-01 1.307297040061293103e+00
2.450492652267814708e-01 1.048612827296054206e+00
2.460898141234468539e-01 1.257505701108769358e+00
2.471303630201122370e-01 1.355354413462389829e+00
2.481709119167776201e-01 1.177184043903768185e+00
2.492114608134430032e-01 1.149931630320878639e+00
2.502520097101083585e-01 1.136630403315287197e+00
2.512925586067737416e-01 1.087388349444296409e+00
2.523331075034391247e-01 1.012098232588389379e+00
2.533736564001045077e-01 9.895949336942599928e-01
2.544142052967698908e-01 1.005163517205772905e+00
2.554547541934352739e-01 1.129965843584070484e+00
2.564953030901006570e-01 1.196425117113914638e+00
2.575358519867660401e-01 1.323366573205078112e+00
2.585764008834314231e-01 1.423243768288138256e+00
2.596169497800968062e-01 1.324587399253026376e+00
2.606574986767621893e-01 1.526140725350906280e+00
2.616980475734275724e-01 1.293834394976876467e+00
2.627385964700929555e-01 1.531919243373916828e+00
2.637791453667583386e-01 1.420900620162509398e+00
2.648196942634237216e-01 1.461331067227547464e+00
2.658602431600891047e-01 1.528621217733999060e+00
2.669007920567544878e-01 1.409860820133364001e+00
2.679413409534198709e-01 1.300324205176480064e+00
2.689818898500852540e-01 1.430447540251581273e+00
2.700224387467506371e-01 1.262443915222007718e+00
2.710629876434160201e-01 1.349090153939513925e+00
2.721035365400814032e-01 1.244570473372970554e+00
2.731440854367467863e-01 1.508553983972539925e+00
2.741846343334121694e-01 1.360379091845477006e+00
2.752251832300775525e-01 1.383276863018132019e+00
2.762657321267429356e-01 1.281475587329051535e+00
2.773062810234083186e-01 9.125120414882701425e-01
2.783468299200737017e-01 1.191778947334888983e+00
2.793873788167390848e-01 1.081911830624900261e+00
2.804279277134044679e-01 9.870899255965888131e-01
2.814684766100698510e-01 9.989038513441172995e-01
2.825090255067352341e-01 8.170455767491446863e-01
2.835495744034006171e-01 8.137716114918127630e-01
2.845901233000660002e-01 1.149949269708852029e+00
2.856306721967313833e-01 9.274108787033128465e-01
2.866712210933967664e-01 8.583152525276247502e-01
2.877117699900621495e-01 8.526165635167153312e-01
2.887523188867275326e-01 7.223380164668746772e-01
2.897928677833929156e-01 6.830287285473026770e-01
2.908334166800582987e-01 9.218558386300905738e-01
2.918739655767236818e-01 7.185189731425332127e-01
2.929145144733890649e-01 8.276897960632396689e-01
2.939550633700544480e-01 5.957325287918742163e-01
2.949956122667198311e-01 5.572980958345929992e-01
2.960361611633852141e-01 5.474810665787828157e-01
2.970767100600505972e-01 5.946785418875357720e-01
2.981172589567159803e-01 7.137013671213345845e-01
2.991578078533813634e-01 5.159042310450168145e-01
3.001983567500468020e-01 3.770993246779070773e-01
3.012389056467121851e-01 5.401077257505662033e-01
3.022794545433775681e-01 5.153688200035020373e-01
3.033200034400429512e-01 6.428147456975175089e-01
3.043605523367083343e-01 7.024421053946348081e-01
3.054011012333737174e-01 6.781745202409297235e-01
3.064416501300391005e-01 5.384841382294283108e-01
3.074821990267044836e-01 6.177402492046013549e-01
3.085227479233698666e-01 5.760494616952946956e-01
3.095632968200352497e-01 4.681818653941789421e-01
3.106038457167006328e-01 5.205710814549995291e-01
3.116443946133660159e-01 4.344920678400470138e-01
3.126849435100313990e-01 5.289274811060451498e-01
3.137254924066967821e-01 7.049654776743636830e-01
3.147660413033621651e-01 7.313629011093851773e-01
3.158065902000275482e-01 6.177955772006775703e-01
3.168471390966929313e-01 6.338936073427845486e-01
3.178876879933583144e-01 5.740692005322962643e-01
3.189282368900236975e-01 2.970156662764225075e-01
3.199687857866890806e-01 1.800394311404964753e-01
3.210093346833544636e-01 7.185220337953452940e-01
3.220498835800198467e-01 1.042100787662622707e+00
3.230904324766852298e-01 7.372575547791413442e-01
3.241309813733506129e-01 4.335192303545589709e-01
3.251715302700159960e-01 4.471564231059623751e-01
3.262120791666813790e-01 4.479499887825646454e-01
3.272526280633467621e-01 3.541705329579514228e-01
3.282931769600121452e-01 3.342751331360958034e-01
3.293337258566775283e-01 6.663144499098478946e-01
3.303742747533429114e-01 6.594874981752916199e-01
3.314148236500082945e-01 7.719953770143561655e-01
3.324553725466736775e-01 4.889764401582148423e-01
3.334959214433390606e-01 6.166999228684062473e-01
3.345364703400044437e-01 6.897221849241077507e-01
3.355770192366698268e-01 6.002077129867835481e-01
3.366175681333352099e-01 7.946849779131390790e-01
3.376581170300005930e-01 7.882755259075082677e-01
3.386986659266659760e-01 8.227790437181106142e-01
3.397392148233313591e-01 6.904023295890269196e-01
3.407797637199967422e-01 6.372687143937660892e-01
3.418203126166621253e-01 3.601060329368337420e-01
3.428608615133275084e-01 4.972632551759836872e-01
3.439014104099928915e-01 7.250975952489611132e-01
3.449419593066582745e-01 6.150515693477132118e-01
3.459825082033236576e-01 5.867595609102274068e-01
3.470230570999890407e-01 5.127946957144011719e-01
3.480636059966544238e-01 3.142896174861462555e-01
3.491041548933198069e-01 4.452790199354197398e-01
3.501447037899851900e-01 5.879215344775161611e-01
3.511852526866505730e-01 7.111659115777868578e-01
3.522258015833159561e-01 5.944601795094435204e-01
3.532663504799813392e-01 2.943889897123703747e-01
3.543068993766467223e-01 3.903894185751930479e-01
3.553474482733121054e-01 4.191025934537258024e-01
3.563879971699774885e-01 5.188092443824743327e-01
3.574285460666428715e-01 4.908803198767728304e-01
3.584690949633082546e-01 5.228770770270578794e-01
3.595096438599736377e-01 7.039856763227092529e-01
3.605501927566390208e-01 7.473618169760705143e-01
3.615907416533044039e-01 6.584649879556501162e-01
3.626312905499697870e-01 6.814310278253117303e-01
3.636718394466351700e-01 3.108369595693396548e-01
3.647123883433005531e-01 2.932757767642542035e-01
3.657529372399659362e-01 5.323844508962451982e-01
3.667934861366313193e-01 6.193666449483608005e-01
3.678340350332967024e-01 5.205106644803265681e-01
3.688745839299620854e-01 6.532809966361980969e-01
3.699151328266274685e-01 5.336490081085294435e-01
3.709556817232928516e-01 5.957004018884646257e-01
3.719962306199582347e-01 6.071947313074801400e-01
3.730367795166236178e-01 4.214977542652746934e-01
3.740773284132890009e-01 3.718923470186048519e-01
3.751178773099543839e-01 3.372407780827302304e-01
3.761584262066197670e-01 3.949963205849442716e-01
3.771989751032851501e-01 2.755064383362828551e-01
3.782395239999505332e-01 3.690790093090967616e-01
3.792800728966159163e-01 2.692577209819688733e-01
3.803206217932812994e-01 1.905648101468599975e-01
3.813611706899466824e-01 2.478863158913284792e-01
3.824017195866120655e-01 6.792481874942879472e-01
3.834422684832774486e-01 7.411528193382430629e-01
3.844828173799428317e-01 8.050620366205052392e-01
3.855233662766082148e-01 5.643418329210589945e-01
3.865639151732735979e-01 3.796542661826052267e-01
3.876044640699389809e-01 4.873221604441937416e-01
3.886450129666043640e-01 5.100429024747654694e-01
3.896855618632697471e-01 4.283127770808263790e-01
3.907261107599351302e-01 2.609022942638077325e-01
3.917666596566005133e-01 5.870206879777839504e-02
3.928072085532658964e-01 1.624804666675387921e-01
3.938477574499312794e-01 4.948706935239357563e-01
3.948883063465966625e-01 4.137640073059607460e-01
3.959288552432620456e-01 2.442973075300400865e-01
3.969694041399274287e-01 2.966019782688071871e-01
3.980099530365928118e-01 3.716120798317774643e-01
3.990505019332581949e-01 5.966603488075321593e-01
4.000910508299235779e-01 5.962052594595128596e-01
4.011315997265889610e-01 4.500158543254499932e-01
4.021721486232543441e-01 3.585290209853795318e-01
4.032126975199197272e-01 1.365949435759716835e-01
4.042532464165851103e-01 3.926232941371630147e-01
4.052937953132504934e-01 3.920128224849754872e-01
4.063343442099158764e-01 4.384250800928128911e-01
4.073748931065812595e-01 6.793476991696110190e-01
4.084154420032466426e-01 7.107284336565236060e-01
4.094559908999120257e-01 5.395525298602805719e-01
4.104965397965774088e-01 5.374578969199319545e-01
4.115370886932427918e-01 6.741852451664414048e-01
4.125776375899081749e-01 6.863964591853530806e-01
4.136181864865735580e-01 5.001718838970390379e-01
4.146587353832389411e-01 3.838396074730283658e-01
4.156992842799043242e-01 3.502072287737689749e-01
4.167398331765697073e-01 4.770194477086029394e-01
4.177803820732350903e-01 3.528364757114310635e-01
4.188209309699004734e-01 2.616432269418424994e-01
4.198614798665658565e-01 3.745136710968566263e-01
4.209020287632312396e-01 3.069318312766107226e-01
4.219425776598966227e-01 3.126475899254401725e-01
4.229831265565620058e-01 3.184443532166447710e-01
4.240236754532273888e-01 2.455447426972021674e-01
4.250642243498927719e-01 3.130850837240579665e-01
4.261047732465581550e-01 4.805090823661579691e-01
4.271453221432235381e-01 4.306451289301058694e-01
4.281858710398889212e-01 3.761014411140770619e-01
4.292264199365543043e-01 3.081797610740579785e-01
4.302669688332196873e-01 1.798747978677184278e-01
4.313075177298850704e-01 2.500432690446992012e-01
4.323480666265504535e-01 2.014785745785303561e-01
4.333886155232158366e-01 2.262961341364722045e-01
4.344291644198812197e-01 3.391348348473890439e-01
