# q (1/Angstrom), Intensity (arb)
2.078726924066784734e-02 2.238655964094187709e+02
2.212838338006469993e-02 3.312047843259837236e+02
2.346949751946154905e-02 4.398976089310666566e+02
2.481061165885840164e-02 6.343959434258110832e+02
2.615172579825525423e-02 7.445376620496892883e+02
2.749283993765210335e-02 7.840416889006797874e+02
2.883395407704895941e-02 8.175575529322828743e+02
3.017506821644580506e-02 8.374923844462261968e+02
3.151618235584265765e-02 8.369401404920981804e+02
3.285729649523951718e-02 8.376695483078440247e+02
3.419841063463636283e-02 8.413829603574606608e+02
3.553952477403321542e-02 8.343830629731013460e+02
3.688063891343006800e-02 8.243266715958175155e+02
3.822175305282692059e-02 8.189572513861128300e+02
3.956286719222376624e-02 8.116192417171362194e+02
4.090398133162062577e-02 8.091046116361235363e+02
4.224509547101747142e-02 8.019319976404801764e+02
4.358620961041432401e-02 7.957935789551385142e+02
4.492732374981117660e-02 7.936647741171685766e+02
4.626843788920802919e-02 7.912603977850575347e+02
4.760955202860488178e-02 7.902046084912242350e+02
4.895066616800172743e-02 7.868803625342931127e+02
5.029178030739858696e-02 7.801411962054826290e+02
5.163289444679544649e-02 7.757092824248541092e+02
5.297400858619229214e-02 7.757466562539858614e+02
5.431512272558913779e-02 7.660611061805154804e+02
5.565623686498599731e-02 7.582257905739503485e+02
5.699735100438284990e-02 7.512094050319066127e+02
5.833846514377969555e-02 7.449696984741617598e+02
5.967957928317654814e-02 7.387562230043216687e+02
6.102069342257340767e-02 7.340955210461925162e+02
6.236180756197025332e-02 7.258690266544074348e+02
6.370292170136709897e-02 7.160161312271189900e+02
6.504403584076395850e-02 7.106845352860184448e+02
6.638514998016080415e-02 7.064534608732747074e+02
6.772626411955766368e-02 6.964419329147524422e+02
6.906737825895450933e-02 6.825489139206860045e+02
7.040849239835136886e-02 6.704637971823902944e+02
7.174960653774821451e-02 6.617024630211391241e+02
7.309072067714506016e-02 6.502928771029106656e+02
7.443183481654190581e-02 6.425410912380423269e+02
7.577294895593877921e-02 6.303468975221641131e+02
7.711406309533562486e-02 6.200580641808869586e+02
7.845517723473247051e-02 6.102662269396500960e+02
7.979629137412933004e-02 5.984530676166602916e+02
8.113740551352617569e-02 5.868166996487384495e+02
8.247851965292302134e-02 5.751008079644992677e+02
8.381963379231988087e-02 5.650832523341022124e+02
8.516074793171674040e-02 5.554962826718650604e+02
8.650186207111358605e-02 5.445597381269399193e+02
8.784297621051043170e-02 5.321335538351355581e+02
8.918409034990729123e-02 5.202964620860694822e+02
9.052520448930413688e-02 5.109052919769275718e+02
9.186631862870098253e-02 5.009388636764708735e+02
9.320743276809784206e-02 4.913717895642275835e+02
9.454854690749470159e-02 4.799776909757275121e+02
9.588966104689154724e-02 4.701789440260823767e+02
9.723077518628839289e-02 4.613107415630051946e+02
9.857188932568525241e-02 4.481480366497984278e+02
9.991300346508209806e-02 4.390977878887347856e+02
1.012541176044789437e-01 4.308695911415285309e+02
1.025952317438758032e-01 4.193849032718021590e+02
1.039363458832726350e-01 4.082904612412814345e+02
1.052774600226694945e-01 3.979410268603612622e+02
1.066185741620663541e-01 3.881923575629043626e+02
1.079596883014631858e-01 3.780536231190727676e+02
1.093008024408600454e-01 3.684020790919251453e+02
1.106419165802569049e-01 3.592159477366554938e+02
1.119830307196537506e-01 3.490132503041421614e+02
1.133241448590506101e-01 3.408199127534817308e+02
1.146652589984474419e-01 3.310024483820096748e+02
1.160063731378443014e-01 3.209788008678610254e+02
1.173474872772411609e-01 3.119533021545361180e+02
1.186886014166380066e-01 3.029764071621775656e+02
1.200297155560348661e-01 2.924664932879700245e+02
1.213708296954317256e-01 2.856724531107777239e+02
1.227119438348285574e-01 2.777940291230221419e+02
1.240530579742254169e-01 2.688799075162692134e+02
1.253941721136222764e-01 2.606477862187043115e+02
1.267352862530191082e-01 2.525030077684922958e+02
1.280764003924159677e-01 2.455286782252201760e+02
1.294175145318128273e-01 2.374125428572002079e+02
1.307586286712096590e-01 2.289652736825013903e+02
1.320997428106065186e-01 2.214022163566115182e+02
1.334408569500033781e-01 2.137135909878061284e+02
1.347819710894002376e-01 2.067630313216682225e+02
1.361230852287970972e-01 2.002950470699246637e+02
1.374641993681939289e-01 1.930970194060340646e+02
1.388053135075907885e-01 1.857629250552520830e+02
1.401464276469876480e-01 1.783996268396924165e+02
1.414875417863844798e-01 1.734785887947876972e+02
1.428286559257813393e-01 1.676938590767331902e+02
1.441697700651781988e-01 1.603586656162826785e+02
1.455108842045750306e-01 1.539405742087147928e+02
1.468519983439718901e-01 1.477058909177931696e+02
1.481931124833687219e-01 1.415758496728207660e+02
1.495342266227655814e-01 1.366301821363327917e+02
1.508753407621624687e-01 1.313313413241411354e+02
1.522164549015593005e-01 1.253573008426211999e+02
1.535575690409561600e-01 1.205003923842026836e+02
1.548986831803530195e-01 1.149113454783270356e+02
1.562397973197498513e-01 1.101093905605027459e+02
1.575809114591467108e-01 1.064057999406653607e+02
1.589220255985435704e-01 1.010495511327427209e+02
1.602631397379404021e-01 9.572541650928077672e+01
1.616042538773372617e-01 9.119734704604358910e+01
1.629453680167341212e-01 8.698154017621503442e+01
1.642864821561309530e-01 8.244893397462703888e+01
1.656275962955278125e-01 7.927531437722296914e+01
1.669687104349246720e-01 7.548221744678826894e+01
1.683098245743215315e-01 7.208908354156430676e+01
1.696509387137183911e-01 6.830707807965696077e+01
1.709920528531152228e-01 6.490694368766742173e+01
1.723331669925120824e-01 6.117093346388364239e+01
1.736742811319089419e-01 5.832291916019249811e+01
1.750153952713057737e-01 5.501723142778513420e+01
1.763565094107026332e-01 5.249253627036524961e+01
1.776976235500994927e-01 4.981190437172645602e+01
1.790387376894963245e-01 4.682614204705170380e+01
1.803798518288931840e-01 4.478660337294391525e+01
1.817209659682900158e-01 4.165565755156701755e+01
1.830620801076868753e-01 3.875213385495622731e+01
1.844031942470837349e-01 3.659782028581435043e+01
1.857443083864805944e-01 3.419001644649264904e+01
1.870854225258774539e-01 3.161947371322341382e+01
1.884265366652743134e-01 2.923119772704939123e+01
1.897676508046711452e-01 2.824689571841061309e+01
1.911087649440680047e-01 2.694312206855178715e+01
1.924498790834648643e-01 2.486594289904688537e+01
1.937909932228616960e-01 2.373240855428478824e+01
1.951321073622585556e-01 2.225890083632513949e+01
1.964732215016554151e-01 2.069096341914135451e+01
1.978143356410522469e-01 1.934009968560492609e+01
1.991554497804491064e-01 1.774016317477516225e+01
2.004965639198459382e-01 1.669822670970124534e+01
2.018376780592427977e-01 1.631122686211013217e+01
2.031787921986396572e-01 1.481126971618644461e+01
2.045199063380365168e-01 1.374345839222397103e+01
2.058610204774333763e-01 1.201373636027362579e+01
2.072021346168302081e-01 1.127961064344057718e+01
2.085432487562270676e-01 1.101757906528149533e+01
2.098843628956239271e-01 1.016221254124293694e+01
2.112254770350207866e-01 9.293766857676359905e+00
2.125665911744176462e-01 8.711345526807761530e+00
2.139077053138144502e-01 8.009930509392148679e+00
2.152488194532113097e-01 7.985525970886371283e+00
2.165899335926081692e-01 7.444383812260909394e+00
2.179310477320050288e-01 7.091115056179987164e+00
2.192721618714018883e-01 6.429404583798856265e+00
2.206132760107987478e-01 5.682277849921206325e+00
2.219543901501955796e-01 5.367721716560282630e+00
2.232955042895924391e-01 4.971529291595601308e+00
2.246366184289892987e-01 4.488194531653817876e+00
2.259777325683861582e-01 4.813266918664652394e+00
2.273188467077830177e-01 5.334354543839197049e+00
2.286599608471798217e-01 4.207402108353576864e+00
2.300010749865766813e-01 4.102880785455766954e+00
2.313421891259735408e-01 3.962071120358004350e+00
2.326833032653704003e-01 3.437575780448298701e+00
2.340244174047672598e-01 3.254079710324575103e+00
2.353655315441641194e-01 3.106160816507340883e+00
2.367066456835609234e-01 3.528362993990654672e+00
2.380477598229577829e-01 3.622874996138961023e+00
2.393888739623546424e-01 4.473646838945427362e+00
2.407299881017515020e-01 3.542912246540964816e+00
2.420711022411483615e-01 3.186671958729945686e+00
2.434122163805451933e-01 3.698866525591171239e+00
2.447533305199420528e-01 3.350633005558336208e+00
2.460944446593389123e-01 3.416894661043144765e+00
2.474355587987357719e-01 3.532499868609207283e+00
2.487766729381326314e-01 3.699908684765034650e+00
2.501177870775294632e-01 4.094986028184919746e+00
2.514589012169263227e-01 4.350651118418696228e+00
2.528000153563231822e-01 4.373734129033550744e+00
2.541411294957200417e-01 4.467071993054588575e+00
2.554822436351169013e-01 4.825562761547899981e+00
2.568233577745137608e-01 4.909258827831308736e+00
2.581644719139106203e-01 4.287699522599098145e+00
2.595055860533074243e-01 4.799341383462220278e+00
2.608467001927042839e-01 4.950507122955116301e+00
2.621878143321011434e-01 4.968275733118673543e+00
2.635289284714980029e-01 5.169600161090045276e+00
2.648700426108948625e-01 5.058988487054918437e+00
2.662111567502916665e-01 4.991054739116094652e+00
2.675522708896885260e-01 4.960733912093715503e+00
2.688933850290853855e-01 5.489378051930344782e+00
2.702344991684822451e-01 5.645932148788844529e+00
2.715756133078791046e-01 5.494206257174809593e+00
2.729167274472759641e-01 5.415355870618427048e+00
2.742578415866727681e-01 5.985343732516113846e+00
2.755989557260696277e-01 5.890693477688756730e+00
2.769400698654664872e-01 5.532630059638677267e+00
2.782811840048633467e-01 5.581566882707718946e+00
2.796222981442602062e-01 5.371555515263068514e+00
2.809634122836570103e-01 5.854736894566016758e+00
2.823045264230538698e-01 6.012176362436491672e+00
2.836456405624507293e-01 5.601319764916183885e+00
2.849867547018475888e-01 5.708940343788484029e+00
2.863278688412444484e-01 5.786999535100363801e+00
2.876689829806413079e-01 6.081966769754089341e+00
2.890100971200381674e-01 6.124412099768989037e+00
2.903512112594350270e-01 5.843951393624934099e+00
2.916923253988318865e-01 5.929920143518316422e+00
2.930334395382287460e-01 6.159662648139175189e+00
2.943745536776256055e-01 6.041491346886559199e+00
2.957156678170224096e-01 6.044858582583913176e+00
2.970567819564192691e-01 5.987916293611888818e+00
2.983978960958161286e-01 5.631367895030820137e+00
2.997390102352129881e-01 6.206337426495551313e+00
3.010801243746098477e-01 6.187439697128297666e+00
3.024212385140067072e-01 5.746329801159276940e+00
3.037623526534035112e-01 5.201166321355458422e+00
3.051034667928003707e-01 5.674191558204199737e+00
3.064445809321972303e-01 5.579734791458420773e+00
3.077856950715940898e-01 5.734995081136759154e+00
3.091268092109909493e-01 5.964138930469559341e+00
3.104679233503877533e-01 5.788793288477222632e+00
3.118090374897846129e-01 5.560913031178742472e+00
3.131501516291814724e-01 5.665556805979136357e+00
3.144912657685783319e-01 5.711101099177582796e+00
3.158323799079751915e-01 5.357892710896550170e+00
3.171734940473720510e-01 4.855586029644001655e+00
3.185146081867689105e-01 4.648857700694861705e+00
3.198557223261657700e-01 4.984763619712680338e+00
3.211968364655626296e-01 4.772848614116725230e+00
3.225379506049594891e-01 4.602737603917120168e+00
3.238790647443563486e-01 4.494957818549039530e+00
3.252201788837532082e-01 4.373713573018875422e+00
3.265612930231500122e-01 4.173474969299135751e+00
3.279024071625468717e-01 4.237205046832571043e+00
3.292435213019437312e-01 4.255805283692978946e+00
3.305846354413405908e-01 4.217646834540275336e+00
3.319257495807374503e-01 3.954809766925862391e+00
3.332668637201342543e-01 4.208164573239898232e+00
3.346079778595311138e-01 4.123038579814419791e+00
3.359490919989279734e-01 3.921165847373501379e+00
3.372902061383248329e-01 3.961900688497806300e+00
3.386313202777216924e-01 3.676487552919383006e+00
3.399724344171185519e-01 3.525858420505954882e+00
3.413135485565153560e-01 3.211397707261724577e+00
3.426546626959122155e-01 3.310272828278840507e+00
3.439957768353090750e-01 3.799829157158328030e+00
3.453368909747059345e-01 3.639930306539227445e+00
3.466780051141027941e-01 2.735743094571873257e+00
3.480191192534995981e-01 2.864705600373454786e+00
3.493602333928964576e-01 3.268758576189952691e+00
3.507013475322933171e-01 3.298875937122957680e+00
3.520424616716901767e-01 2.975648696574197061e+00
3.533835758110870362e-01 2.838077486989917020e+00
3.547246899504838957e-01 2.523053925428939692e+00
3.560658040898807553e-01 2.883516333825554057e+00
3.574069182292776148e-01 2.641947141227575457e+00
3.587480323686744743e-01 2.068485387218558458e+00
3.600891465080713338e-01 1.938613866065921343e+00
3.614302606474681934e-01 1.724678742244392993e+00
3.627713747868649974e-01 1.960569549024185676e+00
3.641124889262618569e-01 2.728549054679589858e+00
3.654536030656587164e-01 2.420359303692606545e+00
3.667947172050555760e-01 2.453884195370434895e+00
3.681358313444524355e-01 2.670179204391132544e+00
3.694769454838492950e-01 2.361960259922554428e+00
3.708180596232460990e-01 1.838620867226154587e+00
3.721591737626429586e-01 1.722315339948124802e+00
3.735002879020398181e-01 1.104243192811964036e+00
3.748414020414366776e-01 1.494760086233853258e+00
3.761825161808335372e-01 1.836502737799705187e+00
3.775236303202303967e-01 1.848436756936983727e+00
3.788647444596272007e-01 2.044429610992033020e+00
3.802058585990240602e-01 2.067977174264811424e+00
3.815469727384209198e-01 1.995347438506065885e+00
3.828880868778177793e-01 1.592299691011994867e+00
3.842292010172146388e-01 1.791890698421134687e+00
3.855703151566114428e-01 1.528669666130369365e+00
3.869114292960083024e-01 1.546116031279240133e+00
3.882525434354051619e-01 1.536820113587523906e+00
3.895936575748020214e-01 1.267256069336582414e+00
3.909347717141988809e-01 1.510290487199860365e+00
3.922758858535957405e-01 1.343721373845383482e+00
3.936169999929926000e-01 1.498558653146652375e+00
3.949581141323894595e-01 1.251428482971512324e+00
3.962992282717863191e-01 1.365890767148641771e+00
3.976403424111831786e-01 1.195119015165964527e+00
3.989814565505800381e-01 1.075229514957982246e+00
4.003225706899768976e-01 7.078454678903085551e-01
4.016636848293737572e-01 1.069724467927827050e+00
4.030047989687706167e-01 1.246862421692938483e+00
4.043459131081674207e-01 6.999843526528835014e-01
4.056870272475643358e-01 1.087400812678119166e+00
4.070281413869611398e-01 1.569768605539863415e+00
4.083692555263580548e-01 1.346420650820135734e+00
4.097103696657548588e-01 1.223434743400844127e+00
4.110514838051517739e-01 1.355078940803508658e+00
4.123925979445485779e-01 1.391945844959593614e+00
4.137337120839453819e-01 1.376588373049720815e+00
4.150748262233422969e-01 1.567573276812176175e+00
4.164159403627391010e-01 1.284484687803448821e+00
4.177570545021360160e-01 1.074978942924310843e+00
4.190981686415328200e-01 8.986253107678763286e-01
4.204392827809296240e-01 7.070590513247410058e-01
4.217803969203265391e-01 8.987511494529769607e-01
4.231215110597233431e-01 1.083085234960499577e+00
4.244626251991202581e-01 1.019951679054791782e+00
4.258037393385170621e-01 7.409551585963995990e-01
4.271448534779138662e-01 1.200521530589185204e+00
4.284859676173107812e-01 1.347354701447692094e+00
4.298270817567075852e-01 1.468972786371089967e+00
4.311681958961045003e-01 1.319038405035961148e+00
4.325093100355013043e-01 9.031407877586801192e-01
4.338504241748981638e-01 1.559546150546964327e+00
4.351915383142950233e-01 1.117003259028408024e+00
4.365326524536918829e-01 1.093348970752536786e+00
4.378737665930887424e-01 1.510203452986871753e+00
4.392148807324856019e-01 1.443628151151465033e+00
4.405559948718824614e-01 1.602924957217062740e+00
4.418971090112793210e-01 1.144626844724399461e+00
4.432382231506761250e-01 1.253295966915786153e+00
4.445793372900730400e-01 1.308333436287306029e+00
4.459204514294698440e-01 1.613956436976920372e+00
4.472615655688667591e-01 1.108829486216940552e+00
4.486026797082635631e-01 7.413653206454000610e-01
4.499437938476603671e-01 6.462257081123752300e-01
4.512849079870572822e-01 1.046461051057683278e+00
4.526260221264540862e-01 1.243087273543054039e+00
4.539671362658510012e-01 1.315270715750145314e+00
4.553082504052478052e-01 1.321051701800435296e+00
4.566493645446446092e-01 1.158341592203512960e+00
4.579904786840415243e-01 1.209218194336422414e+00
4.593315928234383283e-01 1.147575468532487264e+00
4.606727069628352433e-01 1.135574555328929591e+00
4.620138211022320474e-01 1.021475065970157914e+00
4.633549352416289624e-01 1.067744568936198846e+00
4.646960493810257664e-01 1.012573520378339254e+00
4.660371635204225704e-01 1.027044600475996106e+00
4.673782776598194855e-01 1.193681162393779971e+00
4.687193917992162895e-01 1.111284777574084615e+00
4.700605059386132045e-01 8.393106646025003670e-01
4.714016200780100085e-01 1.034148684744252478e+00
4.727427342174068681e-01 1.114294875693190079e+00
4.740838483568037276e-01 1.381686030529152731e+00
4.754249624962005871e-01 1.300134975636503043e+00
4.767660766355974467e-01 7.978253368201322360e-01
4.781071907749943062e-01 6.721109513778529276e-01
4.794483049143911102e-01 8.491569293892808901e-01
4.807894190537880252e-01 9.474024081531169372e-01
4.821305331931848293e-01 9.562416568229110680e-01
4.834716473325817443e-01 1.097440163362740861e+00
4.848127614719785483e-01 1.002084856968004090e+00
4.861538756113753523e-01 9.252602556954698798e-01
4.874949897507722674e-01 7.114376231808563489e-01
4.888361038901690714e-01 5.815519841548280056e-01
4.901772180295659864e-01 8.614171883355368209e-01
4.915183321689627904e-01 8.515569800243554255e-01
4.928594463083597055e-01 3.656149138094235695e-01
4.942005604477565095e-01 5.189917012563753929e-01
4.955416745871533135e-01 8.157324796264546762e-01
4.968827887265502286e-01 1.018068610479112124e+00
4.982239028659470326e-01 9.953284604009340342e-01
4.995650170053439476e-01 1.029773862533225781e+00
5.009061311447408071e-01 7.729690121871399811e-01
5.022472452841375556e-01 7.588186119356592485e-01
5.035883594235345262e-01 7.550468946845612095e-01
5.049294735629312747e-01 3.466805306544813448e-01
5.062705877023282452e-01 2.563069642072548504e-01
5.076117018417249938e-01 4.487746733753681383e-01
5.089528159811218533e-01 1.100879131621510965e+00
5.102939301205187128e-01 1.174734736356903397e+00
5.116350442599155723e-01 1.068958838421231405e+00
5.129761583993124319e-01 8.002051282295497003e-01
5.143172725387092914e-01 5.774921328308835200e-01
5.156583866781061509e-01 5.094666229915034705e-01
5.169995008175030105e-01 3.536565890396730083e-01
5.183406149568997590e-01 4.421911328629093418e-01
5.196817290962967295e-01 5.319847470017080582e-01
5.210228432356934780e-01 5.600309306197530645e-01
5.223639573750904486e-01 5.479977440944736600e-01
5.237050715144871971e-01 7.678916137538394082e-01
5.250461856538840566e-01 6.635379086311203878e-01
5.263872997932809161e-01 5.293336057098159131e-01
5.277284139326777757e-01 4.833823563040624549e-01
5.290695280720746352e-01 4.799690299187915343e-01
5.304106422114714947e-01 5.330221848299032672e-01
5.317517563508683542e-01 6.124816561107380153e-01
5.330928704902652138e-01 5.485836264914283333e-01
5.344339846296620733e-01 7.960721104923749181e-01
5.357750987690589328e-01 5.100295261586111906e-01
5.371162129084557924e-01 2.390301166981316783e-01
5.384573270478525409e-01 9.832703201787751368e-03
5.397984411872495114e-01 3.935859339083123132e-01
5.411395553266462599e-01 5.317846899636862190e-01
5.424806694660432305e-01 5.885371237219558793e-01
5.438217836054399790e-01 6.594990685275448072e-01
5.451628977448369495e-01 3.886817024242574803e-01
5.465040118842336980e-01 4.197146096730932641e-01
5.478451260236305576e-01 5.197011455952136316e-01
5.491862401630274171e-01 3.647691745789529705e-01
5.505273543024242766e-01 5.212359284502880996e-01
5.518684684418211361e-01 5.671953632917237087e-01
5.532095825812179957e-01 3.468327575935106211e-01
5.545506967206147442e-01 1.857141015163890074e-01
