# q (1/Angstrom), Intensity (arb)
2.078726924066784734e-02 2.452455248002672761e+02
2.212838338006469993e-02 3.643793318243032218e+02
2.346949751946154905e-02 4.902621897816484307e+02
2.481061165885840164e-02 7.087488384716664314e+02
2.615172579825525423e-02 8.273957727530141710e+02
2.749283993765210335e-02 8.792210934934139459e+02
2.883395407704895941e-02 9.160765070984298291e+02
3.017506821644580506e-02 9.398558949122727881e+02
3.151618235584265765e-02 9.407574506053197183e+02
3.285729649523951718e-02 9.349482328023685795e+02
3.419841063463636283e-02 9.372184660899773689e+02
3.553952477403321542e-02 9.350333927549095279e+02
3.688063891343006800e-02 9.299691675034979426e+02
3.822175305282692059e-02 9.246686974558773500e+02
3.956286719222376624e-02 9.198535100128979138e+02
4.090398133162062577e-02 9.112430523498541106e+02
4.224509547101747142e-02 9.021769419790966822e+02
4.358620961041432401e-02 8.965075752843389409e+02
4.492732374981117660e-02 8.908322238283051320e+02
4.626843788920802919e-02 8.863332557446308329e+02
4.760955202860488178e-02 8.859496454384990329e+02
4.895066616800172743e-02 8.825464684004834908e+02
5.029178030739858696e-02 8.765250079466572970e+02
5.163289444679544649e-02 8.676282451457195748e+02
5.297400858619229214e-02 8.662727799976644292e+02
5.431512272558913779e-02 8.625877790212871332e+02
5.565623686498599731e-02 8.511889989536779240e+02
5.699735100438284990e-02 8.421942480737037613e+02
5.833846514377969555e-02 8.376534898996610536e+02
5.967957928317654814e-02 8.308498629125049320e+02
6.102069342257340767e-02 8.204850556605313159e+02
6.236180756197025332e-02 8.113514838554336848e+02
6.370292170136709897e-02 8.042973110317326473e+02
6.504403584076395850e-02 7.974139140676140869e+02
6.638514998016080415e-02 7.894324555115233579e+02
6.772626411955766368e-02 7.783152909726212556e+02
6.906737825895450933e-02 7.617777252046538479e+02
7.040849239835136886e-02 7.489029995751918705e+02
7.174960653774821451e-02 7.375531490284553229e+02
7.309072067714506016e-02 7.277157325546198763e+02
7.443183481654190581e-02 7.186733954634703423e+02
7.577294895593877921e-02 7.063747959754296062e+02
7.711406309533562486e-02 6.895537857005016349e+02
7.845517723473247051e-02 6.774455144188991653e+02
7.979629137412933004e-02 6.667279356525536969e+02
8.113740551352617569e-02 6.545525044402904769e+02
8.247851965292302134e-02 6.417495702328977814e+02
8.381963379231988087e-02 6.307216137436329291e+02
8.516074793171674040e-02 6.188675320247286891e+02
8.650186207111358605e-02 6.062493122619521273e+02
8.784297621051043170e-02 5.933719689763938732e+02
8.918409034990729123e-02 5.817819403029054683e+02
9.052520448930413688e-02 5.663232685999812475e+02
9.186631862870098253e-02 5.566226241164347357e+02
9.320743276809784206e-02 5.454979434117817618e+02
9.454854690749470159e-02 5.322889220078841390e+02
9.588966104689154724e-02 5.198859808064132721e+02
9.723077518628839289e-02 5.092226632185553967e+02
9.857188932568525241e-02 4.957067565560912499e+02
9.991300346508209806e-02 4.850915491733897511e+02
1.012541176044789437e-01 4.740910269342628567e+02
1.025952317438758032e-01 4.605867518006256773e+02
1.039363458832726350e-01 4.470458412777512649e+02
1.052774600226694945e-01 4.361811831185475512e+02
1.066185741620663541e-01 4.252235411450390643e+02
1.079596883014631858e-01 4.143772466543876476e+02
1.093008024408600454e-01 4.048355556062084588e+02
1.106419165802569049e-01 3.949464389154304627e+02
1.119830307196537506e-01 3.829546738901873937e+02
1.133241448590506101e-01 3.727462311860647333e+02
1.146652589984474419e-01 3.597116089766725509e+02
1.160063731378443014e-01 3.476744875125265253e+02
1.173474872772411609e-01 3.397204498490632432e+02
1.186886014166380066e-01 3.309914461454976617e+02
1.200297155560348661e-01 3.199366606863478069e+02
1.213708296954317256e-01 3.098846402637523738e+02
1.227119438348285574e-01 3.010862228036846773e+02
1.240530579742254169e-01 2.921891135807384785e+02
1.253941721136222764e-01 2.824298012983084050e+02
1.267352862530191082e-01 2.723567804800404701e+02
1.280764003924159677e-01 2.633031119306209007e+02
1.294175145318128273e-01 2.554353016131984759e+02
1.307586286712096590e-01 2.473684678224957736e+02
1.320997428106065186e-01 2.382313459835789899e+02
1.334408569500033781e-01 2.296485118553334814e+02
1.347819710894002376e-01 2.217784229878021449e+02
1.361230852287970972e-01 2.135710790600786027e+02
1.374641993681939289e-01 2.052721284644491107e+02
1.388053135075907885e-01 1.979389586687272811e+02
1.401464276469876480e-01 1.901926040600140766e+02
1.414875417863844798e-01 1.828075776916205086e+02
1.428286559257813393e-01 1.765014170246710137e+02
1.441697700651781988e-01 1.692161704906509954e+02
1.455108842045750306e-01 1.630026673012575884e+02
1.468519983439718901e-01 1.559037875252146250e+02
1.481931124833687219e-01 1.480216618300224241e+02
1.495342266227655814e-01 1.426568024242330921e+02
1.508753407621624687e-01 1.374795653274933329e+02
1.522164549015593005e-01 1.317485098918122048e+02
1.535575690409561600e-01 1.260446096091125838e+02
1.548986831803530195e-01 1.199012166975902147e+02
1.562397973197498513e-01 1.155656846606339201e+02
1.575809114591467108e-01 1.103658572325206109e+02
1.589220255985435704e-01 1.044741418838370350e+02
1.602631397379404021e-01 9.972489556112992659e+01
1.616042538773372617e-01 9.503222404591815575e+01
1.629453680167341212e-01 9.053181059945626430e+01
1.642864821561309530e-01 8.574032524965350888e+01
1.656275962955278125e-01 8.226357305447824331e+01
1.669687104349246720e-01 7.773910394061333307e+01
1.683098245743215315e-01 7.378919351118253189e+01
1.696509387137183911e-01 6.984408625207412058e+01
1.709920528531152228e-01 6.621288045615357021e+01
1.723331669925120824e-01 6.228214340133025928e+01
1.736742811319089419e-01 5.872760656777303723e+01
1.750153952713057737e-01 5.600411107525496845e+01
1.763565094107026332e-01 5.256062820003614888e+01
1.776976235500994927e-01 4.926271635777057156e+01
1.790387376894963245e-01 4.718840802681218349e+01
1.803798518288931840e-01 4.494357207788927155e+01
1.817209659682900158e-01 4.163193401435924557e+01
1.830620801076868753e-01 3.798021616872375716e+01
1.844031942470837349e-01 3.525714688380340078e+01
1.857443083864805944e-01 3.274167896942815048e+01
1.870854225258774539e-01 3.118498119783190248e+01
1.884265366652743134e-01 2.965697787679847863e+01
1.897676508046711452e-01 2.747589428699794212e+01
1.911087649440680047e-01 2.610149803598336860e+01
1.924498790834648643e-01 2.381897715541643379e+01
1.937909932228616960e-01 2.259995511064022367e+01
1.951321073622585556e-01 2.099764105951349791e+01
1.964732215016554151e-01 1.935702889184663888e+01
1.978143356410522469e-01 1.790563592195033493e+01
1.991554497804491064e-01 1.639052571637382982e+01
2.004965639198459382e-01 1.565787726338041352e+01
2.018376780592427977e-01 1.501884523558649676e+01
2.031787921986396572e-01 1.393135141875212923e+01
2.045199063380365168e-01 1.311625995218258822e+01
2.058610204774333763e-01 1.186137270080024564e+01
2.072021346168302081e-01 1.051653981789736747e+01
2.085432487562270676e-01 9.869945383972918762e+00
2.098843628956239271e-01 9.363588701986799379e+00
2.112254770350207866e-01 8.464625127645845737e+00
2.125665911744176462e-01 7.994609785834967397e+00
2.139077053138144502e-01 7.436329614815704758e+00
2.152488194532113097e-01 7.321463079801048934e+00
2.165899335926081692e-01 6.626621521164125284e+00
2.179310477320050288e-01 6.258704144640589107e+00
2.192721618714018883e-01 6.160513719565798851e+00
2.206132760107987478e-01 5.803840046618276460e+00
2.219543901501955796e-01 5.958861420785794394e+00
2.232955042895924391e-01 5.494296022721229633e+00
2.246366184289892987e-01 4.654633962980085471e+00
2.259777325683861582e-01 5.030879623074056894e+00
2.273188467077830177e-01 4.991059476554198682e+00
2.286599608471798217e-01 4.511647184282239209e+00
2.300010749865766813e-01 4.612698165630789049e+00
2.313421891259735408e-01 3.892668652279994035e+00
2.326833032653704003e-01 3.747727644465570052e+00
2.340244174047672598e-01 4.280436176425567396e+00
2.353655315441641194e-01 4.185952111227280170e+00
2.367066456835609234e-01 4.534929015409360886e+00
2.380477598229577829e-01 4.615154062474744023e+00
2.393888739623546424e-01 4.814707851695700924e+00
2.407299881017515020e-01 4.439116066121073345e+00
2.420711022411483615e-01 4.551829273972913370e+00
2.434122163805451933e-01 4.899121522006510077e+00
2.447533305199420528e-01 4.837862479614983613e+00
2.460944446593389123e-01 4.511027797476074852e+00
2.474355587987357719e-01 4.589593454913270421e+00
2.487766729381326314e-01 4.826048196921064459e+00
2.501177870775294632e-01 5.295022859076468080e+00
2.514589012169263227e-01 5.470337162156440058e+00
2.528000153563231822e-01 5.320554439605871266e+00
2.541411294957200417e-01 4.767727273145993649e+00
2.554822436351169013e-01 5.712332136069420585e+00
2.568233577745137608e-01 5.931154726812778222e+00
2.581644719139106203e-01 5.523190847016579141e+00
2.595055860533074243e-01 6.111168212134685973e+00
2.608467001927042839e-01 6.410892421853475298e+00
2.621878143321011434e-01 6.304962722054227697e+00
2.635289284714980029e-01 6.215322681924334347e+00
2.648700426108948625e-01 5.676577334899846505e+00
2.662111567502916665e-01 6.102791551039842943e+00
2.675522708896885260e-01 6.488004007749182733e+00
2.688933850290853855e-01 6.684040206457723343e+00
2.702344991684822451e-01 6.672512576170589682e+00
2.715756133078791046e-01 6.856239160763919926e+00
2.729167274472759641e-01 7.290090647986389172e+00
2.742578415866727681e-01 7.268527386691417291e+00
2.755989557260696277e-01 7.102752140262680314e+00
2.769400698654664872e-01 6.573610289395816153e+00
2.782811840048633467e-01 7.109051565630650771e+00
2.796222981442602062e-01 6.867357794729102238e+00
2.809634122836570103e-01 6.871581110793925973e+00
2.823045264230538698e-01 7.026377187327881302e+00
2.836456405624507293e-01 6.778173535341537104e+00
2.849867547018475888e-01 6.525643596065776819e+00
2.863278688412444484e-01 7.026172731148832895e+00
2.876689829806413079e-01 7.235041788101810312e+00
2.890100971200381674e-01 7.417295033400122861e+00
2.903512112594350270e-01 7.221529227445842025e+00
2.916923253988318865e-01 6.884198015877984744e+00
2.930334395382287460e-01 7.309605896814289849e+00
2.943745536776256055e-01 6.863182589524924992e+00
2.957156678170224096e-01 6.831979020134554048e+00
2.970567819564192691e-01 6.890755631639450485e+00
2.983978960958161286e-01 6.389121497765941626e+00
2.997390102352129881e-01 6.953592688792639365e+00
3.010801243746098477e-01 6.887148857784751499e+00
3.024212385140067072e-01 6.516397410314937133e+00
3.037623526534035112e-01 6.251439377511616158e+00
3.051034667928003707e-01 6.142525026458173443e+00
3.064445809321972303e-01 6.277102020278917394e+00
3.077856950715940898e-01 6.634667327488344313e+00
3.091268092109909493e-01 6.822577515291627037e+00
3.104679233503877533e-01 6.393649052226280105e+00
3.118090374897846129e-01 6.076242545856928245e+00
3.131501516291814724e-01 6.153884577321449001e+00
3.144912657685783319e-01 5.957431956422752251e+00
3.158323799079751915e-01 5.750375457753790442e+00
3.171734940473720510e-01 5.496221910006326539e+00
3.185146081867689105e-01 5.148793157179255786e+00
3.198557223261657700e-01 5.352575738864373989e+00
3.211968364655626296e-01 5.249091327456369527e+00
3.225379506049594891e-01 5.343748871277895773e+00
3.238790647443563486e-01 5.425390541768834396e+00
3.252201788837532082e-01 5.666871367469070719e+00
3.265612930231500122e-01 5.224366131195850471e+00
3.279024071625468717e-01 4.600409857388967794e+00
3.292435213019437312e-01 4.686455631716484049e+00
3.305846354413405908e-01 4.884574589019578639e+00
3.319257495807374503e-01 4.358109964950116932e+00
3.332668637201342543e-01 4.404689904784049759e+00
3.346079778595311138e-01 4.436460977257809191e+00
3.359490919989279734e-01 4.488256232263921675e+00
3.372902061383248329e-01 4.266124744577126648e+00
3.386313202777216924e-01 3.963755773390928994e+00
3.399724344171185519e-01 3.795572063379268002e+00
3.413135485565153560e-01 3.370123898571549148e+00
3.426546626959122155e-01 3.068004555175335213e+00
3.439957768353090750e-01 3.485326455398293888e+00
3.453368909747059345e-01 4.222147959507907444e+00
3.466780051141027941e-01 3.950772535630974858e+00
3.480191192534995981e-01 3.284484740332416663e+00
3.493602333928964576e-01 3.406092696238033568e+00
3.507013475322933171e-01 3.439927794374696646e+00
3.520424616716901767e-01 3.415271856092658709e+00
3.533835758110870362e-01 2.961752351419548290e+00
3.547246899504838957e-01 2.635924497117230203e+00
3.560658040898807553e-01 3.336909206371970527e+00
3.574069182292776148e-01 2.960670157340800301e+00
3.587480323686744743e-01 2.417845909964995599e+00
3.600891465080713338e-01 2.428512449976409471e+00
3.614302606474681934e-01 2.612946495790964718e+00
3.627713747868649974e-01 2.624043402577967754e+00
3.641124889262618569e-01 2.865072715860634389e+00
3.654536030656587164e-01 2.432256849537623111e+00
3.667947172050555760e-01 2.093736946459785031e+00
3.681358313444524355e-01 2.792717595777027384e+00
3.694769454838492950e-01 2.574188459826004305e+00
3.708180596232460990e-01 1.959722347253233465e+00
3.721591737626429586e-01 2.082656675637139188e+00
3.735002879020398181e-01 2.191205290143273032e+00
3.748414020414366776e-01 1.955071650835748187e+00
3.761825161808335372e-01 1.979836190777028548e+00
3.775236303202303967e-01 1.627208604597925046e+00
3.788647444596272007e-01 1.716388681412546191e+00
3.802058585990240602e-01 1.805108482749609777e+00
3.815469727384209198e-01 1.774088903742757850e+00
3.828880868778177793e-01 1.837859697767946443e+00
3.842292010172146388e-01 1.844685337047629048e+00
3.855703151566114428e-01 1.940694499788520488e+00
3.869114292960083024e-01 1.762617133680166148e+00
3.882525434354051619e-01 1.664031954339613151e+00
3.895936575748020214e-01 1.836781417361251556e+00
3.909347717141988809e-01 1.681842658729742368e+00
3.922758858535957405e-01 1.408078497227236880e+00
3.936169999929926000e-01 1.558916932809836453e+00
3.949581141323894595e-01 1.536046688457496145e+00
3.962992282717863191e-01 1.417419785749238770e+00
3.976403424111831786e-01 1.503194757237864110e+00
3.989814565505800381e-01 1.319496988345584043e+00
4.003225706899768976e-01 1.156756498871672534e+00
4.016636848293737572e-01 1.740098549395732164e+00
4.030047989687706167e-01 2.049466471295112058e+00
4.043459131081674207e-01 1.735192075276160040e+00
4.056870272475643358e-01 1.797635214713174889e+00
4.070281413869611398e-01 1.888848180476848881e+00
4.083692555263580548e-01 1.769814470745373569e+00
4.097103696657548588e-01 1.481660553379896328e+00
4.110514838051517739e-01 1.419120923996906924e+00
4.123925979445485779e-01 1.652648340201004373e+00
4.137337120839453819e-01 1.731370885209372545e+00
4.150748262233422969e-01 1.680658385213952499e+00
4.164159403627391010e-01 1.548557323816822873e+00
4.177570545021360160e-01 1.288998181853784786e+00
4.190981686415328200e-01 1.537943281101242121e+00
4.204392827809296240e-01 1.286689593362737583e+00
4.217803969203265391e-01 1.435462500196884150e+00
4.231215110597233431e-01 1.805696273947319241e+00
4.244626251991202581e-01 1.193243462236566188e+00
4.258037393385170621e-01 1.180240614784906938e+00
4.271448534779138662e-01 1.650506108718609255e+00
4.284859676173107812e-01 1.501021142286930399e+00
4.298270817567075852e-01 1.557325944140949048e+00
4.311681958961045003e-01 1.451332585673945630e+00
4.325093100355013043e-01 1.207997982329402475e+00
4.338504241748981638e-01 1.645883631225579791e+00
4.351915383142950233e-01 1.363046716515079027e+00
4.365326524536918829e-01 1.408470329124824616e+00
4.378737665930887424e-01 1.665188095585946826e+00
4.392148807324856019e-01 1.711803990184840529e+00
4.405559948718824614e-01 1.694994609963003995e+00
4.418971090112793210e-01 1.523204692818296735e+00
4.432382231506761250e-01 1.574875265924951862e+00
4.445793372900730400e-01 1.691527849486526236e+00
4.459204514294698440e-01 1.862501306167729354e+00
4.472615655688667591e-01 1.419349991994934612e+00
4.486026797082635631e-01 1.512030804962293473e+00
4.499437938476603671e-01 1.549574375043626162e+00
4.512849079870572822e-01 1.843589876853194198e+00
4.526260221264540862e-01 1.691054973365112346e+00
4.539671362658510012e-01 1.356213690224826962e+00
4.553082504052478052e-01 1.325047621437889234e+00
4.566493645446446092e-01 1.586484955182015710e+00
4.579904786840415243e-01 1.698903749639036675e+00
4.593315928234383283e-01 1.362327607498279747e+00
4.606727069628352433e-01 1.336086952481736034e+00
4.620138211022320474e-01 1.332168574932090621e+00
4.633549352416289624e-01 1.513418687739068957e+00
4.646960493810257664e-01 1.568534981494721592e+00
4.660371635204225704e-01 1.418118946316816675e+00
4.673782776598194855e-01 1.184300364802396643e+00
4.687193917992162895e-01 1.474938227556130244e+00
4.700605059386132045e-01 1.009833548752496313e+00
4.714016200780100085e-01 1.051730973593649310e+00
4.727427342174068681e-01 1.463885402361476906e+00
4.740838483568037276e-01 1.548356175813182745e+00
4.754249624962005871e-01 1.432886356348163304e+00
4.767660766355974467e-01 1.142463961596511979e+00
4.781071907749943062e-01 1.333750082811107518e+00
4.794483049143911102e-01 1.313393410969077024e+00
4.807894190537880252e-01 1.129311130230455262e+00
4.821305331931848293e-01 1.359100708114048928e+00
4.834716473325817443e-01 1.712735537668173436e+00
4.848127614719785483e-01 1.553505266411484342e+00
4.861538756113753523e-01 1.435549264369718969e+00
4.874949897507722674e-01 1.141968755979029027e+00
4.888361038901690714e-01 9.975970493634847003e-01
4.901772180295659864e-01 1.131869382074654595e+00
4.915183321689627904e-01 1.142315050882842797e+00
4.928594463083597055e-01 8.040452311003534192e-01
4.942005604477565095e-01 6.677917351919759881e-01
4.955416745871533135e-01 8.299500864345361606e-01
4.968827887265502286e-01 1.121962326627603090e+00
4.982239028659470326e-01 1.089468533512075510e+00
4.995650170053439476e-01 8.718605442048357190e-01
5.009061311447408071e-01 6.885608618891652100e-01
5.022472452841375556e-01 6.885757686199553973e-01
5.035883594235345262e-01 9.710292127875064239e-01
5.049294735629312747e-01 8.754809039409465754e-01
5.062705877023282452e-01 6.325377237622475945e-01
5.076117018417249938e-01 7.913358792640323713e-01
5.089528159811218533e-01 1.118187485469988474e+00
5.102939301205187128e-01 1.158969920659309594e+00
5.116350442599155723e-01 1.026252356032671287e+00
5.129761583993124319e-01 7.738882645666365079e-01
5.143172725387092914e-01 5.329863238409089377e-01
5.156583866781061509e-01 5.102318598782531467e-01
5.169995008175030105e-01 8.187720698410885234e-01
5.183406149568997590e-01 7.985788937406113064e-01
5.196817290962967295e-01 9.056496870515431397e-01
5.210228432356934780e-01 8.995477163710319246e-01
5.223639573750904486e-01 9.358517346385823998e-01
5.237050715144871971e-01 7.866647863894087322e-01
5.250461856538840566e-01 6.680846321008360178e-01
5.263872997932809161e-01 7.231303045406534125e-01
5.277284139326777757e-01 8.136845154787621937e-01
5.290695280720746352e-01 7.250265744314674521e-01
5.304106422114714947e-01 6.285060938480526715e-01
5.317517563508683542e-01 5.980617183414480564e-01
5.330928704902652138e-01 8.436326470988575466e-01
5.344339846296620733e-01 9.538649996949715160e-01
5.357750987690589328e-01 6.208225074566158241e-01
5.371162129084557924e-01 5.186613815658347448e-01
5.384573270478525409e-01 2.927786571045913888e-01
5.397984411872495114e-01 5.668869055733196660e-01
5.411395553266462599e-01 7.170032757735640416e-01
5.424806694660432305e-01 8.455016606291039238e-01
5.438217836054399790e-01 7.519335841192287262e-01
5.451628977448369495e-01 5.123393999578098601e-01
5.465040118842336980e-01 3.749703480118569132e-01
5.478451260236305576e-01 6.823577484714249408e-01
5.491862401630274171e-01 5.792544901908556199e-01
5.505273543024242766e-01 7.054509146819825105e-01
5.518684684418211361e-01 7.530859365751609857e-01
5.532095825812179957e-01 6.024241382826716062e-01
5.545506967206147442e-01 4.403111976530524885e-01
