# q (1/Angstrom), Intensity (arb)
2.078726924066784734e-02 1.854881455292389205e+02
2.212838338006469993e-02 2.745060699333165530e+02
2.346949751946154905e-02 3.666890246415724732e+02
2.481061165885840164e-02 5.285912821608092145e+02
2.615172579825525423e-02 6.149314714526185526e+02
2.749283993765210335e-02 6.482623784029744911e+02
2.883395407704895941e-02 6.726025919604735464e+02
3.017506821644580506e-02 6.944500246771892762e+02
3.151618235584265765e-02 6.979987479543258360e+02
3.285729649523951718e-02 6.973792959830143445e+02
3.419841063463636283e-02 6.959381970905233175e+02
3.553952477403321542e-02 6.868903102320060725e+02
3.688063891343006800e-02 6.820955465604412211e+02
3.822175305282692059e-02 6.783180045788984671e+02
3.956286719222376624e-02 6.741293136950409917e+02
4.090398133162062577e-02 6.705723793380352618e+02
4.224509547101747142e-02 6.626712223827335038e+02
4.358620961041432401e-02 6.552934541464787799e+02
4.492732374981117660e-02 6.537927911968047283e+02
4.626843788920802919e-02 6.509780825509510578e+02
4.760955202860488178e-02 6.486616122108097215e+02
4.895066616800172743e-02 6.457995353650155721e+02
5.029178030739858696e-02 6.416837390029307926e+02
5.163289444679544649e-02 6.380337163322114975e+02
5.297400858619229214e-02 6.362754128272433718e+02
5.431512272558913779e-02 6.328624911039785275e+02
5.565623686498599731e-02 6.267875075340137982e+02
5.699735100438284990e-02 6.204236066935399094e+02
5.833846514377969555e-02 6.161450750710006332e+02
5.967957928317654814e-02 6.138477159938418026e+02
6.102069342257340767e-02 6.066963443722607963e+02
6.236180756197025332e-02 5.999306741924863218e+02
6.370292170136709897e-02 5.948992742399356075e+02
6.504403584076395850e-02 5.908306091012568686e+02
6.638514998016080415e-02 5.848994354323767766e+02
6.772626411955766368e-02 5.749846190663881771e+02
6.906737825895450933e-02 5.656715525067324961e+02
7.040849239835136886e-02 5.608270599259869869e+02
7.174960653774821451e-02 5.516474630865138806e+02
7.309072067714506016e-02 5.421515666589467628e+02
7.443183481654190581e-02 5.341590814968133145e+02
7.577294895593877921e-02 5.267832804179334971e+02
7.711406309533562486e-02 5.167432410125891238e+02
7.845517723473247051e-02 5.076610819693353278e+02
7.979629137412933004e-02 5.009873420005617959e+02
8.113740551352617569e-02 4.924176726977732415e+02
8.247851965292302134e-02 4.814357436729457049e+02
8.381963379231988087e-02 4.748685923968888574e+02
8.516074793171674040e-02 4.656465752677163437e+02
8.650186207111358605e-02 4.578581937333371457e+02
8.784297621051043170e-02 4.510473295021462263e+02
8.918409034990729123e-02 4.428245213409045391e+02
9.052520448930413688e-02 4.331234858981732714e+02
9.186631862870098253e-02 4.235306960442455875e+02
9.320743276809784206e-02 4.157779676115184770e+02
9.454854690749470159e-02 4.070198853209458321e+02
9.588966104689154724e-02 3.989768613091587213e+02
9.723077518628839289e-02 3.923827336650269899e+02
9.857188932568525241e-02 3.827851197510372003e+02
9.991300346508209806e-02 3.738294765447436703e+02
1.012541176044789437e-01 3.651182255503263150e+02
1.025952317438758032e-01 3.557437099664703055e+02
1.039363458832726350e-01 3.480816484417867969e+02
1.052774600226694945e-01 3.404434541808751646e+02
1.066185741620663541e-01 3.351254206139634562e+02
1.079596883014631858e-01 3.256423849516692712e+02
1.093008024408600454e-01 3.171586155483505536e+02
1.106419165802569049e-01 3.108575122231697492e+02
1.119830307196537506e-01 3.021098101708129207e+02
1.133241448590506101e-01 2.932998104193630979e+02
1.146652589984474419e-01 2.857484222339204507e+02
1.160063731378443014e-01 2.797244606787381258e+02
1.173474872772411609e-01 2.725738897856368794e+02
1.186886014166380066e-01 2.649162692072405889e+02
1.200297155560348661e-01 2.570943608391756925e+02
1.213708296954317256e-01 2.501003032682905882e+02
1.227119438348285574e-01 2.418062220930236208e+02
1.240530579742254169e-01 2.338687029440486924e+02
1.253941721136222764e-01 2.266539065931093830e+02
1.267352862530191082e-01 2.213122285624360188e+02
1.280764003924159677e-01 2.153404443442540241e+02
1.294175145318128273e-01 2.089765870963024668e+02
1.307586286712096590e-01 2.016151143575660569e+02
1.320997428106065186e-01 1.966063007849166979e+02
1.334408569500033781e-01 1.904625195432015801e+02
1.347819710894002376e-01 1.836836511188473651e+02
1.361230852287970972e-01 1.768016564533794224e+02
1.374641993681939289e-01 1.710912417360862321e+02
1.388053135075907885e-01 1.657370730971878743e+02
1.401464276469876480e-01 1.605431690759045296e+02
1.414875417863844798e-01 1.549210013772012076e+02
1.428286559257813393e-01 1.492818871142428634e+02
1.441697700651781988e-01 1.431412560996511729e+02
1.455108842045750306e-01 1.383874846828027785e+02
1.468519983439718901e-01 1.338880977493116120e+02
1.481931124833687219e-01 1.283240591594209548e+02
1.495342266227655814e-01 1.233472686657227229e+02
1.508753407621624687e-01 1.190291978862670561e+02
1.522164549015593005e-01 1.143742365315582816e+02
1.535575690409561600e-01 1.101861510157046240e+02
1.548986831803530195e-01 1.065770534914526877e+02
1.562397973197498513e-01 1.029587794624599155e+02
1.575809114591467108e-01 9.845755644085927827e+01
1.589220255985435704e-01 9.392666995799453389e+01
1.602631397379404021e-01 8.973854019641194668e+01
1.616042538773372617e-01 8.545567679699026087e+01
1.629453680167341212e-01 8.265016892710245600e+01
1.642864821561309530e-01 7.920221515138101154e+01
1.656275962955278125e-01 7.564587038938067565e+01
1.669687104349246720e-01 7.236441994334988692e+01
1.683098245743215315e-01 6.893036563338249323e+01
1.696509387137183911e-01 6.505470189713533102e+01
1.709920528531152228e-01 6.289231265271989457e+01
1.723331669925120824e-01 5.942889545168975474e+01
1.736742811319089419e-01 5.603711840678572287e+01
1.750153952713057737e-01 5.353596839781371841e+01
1.763565094107026332e-01 5.035952388184047379e+01
1.776976235500994927e-01 4.843217049331742885e+01
1.790387376894963245e-01 4.623854138641770817e+01
1.803798518288931840e-01 4.450713190258707641e+01
1.817209659682900158e-01 4.142800358498762137e+01
1.830620801076868753e-01 3.902808038050163475e+01
1.844031942470837349e-01 3.704929669526778468e+01
1.857443083864805944e-01 3.453478536839004676e+01
1.870854225258774539e-01 3.267256045960638744e+01
1.884265366652743134e-01 3.103770875423482778e+01
1.897676508046711452e-01 2.935172687120336832e+01
1.911087649440680047e-01 2.805180513349242233e+01
1.924498790834648643e-01 2.635400352713706695e+01
1.937909932228616960e-01 2.470855202509599735e+01
1.951321073622585556e-01 2.332428346156092402e+01
1.964732215016554151e-01 2.169404300980868072e+01
1.978143356410522469e-01 2.020080005436471993e+01
1.991554497804491064e-01 1.857492390292647144e+01
2.004965639198459382e-01 1.783100547658476387e+01
2.018376780592427977e-01 1.754358694094801763e+01
2.031787921986396572e-01 1.644242244336598446e+01
2.045199063380365168e-01 1.526249187016291842e+01
2.058610204774333763e-01 1.385846750502943792e+01
2.072021346168302081e-01 1.313708253437233964e+01
2.085432487562270676e-01 1.259876704352973320e+01
2.098843628956239271e-01 1.144219157487673044e+01
2.112254770350207866e-01 1.054160320126798922e+01
2.125665911744176462e-01 1.023194695940230758e+01
2.139077053138144502e-01 9.379084849840609195e+00
2.152488194532113097e-01 8.940742178134485130e+00
2.165899335926081692e-01 8.054116196203608524e+00
2.179310477320050288e-01 7.755010622057980640e+00
2.192721618714018883e-01 7.137196013205652889e+00
2.206132760107987478e-01 6.477011887125016187e+00
2.219543901501955796e-01 6.413541017027966973e+00
2.232955042895924391e-01 6.178948784251218740e+00
2.246366184289892987e-01 5.547935223325609400e+00
2.259777325683861582e-01 5.690779391750893978e+00
2.273188467077830177e-01 5.770840695502116091e+00
2.286599608471798217e-01 4.763029482657856306e+00
2.300010749865766813e-01 4.338088298269411780e+00
2.313421891259735408e-01 3.723918273209747554e+00
2.326833032653704003e-01 3.451917948681014536e+00
2.340244174047672598e-01 3.290657689008412490e+00
2.353655315441641194e-01 3.155626260723551013e+00
2.367066456835609234e-01 3.938262348276637681e+00
2.380477598229577829e-01 4.037961094876166612e+00
2.393888739623546424e-01 3.954190664518023368e+00
2.407299881017515020e-01 3.234044277727576855e+00
2.420711022411483615e-01 2.861835602718500127e+00
2.434122163805451933e-01 3.545875458808424696e+00
2.447533305199420528e-01 3.470252144687151485e+00
2.460944446593389123e-01 2.840922264480752801e+00
2.474355587987357719e-01 3.080059866725164852e+00
2.487766729381326314e-01 3.681851135112736984e+00
2.501177870775294632e-01 3.536749663556406631e+00
2.514589012169263227e-01 3.773429300984744827e+00
2.528000153563231822e-01 3.602917284106240459e+00
2.541411294957200417e-01 3.398746520667998539e+00
2.554822436351169013e-01 4.151130062062364345e+00
2.568233577745137608e-01 3.856293889809009556e+00
2.581644719139106203e-01 3.574467796010097231e+00
2.595055860533074243e-01 3.692306506953897838e+00
2.608467001927042839e-01 3.989364377319191135e+00
2.621878143321011434e-01 4.108237177083452707e+00
2.635289284714980029e-01 4.131291710072275691e+00
2.648700426108948625e-01 3.575471661057449069e+00
2.662111567502916665e-01 3.846842956960202287e+00
2.675522708896885260e-01 3.904825015487148221e+00
2.688933850290853855e-01 3.953111784809337337e+00
2.702344991684822451e-01 4.714745159221394033e+00
2.715756133078791046e-01 4.863462330918551402e+00
2.729167274472759641e-01 5.042872204892347554e+00
2.742578415866727681e-01 4.753784315961183893e+00
2.755989557260696277e-01 4.695682993433891284e+00
2.769400698654664872e-01 4.538809135676004303e+00
2.782811840048633467e-01 4.842159050286142019e+00
2.796222981442602062e-01 4.657028092699547983e+00
2.809634122836570103e-01 4.773938271644169618e+00
2.823045264230538698e-01 4.868378216136619585e+00
2.836456405624507293e-01 4.639062193952455004e+00
2.849867547018475888e-01 4.597534592414319832e+00
2.863278688412444484e-01 4.981403545719174986e+00
2.876689829806413079e-01 5.061531839262258359e+00
2.890100971200381674e-01 5.117973826749718569e+00
2.903512112594350270e-01 4.929111511448056149e+00
2.916923253988318865e-01 4.779814901787133863e+00
2.930334395382287460e-01 4.867311445122012969e+00
2.943745536776256055e-01 5.317001913841409078e+00
2.957156678170224096e-01 5.211985439187074576e+00
2.970567819564192691e-01 4.884866019165230000e+00
2.983978960958161286e-01 4.881366597428367982e+00
2.997390102352129881e-01 4.947553009773201893e+00
3.010801243746098477e-01 5.145839035538017470e+00
3.024212385140067072e-01 5.075530040064620607e+00
3.037623526534035112e-01 4.667026578817541349e+00
3.051034667928003707e-01 4.763756148563203396e+00
3.064445809321972303e-01 4.999637077442088184e+00
3.077856950715940898e-01 5.035219970335703010e+00
3.091268092109909493e-01 5.025318026304631758e+00
3.104679233503877533e-01 4.610220725049252621e+00
3.118090374897846129e-01 4.870068832029069483e+00
3.131501516291814724e-01 4.512937997262412182e+00
3.144912657685783319e-01 4.609650075440150374e+00
3.158323799079751915e-01 4.606870607032625742e+00
3.171734940473720510e-01 4.778778446945551650e+00
3.185146081867689105e-01 4.904053741386420029e+00
3.198557223261657700e-01 4.877379763129987111e+00
3.211968364655626296e-01 4.596102968624755647e+00
3.225379506049594891e-01 4.359971194971507202e+00
3.238790647443563486e-01 4.270256527430255744e+00
3.252201788837532082e-01 4.064517964573987285e+00
3.265612930231500122e-01 4.135680038942510350e+00
3.279024071625468717e-01 4.135109324368997363e+00
3.292435213019437312e-01 4.140912181730541874e+00
3.305846354413405908e-01 4.484994953519489513e+00
3.319257495807374503e-01 4.236761545525794759e+00
3.332668637201342543e-01 3.825280593519330807e+00
3.346079778595311138e-01 3.995388145857532436e+00
3.359490919989279734e-01 3.558379458123461347e+00
3.372902061383248329e-01 3.748188236699185438e+00
3.386313202777216924e-01 3.684461809972169988e+00
3.399724344171185519e-01 3.915379083238839542e+00
3.413135485565153560e-01 3.637123606247335772e+00
3.426546626959122155e-01 3.630289849393783186e+00
3.439957768353090750e-01 3.389628008393877678e+00
3.453368909747059345e-01 3.208412204659545353e+00
3.466780051141027941e-01 2.992447120982049569e+00
3.480191192534995981e-01 2.944863450042063846e+00
3.493602333928964576e-01 3.213237040981510972e+00
3.507013475322933171e-01 3.198924059372124873e+00
3.520424616716901767e-01 3.075287557631675384e+00
3.533835758110870362e-01 2.961155257227964910e+00
3.547246899504838957e-01 2.755782756285576340e+00
3.560658040898807553e-01 3.296324722931593953e+00
3.574069182292776148e-01 2.912176914840046038e+00
3.587480323686744743e-01 2.626573514176833157e+00
3.600891465080713338e-01 2.527832251008085507e+00
3.614302606474681934e-01 2.486726477976311855e+00
3.627713747868649974e-01 2.504991877348246021e+00
3.641124889262618569e-01 2.921554572999937704e+00
3.654536030656587164e-01 2.495387582369517077e+00
3.667947172050555760e-01 2.477215644670209826e+00
3.681358313444524355e-01 2.841904878942813184e+00
3.694769454838492950e-01 2.558071936263296209e+00
3.708180596232460990e-01 2.057443258501770345e+00
3.721591737626429586e-01 1.822378480633908282e+00
3.735002879020398181e-01 1.796107533888999797e+00
3.748414020414366776e-01 2.063464727190293502e+00
3.761825161808335372e-01 2.244237386845014726e+00
3.775236303202303967e-01 2.110284616950131920e+00
3.788647444596272007e-01 2.088965065734441851e+00
3.802058585990240602e-01 1.719358869011067270e+00
3.815469727384209198e-01 1.718257950607352313e+00
3.828880868778177793e-01 1.953225169389369853e+00
3.842292010172146388e-01 2.004315198901061024e+00
3.855703151566114428e-01 1.951581591949370420e+00
3.869114292960083024e-01 2.000604588593304811e+00
3.882525434354051619e-01 1.557019418089794272e+00
3.895936575748020214e-01 1.375488723044810513e+00
3.909347717141988809e-01 1.656448315395898874e+00
3.922758858535957405e-01 1.503384958372748770e+00
3.936169999929926000e-01 1.248563896509168103e+00
3.949581141323894595e-01 1.392989170244085528e+00
3.962992282717863191e-01 1.297980731488870276e+00
3.976403424111831786e-01 1.111255479860211892e+00
3.989814565505800381e-01 9.254465981881097036e-01
4.003225706899768976e-01 9.479538699555618564e-01
4.016636848293737572e-01 1.430297849144757549e+00
4.030047989687706167e-01 1.393817648457108760e+00
4.043459131081674207e-01 9.811066957127110300e-01
4.056870272475643358e-01 1.141695572578399265e+00
4.070281413869611398e-01 1.388762945945366312e+00
4.083692555263580548e-01 1.356129758378067152e+00
4.097103696657548588e-01 1.488581774815564529e+00
4.110514838051517739e-01 1.434438317965792464e+00
4.123925979445485779e-01 1.266369947437105736e+00
4.137337120839453819e-01 1.427034748327201896e+00
4.150748262233422969e-01 1.464243866171727859e+00
4.164159403627391010e-01 1.303641648203026193e+00
4.177570545021360160e-01 1.282464152696618953e+00
4.190981686415328200e-01 1.305200233315552794e+00
4.204392827809296240e-01 8.616790715992834748e-01
4.217803969203265391e-01 9.236708410353458021e-01
4.231215110597233431e-01 1.188227732633514222e+00
4.244626251991202581e-01 1.016153619091824112e+00
4.258037393385170621e-01 1.045676776043343637e+00
4.271448534779138662e-01 1.287178587621326642e+00
4.284859676173107812e-01 1.564869097619940419e+00
4.298270817567075852e-01 1.467213896085901581e+00
4.311681958961045003e-01 1.255195441551855140e+00
4.325093100355013043e-01 9.908742817977014283e-01
4.338504241748981638e-01 1.223961963077464077e+00
4.351915383142950233e-01 9.599135739237851794e-01
4.365326524536918829e-01 1.328274844330984195e+00
4.378737665930887424e-01 1.457446110453538779e+00
4.392148807324856019e-01 1.430611742637474038e+00
4.405559948718824614e-01 1.519436961041250811e+00
4.418971090112793210e-01 1.360898968359329331e+00
4.432382231506761250e-01 1.219551046301965869e+00
4.445793372900730400e-01 1.218119782115188343e+00
4.459204514294698440e-01 1.258908041098415254e+00
4.472615655688667591e-01 1.226266661386020473e+00
4.486026797082635631e-01 1.227038774886587191e+00
4.499437938476603671e-01 1.124171404728507184e+00
4.512849079870572822e-01 1.583215432575869386e+00
4.526260221264540862e-01 1.318549420961751650e+00
4.539671362658510012e-01 1.239750630161616129e+00
4.553082504052478052e-01 1.494291050405394117e+00
4.566493645446446092e-01 1.260947652057176072e+00
4.579904786840415243e-01 1.254234236537179470e+00
4.593315928234383283e-01 1.353402799741999729e+00
4.606727069628352433e-01 1.066266037733193173e+00
4.620138211022320474e-01 8.982484026206805083e-01
4.633549352416289624e-01 1.198002459022013966e+00
4.646960493810257664e-01 1.233421744179494794e+00
4.660371635204225704e-01 1.206301934112495644e+00
4.673782776598194855e-01 1.028629782024260919e+00
4.687193917992162895e-01 1.121349703340236204e+00
4.700605059386132045e-01 1.278903444918462640e+00
4.714016200780100085e-01 1.160180180449117415e+00
4.727427342174068681e-01 1.211826028503246278e+00
4.740838483568037276e-01 1.512621780615631906e+00
4.754249624962005871e-01 1.565911827705598114e+00
4.767660766355974467e-01 1.021414292952975700e+00
4.781071907749943062e-01 7.426720549835508223e-01
4.794483049143911102e-01 1.000823291252388003e+00
4.807894190537880252e-01 1.195387901603751857e+00
4.821305331931848293e-01 1.258633482079950738e+00
4.834716473325817443e-01 1.455100781944153709e+00
4.848127614719785483e-01 1.116526118833235159e+00
4.861538756113753523e-01 1.117932631020835288e+00
4.874949897507722674e-01 9.001933357676179526e-01
4.888361038901690714e-01 6.774375901977833792e-01
4.901772180295659864e-01 1.008851030332571952e+00
4.915183321689627904e-01 1.152699413630706715e+00
4.928594463083597055e-01 8.396623844174655460e-01
4.942005604477565095e-01 9.446584610110733138e-01
4.955416745871533135e-01 1.106974310700884701e+00
4.968827887265502286e-01 1.149592711489205499e+00
4.982239028659470326e-01 9.692031679746335726e-01
4.995650170053439476e-01 1.111316955278589091e+00
5.009061311447408071e-01 7.994058770247249868e-01
5.022472452841375556e-01 7.705015466164226723e-01
5.035883594235345262e-01 8.597450989496024931e-01
5.049294735629312747e-01 7.445910632619003877e-01
5.062705877023282452e-01 6.368244090368406773e-01
5.076117018417249938e-01 7.395630563627477727e-01
5.089528159811218533e-01 9.965764205744491733e-01
5.102939301205187128e-01 1.135668133151774839e+00
5.116350442599155723e-01 1.026424959199054854e+00
5.129761583993124319e-01 5.221181546145317043e-01
5.143172725387092914e-01 5.965907559713130581e-01
5.156583866781061509e-01 6.485177006165017133e-01
5.169995008175030105e-01 5.627266896790033002e-01
5.183406149568997590e-01 5.478748700269164829e-01
5.196817290962967295e-01 8.026952784013445807e-01
5.210228432356934780e-01 6.336043256426151515e-01
5.223639573750904486e-01 9.109234366225820168e-01
5.237050715144871971e-01 9.331564751609491282e-01
5.250461856538840566e-01 8.213384791161928433e-01
5.263872997932809161e-01 6.364637371646111319e-01
5.277284139326777757e-01 7.231630408031222146e-01
5.290695280720746352e-01 9.741758790530710144e-01
5.304106422114714947e-01 5.702961050851200753e-01
5.317517563508683542e-01 7.490041238684028713e-01
5.330928704902652138e-01 7.106525305798143677e-01
5.344339846296620733e-01 7.640282345084870030e-01
5.357750987690589328e-01 6.444930453120321090e-01
5.371162129084557924e-01 7.158414400220465268e-01
5.384573270478525409e-01 4.805321806478630720e-01
5.397984411872495114e-01 4.859387238622900895e-01
5.411395553266462599e-01 8.280775364392738425e-01
5.424806694660432305e-01 8.463909814758210359e-01
5.438217836054399790e-01 7.256591618758889695e-01
5.451628977448369495e-01 5.510959339444596594e-01
5.465040118842336980e-01 5.802378433355315224e-01
5.478451260236305576e-01 6.449172989241773735e-01
5.491862401630274171e-01 4.346601718690408234e-01
5.505273543024242766e-01 7.521068666317276552e-01
5.518684684418211361e-01 8.945071556795127776e-01
5.532095825812179957e-01 4.766181723107933976e-01
5.545506967206147442e-01 3.513251370785468453e-01
