# q (1/Angstrom), Intensity (arb)
2.078726924066784734e-02 2.949318522204566762e+02
2.212838338006469993e-02 4.331605092018338041e+02
2.346949751946154905e-02 5.883478709092502186e+02
2.481061165885840164e-02 8.472252508088117793e+02
2.615172579825525423e-02 9.888262212174055321e+02
2.749283993765210335e-02 1.045483659590047182e+03
2.883395407704895941e-02 1.087679608481702871e+03
3.017506821644580506e-02 1.118516882681238030e+03
3.151618235584265765e-02 1.121355172553092871e+03
3.285729649523951718e-02 1.118428659141494336e+03
3.419841063463636283e-02 1.115821551697167934e+03
3.553952477403321542e-02 1.111739286771204888e+03
3.688063891343006800e-02 1.105650620218932772e+03
3.822175305282692059e-02 1.099241291136860127e+03
3.956286719222376624e-02 1.091115733472539659e+03
4.090398133162062577e-02 1.084350508085383353e+03
4.224509547101747142e-02 1.078329325389172936e+03
4.358620961041432401e-02 1.067250829549323953e+03
4.492732374981117660e-02 1.059815963130930868e+03
4.626843788920802919e-02 1.057140868414109718e+03
4.760955202860488178e-02 1.056872245777391299e+03
4.895066616800172743e-02 1.047124237553367266e+03
5.029178030739858696e-02 1.038803125848761056e+03
5.163289444679544649e-02 1.035980182590977620e+03
5.297400858619229214e-02 1.030597198563464417e+03
5.431512272558913779e-02 1.022008150973678084e+03
5.565623686498599731e-02 1.007374785191801266e+03
5.699735100438284990e-02 9.963195047098338364e+02
5.833846514377969555e-02 9.886097493991172769e+02
5.967957928317654814e-02 9.783788157396828638e+02
6.102069342257340767e-02 9.720027212548443458e+02
6.236180756197025332e-02 9.618929703320272893e+02
6.370292170136709897e-02 9.507633538060730416e+02
6.504403584076395850e-02 9.372761011932972224e+02
6.638514998016080415e-02 9.246074852424864048e+02
6.772626411955766368e-02 9.110614754106529745e+02
6.906737825895450933e-02 8.962228320904384873e+02
7.040849239835136886e-02 8.819240129911238455e+02
7.174960653774821451e-02 8.674716938068013405e+02
7.309072067714506016e-02 8.523164094177491279e+02
7.443183481654190581e-02 8.354845537289781987e+02
7.577294895593877921e-02 8.221209943339787287e+02
7.711406309533562486e-02 8.057625900949582274e+02
7.845517723473247051e-02 7.895452682207488806e+02
7.979629137412933004e-02 7.722802804368378702e+02
8.113740551352617569e-02 7.566552960726893389e+02
8.247851965292302134e-02 7.413385091989414377e+02
8.381963379231988087e-02 7.278484336863040198e+02
8.516074793171674040e-02 7.146894803261950528e+02
8.650186207111358605e-02 6.998913486056044349e+02
8.784297621051043170e-02 6.825230379931141442e+02
8.918409034990729123e-02 6.656120667225005718e+02
9.052520448930413688e-02 6.502437880888197697e+02
9.186631862870098253e-02 6.360778297218544139e+02
9.320743276809784206e-02 6.229021801455110108e+02
9.454854690749470159e-02 6.085851683872150488e+02
9.588966104689154724e-02 5.940697903932426698e+02
9.723077518628839289e-02 5.776566650555284923e+02
9.857188932568525241e-02 5.619851234084336511e+02
9.991300346508209806e-02 5.477955320165186777e+02
1.012541176044789437e-01 5.332957278514861628e+02
1.025952317438758032e-01 5.192831908434515071e+02
1.039363458832726350e-01 5.055504783426151789e+02
1.052774600226694945e-01 4.910227067996710844e+02
1.066185741620663541e-01 4.765414944039232523e+02
1.079596883014631858e-01 4.632192623417454342e+02
1.093008024408600454e-01 4.513100819956069358e+02
1.106419165802569049e-01 4.388059002603697536e+02
1.119830307196537506e-01 4.263157162999192451e+02
1.133241448590506101e-01 4.131262104901091448e+02
1.146652589984474419e-01 3.986580625499506141e+02
1.160063731378443014e-01 3.862601144239270639e+02
1.173474872772411609e-01 3.740958132670104987e+02
1.186886014166380066e-01 3.620374746184778587e+02
1.200297155560348661e-01 3.510027360440535631e+02
1.213708296954317256e-01 3.399642752442275651e+02
1.227119438348285574e-01 3.288263362867384672e+02
1.240530579742254169e-01 3.165216631274066685e+02
1.253941721136222764e-01 3.057686053268224668e+02
1.267352862530191082e-01 2.948398881791295025e+02
1.280764003924159677e-01 2.838225983842897904e+02
1.294175145318128273e-01 2.731972537726144310e+02
1.307586286712096590e-01 2.626115340802894025e+02
1.320997428106065186e-01 2.532475599440754763e+02
1.334408569500033781e-01 2.419913239703975876e+02
1.347819710894002376e-01 2.330303372406700646e+02
1.361230852287970972e-01 2.237967340711441580e+02
1.374641993681939289e-01 2.142397239704216076e+02
1.388053135075907885e-01 2.069684081761000698e+02
1.401464276469876480e-01 1.992843342849452597e+02
1.414875417863844798e-01 1.913186047710011621e+02
1.428286559257813393e-01 1.830846223227518976e+02
1.441697700651781988e-01 1.736612858678570319e+02
1.455108842045750306e-01 1.657456244263200347e+02
1.468519983439718901e-01 1.591501783095525582e+02
1.481931124833687219e-01 1.526139659546048222e+02
1.495342266227655814e-01 1.449895601097911708e+02
1.508753407621624687e-01 1.372600501639424238e+02
1.522164549015593005e-01 1.308684210940728576e+02
1.535575690409561600e-01 1.259437931270511655e+02
1.548986831803530195e-01 1.199466651712418894e+02
1.562397973197498513e-01 1.135196618833912794e+02
1.575809114591467108e-01 1.062393367249543985e+02
1.589220255985435704e-01 1.008510790241388833e+02
1.602631397379404021e-01 9.641779053860572901e+01
1.616042538773372617e-01 9.169596585099786523e+01
1.629453680167341212e-01 8.569557348681364317e+01
1.642864821561309530e-01 8.093402755528323667e+01
1.656275962955278125e-01 7.611500525592502697e+01
1.669687104349246720e-01 7.214509638818253734e+01
1.683098245743215315e-01 6.777891471282697466e+01
1.696509387137183911e-01 6.344411903454385993e+01
1.709920528531152228e-01 5.947823246104287875e+01
1.723331669925120824e-01 5.658659946778433891e+01
1.736742811319089419e-01 5.341910420832536488e+01
1.750153952713057737e-01 5.024297078226516078e+01
1.763565094107026332e-01 4.655384309784379582e+01
1.776976235500994927e-01 4.353948631581098994e+01
1.790387376894963245e-01 4.120224020098204676e+01
1.803798518288931840e-01 3.829988224600417368e+01
1.817209659682900158e-01 3.540874733720551149e+01
1.830620801076868753e-01 3.288589953420816414e+01
1.844031942470837349e-01 3.053495923058450501e+01
1.857443083864805944e-01 2.910437539336832913e+01
1.870854225258774539e-01 2.663197908813683057e+01
1.884265366652743134e-01 2.416900727791136205e+01
1.897676508046711452e-01 2.189463571295479483e+01
1.911087649440680047e-01 2.004787052338984665e+01
1.924498790834648643e-01 1.861408220991236817e+01
1.937909932228616960e-01 1.762762377513661249e+01
1.951321073622585556e-01 1.584345253741985005e+01
1.964732215016554151e-01 1.419216315954642482e+01
1.978143356410522469e-01 1.324868178221815640e+01
1.991554497804491064e-01 1.249044522139122648e+01
2.004965639198459382e-01 1.143008486658315803e+01
2.018376780592427977e-01 1.004050982880043819e+01
2.031787921986396572e-01 9.842699852799555060e+00
2.045199063380365168e-01 9.027847926436137982e+00
2.058610204774333763e-01 7.856709886239372054e+00
2.072021346168302081e-01 7.204259166410182047e+00
2.085432487562270676e-01 6.607907490442713083e+00
2.098843628956239271e-01 6.210758090124741670e+00
2.112254770350207866e-01 5.477338295639810894e+00
2.125665911744176462e-01 5.101549648630978595e+00
2.139077053138144502e-01 4.886974233861437256e+00
2.152488194532113097e-01 5.044985436044299831e+00
2.165899335926081692e-01 5.466190402056014364e+00
2.179310477320050288e-01 4.700701384846183828e+00
2.192721618714018883e-01 4.044413043349024406e+00
2.206132760107987478e-01 3.979846912619834143e+00
2.219543901501955796e-01 4.312922664595618016e+00
2.232955042895924391e-01 3.549820208022993029e+00
2.246366184289892987e-01 3.322610168506983541e+00
2.259777325683861582e-01 3.484569971722336845e+00
2.273188467077830177e-01 3.476573091370894986e+00
2.286599608471798217e-01 3.702096137032469869e+00
2.300010749865766813e-01 3.979439800381726400e+00
2.313421891259735408e-01 3.947435485526497700e+00
2.326833032653704003e-01 4.721324925062504008e+00
2.340244174047672598e-01 4.221962972082721421e+00
2.353655315441641194e-01 4.469444469016423227e+00
2.367066456835609234e-01 4.894620548276947147e+00
2.380477598229577829e-01 4.766450864142555588e+00
2.393888739623546424e-01 4.922186281725274171e+00
2.407299881017515020e-01 5.119859566857059008e+00
2.420711022411483615e-01 4.936384406688773652e+00
2.434122163805451933e-01 5.166962713250072170e+00
2.447533305199420528e-01 5.600728037367360912e+00
2.460944446593389123e-01 5.415334210405816862e+00
2.474355587987357719e-01 5.421528951803011864e+00
2.487766729381326314e-01 6.138642967814647022e+00
2.501177870775294632e-01 6.056891452672331866e+00
2.514589012169263227e-01 5.964872757452894803e+00
2.528000153563231822e-01 6.563471099951328824e+00
2.541411294957200417e-01 6.419872379029669673e+00
2.554822436351169013e-01 6.819425011295493277e+00
2.568233577745137608e-01 7.574222763002836700e+00
2.581644719139106203e-01 7.746768099128544804e+00
2.595055860533074243e-01 7.004858007501709949e+00
2.608467001927042839e-01 6.991114247995824371e+00
2.621878143321011434e-01 6.971046960809701432e+00
2.635289284714980029e-01 7.681307771928899797e+00
2.648700426108948625e-01 7.921919079231614091e+00
2.662111567502916665e-01 7.697143378399914582e+00
2.675522708896885260e-01 8.178838062831701450e+00
2.688933850290853855e-01 7.883823330641263283e+00
2.702344991684822451e-01 8.214970418106673833e+00
2.715756133078791046e-01 7.855474089638917690e+00
2.729167274472759641e-01 7.811995128963644675e+00
2.742578415866727681e-01 7.808061158594853168e+00
2.755989557260696277e-01 7.714183825244617765e+00
2.769400698654664872e-01 7.884584821405809407e+00
2.782811840048633467e-01 7.969718847695588693e+00
2.796222981442602062e-01 8.131464398798968318e+00
2.809634122836570103e-01 8.600581552768346683e+00
2.823045264230538698e-01 8.097909624409410867e+00
2.836456405624507293e-01 8.385941075285103352e+00
2.849867547018475888e-01 8.064616369060189527e+00
2.863278688412444484e-01 7.854493830805139964e+00
2.876689829806413079e-01 7.675896638930538529e+00
2.890100971200381674e-01 7.427505983464470773e+00
2.903512112594350270e-01 7.494332751062145803e+00
2.916923253988318865e-01 7.175932663545893320e+00
2.930334395382287460e-01 7.815458531183168134e+00
2.943745536776256055e-01 7.556290112215577892e+00
2.957156678170224096e-01 7.023293764811569417e+00
2.970567819564192691e-01 6.645699200909845672e+00
2.983978960958161286e-01 6.605807475822771835e+00
2.997390102352129881e-01 6.728107416700282783e+00
3.010801243746098477e-01 6.533412110286462848e+00
3.024212385140067072e-01 6.289834162170564014e+00
3.037623526534035112e-01 6.079788309101942900e+00
3.051034667928003707e-01 6.005634494283839331e+00
3.064445809321972303e-01 5.954875729918626348e+00
3.077856950715940898e-01 5.956213601029119786e+00
3.091268092109909493e-01 6.119280699822169822e+00
3.104679233503877533e-01 5.355522077865998654e+00
3.118090374897846129e-01 5.323590215538274606e+00
3.131501516291814724e-01 5.815461345474858490e+00
3.144912657685783319e-01 6.060875917872181162e+00
3.158323799079751915e-01 5.934059388270313207e+00
3.171734940473720510e-01 4.839126994094499423e+00
3.185146081867689105e-01 4.522065651744853199e+00
3.198557223261657700e-01 4.740768089358965653e+00
3.211968364655626296e-01 5.019324694958015698e+00
3.225379506049594891e-01 4.698957450556335402e+00
3.238790647443563486e-01 4.544141189518441593e+00
3.252201788837532082e-01 4.472966376630068908e+00
3.265612930231500122e-01 4.224782293154106583e+00
3.279024071625468717e-01 3.487993844836054791e+00
3.292435213019437312e-01 3.520085023080596898e+00
3.305846354413405908e-01 3.900508339544344949e+00
3.319257495807374503e-01 3.620032179091708713e+00
3.332668637201342543e-01 3.734568998660634520e+00
3.346079778595311138e-01 3.788998269508184080e+00
3.359490919989279734e-01 4.002361033327545670e+00
3.372902061383248329e-01 3.370205736953110431e+00
3.386313202777216924e-01 3.257693168588204458e+00
3.399724344171185519e-01 2.885930330502844754e+00
3.413135485565153560e-01 2.887531017472809935e+00
3.426546626959122155e-01 3.049912956900470817e+00
3.439957768353090750e-01 2.806922586404539288e+00
3.453368909747059345e-01 2.406448101091257286e+00
3.466780051141027941e-01 2.733358155439304937e+00
3.480191192534995981e-01 2.645042955745324775e+00
3.493602333928964576e-01 2.474628375286485493e+00
3.507013475322933171e-01 2.158279419000933785e+00
3.520424616716901767e-01 2.223813645502630720e+00
3.533835758110870362e-01 2.196380170659551823e+00
3.547246899504838957e-01 1.588692674171326757e+00
3.560658040898807553e-01 1.305988632261801285e+00
3.574069182292776148e-01 1.739501056978994598e+00
3.587480323686744743e-01 1.944893274127650784e+00
3.600891465080713338e-01 1.422686726101758836e+00
3.614302606474681934e-01 1.673869470603108311e+00
3.627713747868649974e-01 1.739205581265224509e+00
3.641124889262618569e-01 1.470123279293687801e+00
3.654536030656587164e-01 1.637282600193202597e+00
3.667947172050555760e-01 1.565430189871406697e+00
3.681358313444524355e-01 1.661281183860879196e+00
3.694769454838492950e-01 1.461015522228819918e+00
3.708180596232460990e-01 1.270889017180508063e+00
3.721591737626429586e-01 1.532772135118918300e+00
3.735002879020398181e-01 1.572228227390098709e+00
3.748414020414366776e-01 1.457324971115340873e+00
3.761825161808335372e-01 1.188404136191550720e+00
3.775236303202303967e-01 8.865296058158378401e-01
3.788647444596272007e-01 8.290156329080673459e-01
3.802058585990240602e-01 1.103864556874896152e+00
3.815469727384209198e-01 1.327726695875796281e+00
3.828880868778177793e-01 1.268176444550377369e+00
3.842292010172146388e-01 9.953205517670937752e-01
3.855703151566114428e-01 1.308852961485072797e+00
3.869114292960083024e-01 1.369061863193351769e+00
3.882525434354051619e-01 1.156548262800669136e+00
3.895936575748020214e-01 1.559922640692391838e+00
3.909347717141988809e-01 1.684178834916608025e+00
3.922758858535957405e-01 1.697183226163573977e+00
3.936169999929926000e-01 1.281952714041466379e+00
3.949581141323894595e-01 1.130133229286585106e+00
3.962992282717863191e-01 1.677280953272372699e+00
3.976403424111831786e-01 1.568749596823678871e+00
3.989814565505800381e-01 1.151532046101280571e+00
4.003225706899768976e-01 9.115611455647183448e-01
4.016636848293737572e-01 1.168892931935047841e+00
4.030047989687706167e-01 1.457309426575037037e+00
4.043459131081674207e-01 1.593591396390991122e+00
4.056870272475643358e-01 1.459638784845353143e+00
4.070281413869611398e-01 1.414883679837643626e+00
4.083692555263580548e-01 1.359104935621090249e+00
4.097103696657548588e-01 1.380903699688673214e+00
4.110514838051517739e-01 1.148110040712779778e+00
4.123925979445485779e-01 1.180376521208401641e+00
4.137337120839453819e-01 1.229519207881295983e+00
4.150748262233422969e-01 1.343965588448597259e+00
4.164159403627391010e-01 1.085495565837220511e+00
4.177570545021360160e-01 1.034183014826396629e+00
4.190981686415328200e-01 1.138923032091298637e+00
4.204392827809296240e-01 1.313236461020153456e+00
4.217803969203265391e-01 1.682118772800322404e+00
4.231215110597233431e-01 1.324560745832059183e+00
4.244626251991202581e-01 1.501916338153073127e+00
4.258037393385170621e-01 1.521616309489168373e+00
4.271448534779138662e-01 1.530901860371166379e+00
4.284859676173107812e-01 1.230081127698625210e+00
4.298270817567075852e-01 1.355304899279140329e+00
4.311681958961045003e-01 1.185511059080198493e+00
4.325093100355013043e-01 1.307829697094135213e+00
4.338504241748981638e-01 1.203084895318163206e+00
4.351915383142950233e-01 1.239024806663287848e+00
4.365326524536918829e-01 1.372869029439058863e+00
4.378737665930887424e-01 1.318188841587272009e+00
4.392148807324856019e-01 1.800686223031313205e+00
4.405559948718824614e-01 1.304642536812288256e+00
4.418971090112793210e-01 1.459086933773022565e+00
4.432382231506761250e-01 1.423188217645993348e+00
4.445793372900730400e-01 1.398488650159322333e+00
4.459204514294698440e-01 1.588338295894210717e+00
4.472615655688667591e-01 1.562814471161509289e+00
4.486026797082635631e-01 1.743506599449943906e+00
4.499437938476603671e-01 1.540233783153624358e+00
4.512849079870572822e-01 1.468388707142800342e+00
4.526260221264540862e-01 1.414671435441078984e+00
4.539671362658510012e-01 1.418692002158564947e+00
4.553082504052478052e-01 1.346417394580953442e+00
4.566493645446446092e-01 1.170648173794923252e+00
4.579904786840415243e-01 1.399773865007006179e+00
4.593315928234383283e-01 1.356317762106726832e+00
4.606727069628352433e-01 1.435424037245113027e+00
4.620138211022320474e-01 1.349460227440758331e+00
4.633549352416289624e-01 1.003619409418924135e+00
4.646960493810257664e-01 1.246828609261577014e+00
4.660371635204225704e-01 7.508505210122038420e-01
4.673782776598194855e-01 1.131538075850990310e+00
4.687193917992162895e-01 1.078943989181581742e+00
4.700605059386132045e-01 1.279417070539167867e+00
4.714016200780100085e-01 1.322247109089659034e+00
4.727427342174068681e-01 1.081203076141733277e+00
4.740838483568037276e-01 9.665247844549185174e-01
4.754249624962005871e-01 1.185554885433610650e+00
4.767660766355974467e-01 1.211001494899264230e+00
4.781071907749943062e-01 1.160354096007509384e+00
4.794483049143911102e-01 1.373456554356273784e+00
4.807894190537880252e-01 1.505505604889087579e+00
4.821305331931848293e-01 1.269975804533160613e+00
4.834716473325817443e-01 8.839892773258668512e-01
4.848127614719785483e-01 8.937704911734982716e-01
4.861538756113753523e-01 1.052384496886574539e+00
4.874949897507722674e-01 1.059512140728784857e+00
4.888361038901690714e-01 8.559377828799554777e-01
4.901772180295659864e-01 1.275332573767123279e+00
4.915183321689627904e-01 1.568085824093301994e+00
4.928594463083597055e-01 1.018102544558864508e+00
4.942005604477565095e-01 7.218555501971408717e-01
4.955416745871533135e-01 9.062478777213414105e-01
4.968827887265502286e-01 1.057091505636726936e+00
4.982239028659470326e-01 9.868954759467030158e-01
4.995650170053439476e-01 9.254321290137710321e-01
5.009061311447408071e-01 1.090451247433058768e+00
5.022472452841375556e-01 1.357769598912980769e+00
5.035883594235345262e-01 1.227579735100839287e+00
5.049294735629312747e-01 5.290725847424653239e-01
5.062705877023282452e-01 1.886714958392801122e-01
5.076117018417249938e-01 5.312254322196494627e-01
5.089528159811218533e-01 7.148507501558682975e-01
5.102939301205187128e-01 7.041292080915084739e-01
5.116350442599155723e-01 5.857935141273813429e-01
5.129761583993124319e-01 3.788426262417488033e-01
5.143172725387092914e-01 5.197341839256424123e-01
5.156583866781061509e-01 4.126610579548213309e-01
5.169995008175030105e-01 5.169047844240850509e-01
5.183406149568997590e-01 6.040342531799964831e-01
5.196817290962967295e-01 4.887048905254829378e-01
5.210228432356934780e-01 7.050227628063936436e-01
5.223639573750904486e-01 9.235348927389992468e-01
5.237050715144871971e-01 8.270708991764905704e-01
5.250461856538840566e-01 6.902263924464975275e-01
5.263872997932809161e-01 7.338911372877419126e-01
5.277284139326777757e-01 8.638609076910341855e-01
5.290695280720746352e-01 8.039063651614313244e-01
5.304106422114714947e-01 6.501531314829378516e-01
5.317517563508683542e-01 4.783467855612499875e-01
5.330928704902652138e-01 7.270037397073636498e-01
5.344339846296620733e-01 6.709013048943148760e-01
5.357750987690589328e-01 2.316349715283649857e-01
5.371162129084557924e-01 2.066066952507910059e-01
5.384573270478525409e-01 4.373225922572743229e-01
5.397984411872495114e-01 6.086968826803342836e-01
5.411395553266462599e-01 5.976132168093855057e-01
5.424806694660432305e-01 2.598454529458393836e-01
5.438217836054399790e-01 8.998401886433526897e-02
5.451628977448369495e-01 1.297145222600306624e-01
5.465040118842336980e-01 5.549199422089330369e-01
5.478451260236305576e-01 2.588608740112618989e-01
5.491862401630274171e-01 2.738074655569064930e-01
5.505273543024242766e-01 1.770956725249490660e-01
5.518684684418211361e-01 3.344173728698081050e-01
5.532095825812179957e-01 2.102929609335433270e-01
5.545506967206147442e-01 6.781210289423000859e-02
