# q (1/Angstrom), Intensity (arb)
2.078726924066784734e-02 2.748909815994927612e+02
2.212838338006469993e-02 4.058091481362503146e+02
2.346949751946154905e-02 5.478115436927001838e+02
2.481061165885840164e-02 7.953506599143105404e+02
2.615172579825525423e-02 9.270651718199137576e+02
2.749283993765210335e-02 9.837095354537751746e+02
2.883395407704895941e-02 1.030366277396652322e+03
3.017506821644580506e-02 1.054376301285366708e+03
3.151618235584265765e-02 1.057450524603134454e+03
3.285729649523951718e-02 1.060925628598402000e+03
3.419841063463636283e-02 1.058691741411187650e+03
3.553952477403321542e-02 1.052871976642899881e+03
3.688063891343006800e-02 1.044098563284732109e+03
3.822175305282692059e-02 1.036917391035910441e+03
3.956286719222376624e-02 1.034431751033120236e+03
4.090398133162062577e-02 1.027342227624022826e+03
4.224509547101747142e-02 1.018832893559927356e+03
4.358620961041432401e-02 1.012248018410194618e+03
4.492732374981117660e-02 1.004397553936850727e+03
4.626843788920802919e-02 1.001028639333705428e+03
4.760955202860488178e-02 1.000581582520605480e+03
4.895066616800172743e-02 9.915795247051828483e+02
5.029178030739858696e-02 9.859947109006379833e+02
5.163289444679544649e-02 9.783237398186566907e+02
5.297400858619229214e-02 9.734380974938706004e+02
5.431512272558913779e-02 9.661722611783352477e+02
5.565623686498599731e-02 9.586404981992228613e+02
5.699735100438284990e-02 9.469187472601113313e+02
5.833846514377969555e-02 9.381346657677627263e+02
5.967957928317654814e-02 9.297241542127620733e+02
6.102069342257340767e-02 9.180542050669599803e+02
6.236180756197025332e-02 9.053261250385490939e+02
6.370292170136709897e-02 8.959246738515339530e+02
6.504403584076395850e-02 8.885843621820566796e+02
6.638514998016080415e-02 8.800190147463943049e+02
6.772626411955766368e-02 8.669051984982615977e+02
6.906737825895450933e-02 8.537413900221197309e+02
7.040849239835136886e-02 8.389690090179619801e+02
7.174960653774821451e-02 8.240024643686738273e+02
7.309072067714506016e-02 8.092855582679616191e+02
7.443183481654190581e-02 7.948692078145777486e+02
7.577294895593877921e-02 7.799882980852178207e+02
7.711406309533562486e-02 7.644402470027175696e+02
7.845517723473247051e-02 7.492322699018186540e+02
7.979629137412933004e-02 7.335422312260426452e+02
8.113740551352617569e-02 7.207181174426095822e+02
8.247851965292302134e-02 7.080260256277526878e+02
8.381963379231988087e-02 6.928008241536010701e+02
8.516074793171674040e-02 6.803233206098951769e+02
8.650186207111358605e-02 6.649474315250739664e+02
8.784297621051043170e-02 6.506867040376658906e+02
8.918409034990729123e-02 6.370661640797623022e+02
9.052520448930413688e-02 6.220502168496341255e+02
9.186631862870098253e-02 6.081359167902412537e+02
9.320743276809784206e-02 5.931016974898079752e+02
9.454854690749470159e-02 5.779766417259182845e+02
9.588966104689154724e-02 5.628689664897987086e+02
9.723077518628839289e-02 5.502041189163867330e+02
9.857188932568525241e-02 5.381207903577467278e+02
9.991300346508209806e-02 5.231245002494978280e+02
1.012541176044789437e-01 5.103798079674758128e+02
1.025952317438758032e-01 4.954928650826316243e+02
1.039363458832726350e-01 4.822385730854117583e+02
1.052774600226694945e-01 4.702806029997512383e+02
1.066185741620663541e-01 4.568649457370132723e+02
1.079596883014631858e-01 4.422177243452491666e+02
1.093008024408600454e-01 4.293528969741507808e+02
1.106419165802569049e-01 4.180059628332946886e+02
1.119830307196537506e-01 4.075512390844991160e+02
1.133241448590506101e-01 3.931073934063780371e+02
1.146652589984474419e-01 3.809569006597685075e+02
1.160063731378443014e-01 3.697106717636214626e+02
1.173474872772411609e-01 3.570278645724928310e+02
1.186886014166380066e-01 3.462545087087560773e+02
1.200297155560348661e-01 3.360771238573419168e+02
1.213708296954317256e-01 3.254774149952386324e+02
1.227119438348285574e-01 3.143137872161360633e+02
1.240530579742254169e-01 3.037314179338799818e+02
1.253941721136222764e-01 2.937334084058877011e+02
1.267352862530191082e-01 2.830905339081567149e+02
1.280764003924159677e-01 2.717414269309586530e+02
1.294175145318128273e-01 2.623911193268853594e+02
1.307586286712096590e-01 2.531804857440865533e+02
1.320997428106065186e-01 2.438158507653134279e+02
1.334408569500033781e-01 2.349042526648054263e+02
1.347819710894002376e-01 2.256275612808345272e+02
1.361230852287970972e-01 2.162901583883875389e+02
1.374641993681939289e-01 2.072769264891234116e+02
1.388053135075907885e-01 2.007243501854509304e+02
1.401464276469876480e-01 1.921277165662887683e+02
1.414875417863844798e-01 1.834043154896459669e+02
1.428286559257813393e-01 1.763531476699058658e+02
1.441697700651781988e-01 1.691740474196294031e+02
1.455108842045750306e-01 1.617175508756773183e+02
1.468519983439718901e-01 1.544256654562619531e+02
1.481931124833687219e-01 1.469005585577901343e+02
1.495342266227655814e-01 1.406157340352927463e+02
1.508753407621624687e-01 1.337700195082953201e+02
1.522164549015593005e-01 1.278227926596012622e+02
1.535575690409561600e-01 1.226168823361740010e+02
1.548986831803530195e-01 1.160650185600291593e+02
1.562397973197498513e-01 1.095089630359056372e+02
1.575809114591467108e-01 1.044979399390217196e+02
1.589220255985435704e-01 9.912982407522488870e+01
1.602631397379404021e-01 9.412940302343470478e+01
1.616042538773372617e-01 8.921421287194189631e+01
1.629453680167341212e-01 8.380681961221031884e+01
1.642864821561309530e-01 7.881841723944326361e+01
1.656275962955278125e-01 7.555198034280761021e+01
1.669687104349246720e-01 7.117769846926532296e+01
1.683098245743215315e-01 6.688296110505874026e+01
1.696509387137183911e-01 6.289565326839604609e+01
1.709920528531152228e-01 5.916993345471395571e+01
1.723331669925120824e-01 5.578944496308676548e+01
1.736742811319089419e-01 5.203196065379594870e+01
1.750153952713057737e-01 4.840615403705614028e+01
1.763565094107026332e-01 4.598305917079264304e+01
1.776976235500994927e-01 4.304474628853083118e+01
1.790387376894963245e-01 4.003210249067494431e+01
1.803798518288931840e-01 3.714322189282590614e+01
1.817209659682900158e-01 3.471995707881555404e+01
1.830620801076868753e-01 3.228372023017939796e+01
1.844031942470837349e-01 2.986608766717799313e+01
1.857443083864805944e-01 2.799619257110130377e+01
1.870854225258774539e-01 2.599633620737763806e+01
1.884265366652743134e-01 2.449880347311169260e+01
1.897676508046711452e-01 2.205860790807861349e+01
1.911087649440680047e-01 2.033259800152875130e+01
1.924498790834648643e-01 1.911717237829741123e+01
1.937909932228616960e-01 1.733325141430204042e+01
1.951321073622585556e-01 1.579446397313965633e+01
1.964732215016554151e-01 1.450854772720732910e+01
1.978143356410522469e-01 1.346165190843825599e+01
1.991554497804491064e-01 1.226628702392864056e+01
2.004965639198459382e-01 1.180394706977573094e+01
2.018376780592427977e-01 1.080923019846862587e+01
2.031787921986396572e-01 9.544429336117033813e+00
2.045199063380365168e-01 8.662670635833549682e+00
2.058610204774333763e-01 8.541337359696640874e+00
2.072021346168302081e-01 7.768050641795298361e+00
2.085432487562270676e-01 7.328048724262700375e+00
2.098843628956239271e-01 6.535139770671918313e+00
2.112254770350207866e-01 6.150551873363994559e+00
2.125665911744176462e-01 6.053032090713855951e+00
2.139077053138144502e-01 5.554112901716990791e+00
2.152488194532113097e-01 5.222541768024925091e+00
2.165899335926081692e-01 4.565819514845955496e+00
2.179310477320050288e-01 4.576794978753738974e+00
2.192721618714018883e-01 4.877701134056920296e+00
2.206132760107987478e-01 4.648861205373819416e+00
2.219543901501955796e-01 4.098237480874260541e+00
2.232955042895924391e-01 3.995643785517913216e+00
2.246366184289892987e-01 4.037752467557510272e+00
2.259777325683861582e-01 4.143171744615116836e+00
2.273188467077830177e-01 3.989609527682901557e+00
2.286599608471798217e-01 3.477050422281649844e+00
2.300010749865766813e-01 3.740265209385455591e+00
2.313421891259735408e-01 4.375668050489991856e+00
2.326833032653704003e-01 3.961992562216408942e+00
2.340244174047672598e-01 4.199458504213751553e+00
2.353655315441641194e-01 4.690032032054418210e+00
2.367066456835609234e-01 4.480422664966013713e+00
2.380477598229577829e-01 4.041466019408076704e+00
2.393888739623546424e-01 4.579311431806885935e+00
2.407299881017515020e-01 4.281095991072078277e+00
2.420711022411483615e-01 3.488996266004832592e+00
2.434122163805451933e-01 4.277980239124005379e+00
2.447533305199420528e-01 4.594392015665363260e+00
2.460944446593389123e-01 4.666969633153811969e+00
2.474355587987357719e-01 5.139597302252482791e+00
2.487766729381326314e-01 5.069294560527268345e+00
2.501177870775294632e-01 5.271285960540467386e+00
2.514589012169263227e-01 5.540586393914082919e+00
2.528000153563231822e-01 5.495957811714205832e+00
2.541411294957200417e-01 5.420608010339606153e+00
2.554822436351169013e-01 5.997871691645414671e+00
2.568233577745137608e-01 6.128318788172578024e+00
2.581644719139106203e-01 6.681840271576902524e+00
2.595055860533074243e-01 6.108350206709019403e+00
2.608467001927042839e-01 5.823884964801663955e+00
2.621878143321011434e-01 6.439612523403340560e+00
2.635289284714980029e-01 6.952749920953905871e+00
2.648700426108948625e-01 7.148799957217107703e+00
2.662111567502916665e-01 6.729052884468842421e+00
2.675522708896885260e-01 6.637751010314275391e+00
2.688933850290853855e-01 6.871525470331732777e+00
2.702344991684822451e-01 7.760249116253660873e+00
2.715756133078791046e-01 7.705028676632551310e+00
2.729167274472759641e-01 7.419079726629007610e+00
2.742578415866727681e-01 7.278398841119084750e+00
2.755989557260696277e-01 8.081146160419692137e+00
2.769400698654664872e-01 7.843656952259891568e+00
2.782811840048633467e-01 7.367509444136530306e+00
2.796222981442602062e-01 7.287669808863739718e+00
2.809634122836570103e-01 7.486200712756499343e+00
2.823045264230538698e-01 7.227543543667607651e+00
2.836456405624507293e-01 7.138489847345326211e+00
2.849867547018475888e-01 7.176518906264192310e+00
2.863278688412444484e-01 7.219033337999874789e+00
2.876689829806413079e-01 6.760717161873358805e+00
2.890100971200381674e-01 6.824171849060590489e+00
2.903512112594350270e-01 7.195277308052467902e+00
2.916923253988318865e-01 7.388163918956294651e+00
2.930334395382287460e-01 7.187087158708692414e+00
2.943745536776256055e-01 6.931186139775903143e+00
2.957156678170224096e-01 6.692620186002841365e+00
2.970567819564192691e-01 6.752782083232176547e+00
2.983978960958161286e-01 6.853396072368340697e+00
2.997390102352129881e-01 7.011179678081830957e+00
3.010801243746098477e-01 6.847034543623379932e+00
3.024212385140067072e-01 6.325034790794575201e+00
3.037623526534035112e-01 6.112972877729944798e+00
3.051034667928003707e-01 6.332942823894128992e+00
3.064445809321972303e-01 5.835163592393826093e+00
3.077856950715940898e-01 5.771249811635854599e+00
3.091268092109909493e-01 5.440655329374905591e+00
3.104679233503877533e-01 5.835661546860478666e+00
3.118090374897846129e-01 5.420900460925892617e+00
3.131501516291814724e-01 5.321329484601193371e+00
3.144912657685783319e-01 5.046664920494677631e+00
3.158323799079751915e-01 5.024680837423929347e+00
3.171734940473720510e-01 5.080741283598442237e+00
3.185146081867689105e-01 4.986904264300761724e+00
3.198557223261657700e-01 4.621041131405362989e+00
3.211968364655626296e-01 4.400843780048674603e+00
3.225379506049594891e-01 4.120799420494506649e+00
3.238790647443563486e-01 4.233688193779443054e+00
3.252201788837532082e-01 4.037669454643960876e+00
3.265612930231500122e-01 4.297337388332536534e+00
3.279024071625468717e-01 3.831441227813414230e+00
3.292435213019437312e-01 3.600211599828199383e+00
3.305846354413405908e-01 3.432428132057424364e+00
3.319257495807374503e-01 3.596075334738301876e+00
3.332668637201342543e-01 3.311150194151665005e+00
3.346079778595311138e-01 3.359806702424180003e+00
3.359490919989279734e-01 2.917875052731488950e+00
3.372902061383248329e-01 2.953101420520582110e+00
3.386313202777216924e-01 2.949457180567662817e+00
3.399724344171185519e-01 2.975770952539889436e+00
3.413135485565153560e-01 3.282564865580994251e+00
3.426546626959122155e-01 3.190292311994710417e+00
3.439957768353090750e-01 2.671101010827015898e+00
3.453368909747059345e-01 2.394803798043909637e+00
3.466780051141027941e-01 2.068597451194548853e+00
3.480191192534995981e-01 2.127474111429904724e+00
3.493602333928964576e-01 2.653895549299107870e+00
3.507013475322933171e-01 2.454352990907494814e+00
3.520424616716901767e-01 2.272916839310425985e+00
3.533835758110870362e-01 1.852808996472575132e+00
3.547246899504838957e-01 1.862968341008283346e+00
3.560658040898807553e-01 1.730686866073241958e+00
3.574069182292776148e-01 1.641385651632290887e+00
3.587480323686744743e-01 1.428678179613456223e+00
3.600891465080713338e-01 1.602830168363752250e+00
3.614302606474681934e-01 1.397812210273357891e+00
3.627713747868649974e-01 1.379866806006020852e+00
3.641124889262618569e-01 1.252400454010938802e+00
3.654536030656587164e-01 1.289874710083019238e+00
3.667947172050555760e-01 1.424995981386160793e+00
3.681358313444524355e-01 1.266198871775863211e+00
3.694769454838492950e-01 9.540556296135704883e-01
3.708180596232460990e-01 1.098840851818778219e+00
3.721591737626429586e-01 1.295265093088183050e+00
3.735002879020398181e-01 1.466430266308861974e+00
3.748414020414366776e-01 1.077663187324418459e+00
3.761825161808335372e-01 1.115234722721979210e+00
3.775236303202303967e-01 1.035858753387117304e+00
3.788647444596272007e-01 1.400392827678636820e+00
3.802058585990240602e-01 1.243282809317598492e+00
3.815469727384209198e-01 1.189926383997402581e+00
3.828880868778177793e-01 1.295253369005600064e+00
3.842292010172146388e-01 1.163793763305100981e+00
3.855703151566114428e-01 1.398112023689151329e+00
3.869114292960083024e-01 1.257793313359428566e+00
3.882525434354051619e-01 1.542883238340643004e+00
3.895936575748020214e-01 1.361630253330346818e+00
3.909347717141988809e-01 9.396266813854552424e-01
3.922758858535957405e-01 8.484662414218675508e-01
3.936169999929926000e-01 8.432271715596186823e-01
3.949581141323894595e-01 8.440738232592366330e-01
3.962992282717863191e-01 1.362430035008053153e+00
3.976403424111831786e-01 1.559120161905759971e+00
3.989814565505800381e-01 1.368770348081753241e+00
4.003225706899768976e-01 1.528830259599239128e+00
4.016636848293737572e-01 1.052128851458192571e+00
4.030047989687706167e-01 1.041905199230654944e+00
4.043459131081674207e-01 1.345426075081050499e+00
4.056870272475643358e-01 1.263662630007857501e+00
4.070281413869611398e-01 1.182783754566862910e+00
4.083692555263580548e-01 1.228692802761976566e+00
4.097103696657548588e-01 1.369458818973612324e+00
4.110514838051517739e-01 1.305969512082086226e+00
4.123925979445485779e-01 1.006200100429630595e+00
4.137337120839453819e-01 6.869670571925610147e-01
4.150748262233422969e-01 1.003026067980641756e+00
4.164159403627391010e-01 1.029083174886018526e+00
4.177570545021360160e-01 1.094891519510042599e+00
4.190981686415328200e-01 1.332993596827186877e+00
4.204392827809296240e-01 1.272099370285964426e+00
4.217803969203265391e-01 1.235904863523209940e+00
4.231215110597233431e-01 1.390096809294476543e+00
4.244626251991202581e-01 1.190290167568292645e+00
4.258037393385170621e-01 1.032337601453271247e+00
4.271448534779138662e-01 1.326636370850209801e+00
4.284859676173107812e-01 1.096125376550830310e+00
4.298270817567075852e-01 1.304156574054246676e+00
4.311681958961045003e-01 1.297681042511577232e+00
4.325093100355013043e-01 1.161817282211288216e+00
4.338504241748981638e-01 1.696191373279596348e+00
4.351915383142950233e-01 1.324218078118079234e+00
4.365326524536918829e-01 1.458024945524201144e+00
4.378737665930887424e-01 1.201978912836935365e+00
4.392148807324856019e-01 1.107142165293140579e+00
4.405559948718824614e-01 1.151710364640464945e+00
4.418971090112793210e-01 9.970546792747612130e-01
4.432382231506761250e-01 1.066781424358708819e+00
4.445793372900730400e-01 1.194241635739935248e+00
4.459204514294698440e-01 9.559922620400485016e-01
4.472615655688667591e-01 9.957007243078024317e-01
4.486026797082635631e-01 1.428593851955760385e+00
4.499437938476603671e-01 1.485390684209747292e+00
4.512849079870572822e-01 1.251948999673409446e+00
4.526260221264540862e-01 1.395208634642060019e+00
4.539671362658510012e-01 1.308638927532975060e+00
4.553082504052478052e-01 1.460577525725071268e+00
4.566493645446446092e-01 1.206915731424878402e+00
4.579904786840415243e-01 8.751405041547073438e-01
4.593315928234383283e-01 1.119360454033405006e+00
4.606727069628352433e-01 1.004555413381403639e+00
4.620138211022320474e-01 9.406206312832168237e-01
4.633549352416289624e-01 1.153024288262884056e+00
4.646960493810257664e-01 9.579492788419159410e-01
4.660371635204225704e-01 9.125323614941933670e-01
4.673782776598194855e-01 1.131311102019886050e+00
4.687193917992162895e-01 1.040678073299879713e+00
4.700605059386132045e-01 1.033996290709779942e+00
4.714016200780100085e-01 8.886806451171835874e-01
4.727427342174068681e-01 8.812848203156917748e-01
4.740838483568037276e-01 1.201600408828483069e+00
4.754249624962005871e-01 1.167731858567101710e+00
4.767660766355974467e-01 1.324472081577546589e+00
4.781071907749943062e-01 1.092739841232230447e+00
4.794483049143911102e-01 1.102010257306865526e+00
4.807894190537880252e-01 6.708988641587012580e-01
4.821305331931848293e-01 1.033190589354298083e+00
4.834716473325817443e-01 1.396184568754819111e+00
4.848127614719785483e-01 1.150297732039206267e+00
4.861538756113753523e-01 8.482564226097437654e-01
4.874949897507722674e-01 8.641881000180120509e-01
4.888361038901690714e-01 6.613272881769063360e-01
4.901772180295659864e-01 6.453951857189892394e-01
4.915183321689627904e-01 9.024536327553889237e-01
4.928594463083597055e-01 6.893677346058098010e-01
4.942005604477565095e-01 5.782665023527968629e-01
4.955416745871533135e-01 4.666372709347115233e-01
4.968827887265502286e-01 6.459099760108273358e-01
4.982239028659470326e-01 7.436450995620234039e-01
4.995650170053439476e-01 8.718048067939747625e-01
5.009061311447408071e-01 6.590765765654253983e-01
5.022472452841375556e-01 4.679587400442599687e-01
5.035883594235345262e-01 5.145024708558523230e-01
5.049294735629312747e-01 6.029784295283633355e-01
5.062705877023282452e-01 8.542554941734294971e-01
5.076117018417249938e-01 5.398924482610709674e-01
5.089528159811218533e-01 7.649429298393641830e-01
5.102939301205187128e-01 6.503103481344325587e-01
5.116350442599155723e-01 5.797229678110653595e-01
5.129761583993124319e-01 2.883199193898278168e-01
5.143172725387092914e-01 2.999438799631519714e-01
5.156583866781061509e-01 7.055693652125967219e-01
5.169995008175030105e-01 8.357465734250268952e-01
5.183406149568997590e-01 7.919525475393172087e-01
5.196817290962967295e-01 8.223964630613735949e-01
5.210228432356934780e-01 1.244043722424308385e-01
5.223639573750904486e-01 2.725388532882888626e-01
5.237050715144871971e-01 5.249728195845833056e-01
5.250461856538840566e-01 4.971486456588323222e-01
5.263872997932809161e-01 2.682587986825097914e-01
5.277284139326777757e-01 5.279447332867803766e-01
5.290695280720746352e-01 4.081987805360114407e-01
5.304106422114714947e-01 6.708161016212841332e-01
5.317517563508683542e-01 7.104878105050573822e-01
5.330928704902652138e-01 7.273528209893385110e-01
5.344339846296620733e-01 7.063764429122088018e-01
5.357750987690589328e-01 5.156127916430151004e-01
5.371162129084557924e-01 9.455932753449971528e-01
5.384573270478525409e-01 7.459080825544361915e-01
5.397984411872495114e-01 7.786772466981304319e-01
5.411395553266462599e-01 9.541966434793494045e-01
5.424806694660432305e-01 7.252394054321982253e-01
5.438217836054399790e-01 5.887384608304913058e-01
5.451628977448369495e-01 3.919400872013412140e-01
5.465040118842336980e-01 1.083559997028942234e-01
5.478451260236305576e-01 1.456745645385666421e-01
5.491862401630274171e-01 1.731791254711012584e-01
5.505273543024242766e-01 1.878965329309423282e-01
5.518684684418211361e-01 1.280762324137469932e-01
5.532095825812179957e-01 3.871342090137375180e-01
5.545506967206147442e-01 1.102642860816587245e-01
