# q (1/Angstrom), Intensity (arb)
2.078726924066784734e-02 2.822509613492965741e+02
2.212838338006469993e-02 4.170352027949688249e+02
2.346949751946154905e-02 5.650269239940339503e+02
2.481061165885840164e-02 8.222837096350098136e+02
2.615172579825525423e-02 9.572582821444399315e+02
2.749283993765210335e-02 1.012113117899301301e+03
2.883395407704895941e-02 1.054182326128093109e+03
3.017506821644580506e-02 1.084300842531467651e+03
3.151618235584265765e-02 1.095198449728779906e+03
3.285729649523951718e-02 1.095453682705408482e+03
3.419841063463636283e-02 1.087000244548592491e+03
3.553952477403321542e-02 1.080512005545080910e+03
3.688063891343006800e-02 1.076358565568185440e+03
3.822175305282692059e-02 1.067014098970417763e+03
3.956286719222376624e-02 1.067789615044918492e+03
4.090398133162062577e-02 1.055948663616122076e+03
4.224509547101747142e-02 1.046734856261953610e+03
4.358620961041432401e-02 1.041188094700153442e+03
4.492732374981117660e-02 1.032090813775227389e+03
4.626843788920802919e-02 1.030253356852370189e+03
4.760955202860488178e-02 1.031955471026979239e+03
4.895066616800172743e-02 1.023468422799629138e+03
5.029178030739858696e-02 1.014496455452366604e+03
5.163289444679544649e-02 1.009398425966912782e+03
5.297400858619229214e-02 1.004539911690788585e+03
5.431512272558913779e-02 9.974650565964000180e+02
5.565623686498599731e-02 9.876182311511912530e+02
5.699735100438284990e-02 9.759538165633084645e+02
5.833846514377969555e-02 9.661905076009912818e+02
5.967957928317654814e-02 9.564176770474263094e+02
6.102069342257340767e-02 9.432945492614178420e+02
6.236180756197025332e-02 9.315077721808281694e+02
6.370292170136709897e-02 9.220955822178243579e+02
6.504403584076395850e-02 9.145327822474107506e+02
6.638514998016080415e-02 9.029733038615843270e+02
6.772626411955766368e-02 8.902556701108654806e+02
6.906737825895450933e-02 8.749817529379819234e+02
7.040849239835136886e-02 8.598067129452286963e+02
7.174960653774821451e-02 8.433803941137450693e+02
7.309072067714506016e-02 8.276607631437407235e+02
7.443183481654190581e-02 8.136897511051149650e+02
7.577294895593877921e-02 7.992102747312634392e+02
7.711406309533562486e-02 7.847596448054659959e+02
7.845517723473247051e-02 7.686274549689052265e+02
7.979629137412933004e-02 7.554830005675164557e+02
8.113740551352617569e-02 7.380838243506110530e+02
8.247851965292302134e-02 7.221969050137803379e+02
8.381963379231988087e-02 7.104276130494379231e+02
8.516074793171674040e-02 6.948950118736022432e+02
8.650186207111358605e-02 6.778756930983388429e+02
8.784297621051043170e-02 6.627705799138232123e+02
8.918409034990729123e-02 6.485961470474967427e+02
9.052520448930413688e-02 6.347717945008774905e+02
9.186631862870098253e-02 6.183764503409971667e+02
9.320743276809784206e-02 6.041372748997029021e+02
9.454854690749470159e-02 5.887310794865874186e+02
9.588966104689154724e-02 5.742657996546058712e+02
9.723077518628839289e-02 5.587263419336100014e+02
9.857188932568525241e-02 5.438226277877728307e+02
9.991300346508209806e-02 5.309965492352694127e+02
1.012541176044789437e-01 5.191399651364631609e+02
1.025952317438758032e-01 5.049543228762902345e+02
1.039363458832726350e-01 4.912990139099210296e+02
1.052774600226694945e-01 4.766852078133817940e+02
1.066185741620663541e-01 4.627238892684254097e+02
1.079596883014631858e-01 4.489493618711797467e+02
1.093008024408600454e-01 4.368518332029554472e+02
1.106419165802569049e-01 4.257325592636960891e+02
1.119830307196537506e-01 4.115064707470461371e+02
1.133241448590506101e-01 3.981333910301941614e+02
1.146652589984474419e-01 3.873005543854834514e+02
1.160063731378443014e-01 3.733229733947774776e+02
1.173474872772411609e-01 3.604521599850457960e+02
1.186886014166380066e-01 3.495298012925351259e+02
1.200297155560348661e-01 3.385329900665046807e+02
1.213708296954317256e-01 3.259404434413154945e+02
1.227119438348285574e-01 3.159110423997876751e+02
1.240530579742254169e-01 3.060553932055532300e+02
1.253941721136222764e-01 2.942064683390793789e+02
1.267352862530191082e-01 2.840840795434010602e+02
1.280764003924159677e-01 2.745381006575054244e+02
1.294175145318128273e-01 2.642461120952502256e+02
1.307586286712096590e-01 2.532302524965888324e+02
1.320997428106065186e-01 2.444672539802461984e+02
1.334408569500033781e-01 2.349136453583573712e+02
1.347819710894002376e-01 2.263915481137025552e+02
1.361230852287970972e-01 2.169582500151388160e+02
1.374641993681939289e-01 2.084080589785419306e+02
1.388053135075907885e-01 1.991011245433744818e+02
1.401464276469876480e-01 1.906385457815180473e+02
1.414875417863844798e-01 1.830320016249588662e+02
1.428286559257813393e-01 1.748861154206369690e+02
1.441697700651781988e-01 1.672651991533583100e+02
1.455108842045750306e-01 1.593471857344661373e+02
1.468519983439718901e-01 1.513464175511577423e+02
1.481931124833687219e-01 1.457456959276985913e+02
1.495342266227655814e-01 1.398726425992804252e+02
1.508753407621624687e-01 1.333074949369292597e+02
1.522164549015593005e-01 1.270217014067642083e+02
1.535575690409561600e-01 1.208190398367785434e+02
1.548986831803530195e-01 1.143012352660420845e+02
1.562397973197498513e-01 1.077250979416615877e+02
1.575809114591467108e-01 1.021120359030825711e+02
1.589220255985435704e-01 9.718344955694077214e+01
1.602631397379404021e-01 9.179593166655436676e+01
1.616042538773372617e-01 8.692932138679495324e+01
1.629453680167341212e-01 8.226307251648350416e+01
1.642864821561309530e-01 7.766478765468669110e+01
1.656275962955278125e-01 7.341642371744391937e+01
1.669687104349246720e-01 6.852362928121880259e+01
1.683098245743215315e-01 6.443659357996082804e+01
1.696509387137183911e-01 6.138034606260403336e+01
1.709920528531152228e-01 5.889675800560935670e+01
1.723331669925120824e-01 5.416511248256533406e+01
1.736742811319089419e-01 5.113835555322332027e+01
1.750153952713057737e-01 4.843160571547136328e+01
1.763565094107026332e-01 4.425558505319381197e+01
1.776976235500994927e-01 4.102443097959059060e+01
1.790387376894963245e-01 3.859173202400877756e+01
1.803798518288931840e-01 3.560932592206741276e+01
1.817209659682900158e-01 3.311270984088605474e+01
1.830620801076868753e-01 3.074961939888106599e+01
1.844031942470837349e-01 2.854068334992763312e+01
1.857443083864805944e-01 2.646953947517295092e+01
1.870854225258774539e-01 2.466257875745154138e+01
1.884265366652743134e-01 2.230063227429207018e+01
1.897676508046711452e-01 2.093520488307959226e+01
1.911087649440680047e-01 1.926352579551524968e+01
1.924498790834648643e-01 1.767563385793597774e+01
1.937909932228616960e-01 1.638261061193084345e+01
1.951321073622585556e-01 1.468350970217208840e+01
1.964732215016554151e-01 1.314707161387967460e+01
1.978143356410522469e-01 1.239316967589196850e+01
1.991554497804491064e-01 1.155369758625319321e+01
2.004965639198459382e-01 1.017796190328307659e+01
2.018376780592427977e-01 9.346428119453847216e+00
2.031787921986396572e-01 9.015221649879507027e+00
2.045199063380365168e-01 8.041468144948922259e+00
2.058610204774333763e-01 7.313306437337871557e+00
2.072021346168302081e-01 6.446481465750480311e+00
2.085432487562270676e-01 6.252664100125045366e+00
2.098843628956239271e-01 5.918155854604336241e+00
2.112254770350207866e-01 5.707398903415864311e+00
2.125665911744176462e-01 5.530869904908186641e+00
2.139077053138144502e-01 4.841705440620941658e+00
2.152488194532113097e-01 4.171510186010792154e+00
2.165899335926081692e-01 4.244610002665766046e+00
2.179310477320050288e-01 3.635588972111136741e+00
2.192721618714018883e-01 3.561001521650496215e+00
2.206132760107987478e-01 3.023042672461201619e+00
2.219543901501955796e-01 3.167146686156982582e+00
2.232955042895924391e-01 3.694482693582273214e+00
2.246366184289892987e-01 3.667502156466696306e+00
2.259777325683861582e-01 3.585802818205735321e+00
2.273188467077830177e-01 3.249916708059529924e+00
2.286599608471798217e-01 3.783851499162437904e+00
2.300010749865766813e-01 3.910866843575632856e+00
2.313421891259735408e-01 3.508057980899152994e+00
2.326833032653704003e-01 3.561560789196860810e+00
2.340244174047672598e-01 4.120905647637073344e+00
2.353655315441641194e-01 4.013005909293525519e+00
2.367066456835609234e-01 3.960054155461037340e+00
2.380477598229577829e-01 4.519143991660413917e+00
2.393888739623546424e-01 4.341257685059431992e+00
2.407299881017515020e-01 4.980292367365748873e+00
2.420711022411483615e-01 5.504850823351276290e+00
2.434122163805451933e-01 4.987181612512259221e+00
2.447533305199420528e-01 4.905931488809969210e+00
2.460944446593389123e-01 5.015619778899434777e+00
2.474355587987357719e-01 5.768726810879883260e+00
2.487766729381326314e-01 6.000382913880997648e+00
2.501177870775294632e-01 5.424347086913130056e+00
2.514589012169263227e-01 5.847316872015937861e+00
2.528000153563231822e-01 6.256018148110001675e+00
2.541411294957200417e-01 7.076739581590501871e+00
2.554822436351169013e-01 6.903118125518332704e+00
2.568233577745137608e-01 6.433238378852593087e+00
2.581644719139106203e-01 6.108985973677775405e+00
2.595055860533074243e-01 5.941400781528287212e+00
2.608467001927042839e-01 6.504189896625092615e+00
2.621878143321011434e-01 6.698639548562354662e+00
2.635289284714980029e-01 7.009861293505878166e+00
2.648700426108948625e-01 7.602333323082731908e+00
2.662111567502916665e-01 7.251226250537300189e+00
2.675522708896885260e-01 7.047884312249436789e+00
2.688933850290853855e-01 7.153562511008871638e+00
2.702344991684822451e-01 7.837078212443429948e+00
2.715756133078791046e-01 8.400125335116655378e+00
2.729167274472759641e-01 8.072737326616135078e+00
2.742578415866727681e-01 7.643659213252391282e+00
2.755989557260696277e-01 7.474349436476941833e+00
2.769400698654664872e-01 7.365293458134303251e+00
2.782811840048633467e-01 7.538537799545821372e+00
2.796222981442602062e-01 7.351597101852490823e+00
2.809634122836570103e-01 7.787735485022764692e+00
2.823045264230538698e-01 7.453545766198203637e+00
2.836456405624507293e-01 7.377846737652774323e+00
2.849867547018475888e-01 7.292966904515580495e+00
2.863278688412444484e-01 7.055456300802873670e+00
2.876689829806413079e-01 7.039649050601369140e+00
2.890100971200381674e-01 7.025955829568786726e+00
2.903512112594350270e-01 6.761441379049927036e+00
2.916923253988318865e-01 6.929619642660512113e+00
2.930334395382287460e-01 6.914273959149028315e+00
2.943745536776256055e-01 7.146339115401659114e+00
2.957156678170224096e-01 6.842943746992887100e+00
2.970567819564192691e-01 6.735072379520730124e+00
2.983978960958161286e-01 6.551976252389493993e+00
2.997390102352129881e-01 6.391178358619939104e+00
3.010801243746098477e-01 6.363725304374682423e+00
3.024212385140067072e-01 5.851867260712111829e+00
3.037623526534035112e-01 6.403794681373511821e+00
3.051034667928003707e-01 6.047216598046162517e+00
3.064445809321972303e-01 5.982161153915342311e+00
3.077856950715940898e-01 5.994654216875844099e+00
3.091268092109909493e-01 5.368921590412597311e+00
3.104679233503877533e-01 5.645843903984101075e+00
3.118090374897846129e-01 5.313438393718527664e+00
3.131501516291814724e-01 4.913871168128082445e+00
3.144912657685783319e-01 4.646172690779451386e+00
3.158323799079751915e-01 4.538367297203379280e+00
3.171734940473720510e-01 4.720970579264260891e+00
3.185146081867689105e-01 4.487484658288735773e+00
3.198557223261657700e-01 4.713214189326620840e+00
3.211968364655626296e-01 4.336746052907159310e+00
3.225379506049594891e-01 4.235431046938359145e+00
3.238790647443563486e-01 4.332194470679567644e+00
3.252201788837532082e-01 4.108323425657545158e+00
3.265612930231500122e-01 3.780317750189240655e+00
3.279024071625468717e-01 4.021158219942762457e+00
3.292435213019437312e-01 3.700723955854911651e+00
3.305846354413405908e-01 3.383167983080412000e+00
3.319257495807374503e-01 3.008544710039586789e+00
3.332668637201342543e-01 2.536569170693994124e+00
3.346079778595311138e-01 2.532338151681557292e+00
3.359490919989279734e-01 3.060664527163808657e+00
3.372902061383248329e-01 2.826991198432267538e+00
3.386313202777216924e-01 3.020804577539337288e+00
3.399724344171185519e-01 2.800457586890559014e+00
3.413135485565153560e-01 2.350561746063860369e+00
3.426546626959122155e-01 2.187054199185965331e+00
3.439957768353090750e-01 2.671525988668733476e+00
3.453368909747059345e-01 2.562097058396389571e+00
3.466780051141027941e-01 2.366584464695435486e+00
3.480191192534995981e-01 1.726922874793942242e+00
3.493602333928964576e-01 1.466006654533288156e+00
3.507013475322933171e-01 1.710173802622250605e+00
3.520424616716901767e-01 2.018294152700875088e+00
3.533835758110870362e-01 2.044885360994626922e+00
3.547246899504838957e-01 1.464483979442093187e+00
3.560658040898807553e-01 1.499998125275027405e+00
3.574069182292776148e-01 1.856354941225021093e+00
3.587480323686744743e-01 1.863704309747959087e+00
3.600891465080713338e-01 1.761750559882955258e+00
3.614302606474681934e-01 1.545452146574078256e+00
3.627713747868649974e-01 1.500390079461638493e+00
3.641124889262618569e-01 1.508696665024260142e+00
3.654536030656587164e-01 1.261654721370703669e+00
3.667947172050555760e-01 7.711671298389290996e-01
3.681358313444524355e-01 1.181483953521919261e+00
3.694769454838492950e-01 1.333310248782922258e+00
3.708180596232460990e-01 1.573780263378452560e+00
3.721591737626429586e-01 1.247443673749316417e+00
3.735002879020398181e-01 1.520781544549436148e+00
3.748414020414366776e-01 9.886360326533605303e-01
3.761825161808335372e-01 7.442074066224364515e-01
3.775236303202303967e-01 7.859994353768371411e-01
3.788647444596272007e-01 1.401183996466869530e+00
3.802058585990240602e-01 1.383113040816454031e+00
3.815469727384209198e-01 1.300332619477302387e+00
3.828880868778177793e-01 1.465283327189339957e+00
3.842292010172146388e-01 1.079493907020378174e+00
3.855703151566114428e-01 1.353388464693630056e+00
3.869114292960083024e-01 1.225219837628273467e+00
3.882525434354051619e-01 7.088324625406983159e-01
3.895936575748020214e-01 6.426726747050679478e-01
3.909347717141988809e-01 8.864722361285544139e-01
3.922758858535957405e-01 1.056572637776497459e+00
3.936169999929926000e-01 1.270967958423028676e+00
3.949581141323894595e-01 9.057417886623824188e-01
3.962992282717863191e-01 1.246865870492541717e+00
3.976403424111831786e-01 1.532144619289887544e+00
3.989814565505800381e-01 1.336733289766925736e+00
4.003225706899768976e-01 1.138393040524043442e+00
4.016636848293737572e-01 1.160562418353670466e+00
4.030047989687706167e-01 1.090954895924802770e+00
4.043459131081674207e-01 1.075114604365026594e+00
4.056870272475643358e-01 1.148356655584599650e+00
4.070281413869611398e-01 1.160067543226155351e+00
4.083692555263580548e-01 1.010364190667715434e+00
4.097103696657548588e-01 1.004349934419892065e+00
4.110514838051517739e-01 1.218804647015758746e+00
4.123925979445485779e-01 9.804077847582064464e-01
4.137337120839453819e-01 1.028413228155393710e+00
4.150748262233422969e-01 9.846784350273907194e-01
4.164159403627391010e-01 9.313313639606306538e-01
4.177570545021360160e-01 1.123029110940180431e+00
4.190981686415328200e-01 1.242971191610301673e+00
4.204392827809296240e-01 1.051116756042297595e+00
4.217803969203265391e-01 1.265796204568694350e+00
4.231215110597233431e-01 1.014772412340398944e+00
4.244626251991202581e-01 6.963443261439650200e-01
4.258037393385170621e-01 1.127904892932583891e+00
4.271448534779138662e-01 1.337218885727565976e+00
4.284859676173107812e-01 1.514983085353435399e+00
4.298270817567075852e-01 1.416385220318943539e+00
4.311681958961045003e-01 1.405945920137767757e+00
4.325093100355013043e-01 1.493287576707054143e+00
4.338504241748981638e-01 1.028586771971525593e+00
4.351915383142950233e-01 1.207622635775187803e+00
4.365326524536918829e-01 1.689124373165284965e+00
4.378737665930887424e-01 1.614741678928041324e+00
4.392148807324856019e-01 1.112473944017082772e+00
4.405559948718824614e-01 1.153971115020873128e+00
4.418971090112793210e-01 1.385247265333944711e+00
4.432382231506761250e-01 1.331603473978972829e+00
4.445793372900730400e-01 1.065516226660840005e+00
4.459204514294698440e-01 1.115150114048780949e+00
4.472615655688667591e-01 1.406519904995306547e+00
4.486026797082635631e-01 1.478024863939658928e+00
4.499437938476603671e-01 1.336948723636545822e+00
4.512849079870572822e-01 1.168970423650343093e+00
4.526260221264540862e-01 1.025982425304313495e+00
4.539671362658510012e-01 1.167139688762574679e+00
4.553082504052478052e-01 1.479537535066661746e+00
4.566493645446446092e-01 8.797783719673688552e-01
4.579904786840415243e-01 5.256950135579359085e-01
4.593315928234383283e-01 8.210402189693795094e-01
4.606727069628352433e-01 8.418336291552535045e-01
4.620138211022320474e-01 9.120938543172130153e-01
4.633549352416289624e-01 7.104114451302052657e-01
4.646960493810257664e-01 7.695951023731737450e-01
4.660371635204225704e-01 1.135365842315991358e+00
4.673782776598194855e-01 1.328953398731698599e+00
4.687193917992162895e-01 1.243342488459987294e+00
4.700605059386132045e-01 1.233735965705399451e+00
4.714016200780100085e-01 7.847262836381219131e-01
4.727427342174068681e-01 7.012001618540892878e-01
4.740838483568037276e-01 7.123446301680687043e-01
4.754249624962005871e-01 6.990594214851171273e-01
4.767660766355974467e-01 6.314167445911920140e-01
4.781071907749943062e-01 6.450295240769676752e-01
4.794483049143911102e-01 8.795940019126859966e-01
4.807894190537880252e-01 8.402909951805739297e-01
4.821305331931848293e-01 8.098051126608893924e-01
4.834716473325817443e-01 7.085116652646448188e-01
4.848127614719785483e-01 9.995462172617592955e-01
4.861538756113753523e-01 1.142147209898766391e+00
4.874949897507722674e-01 1.012858303961174045e+00
4.888361038901690714e-01 1.143315296897796429e+00
4.901772180295659864e-01 9.150037124683976231e-01
4.915183321689627904e-01 7.399093900944890834e-01
4.928594463083597055e-01 9.023793475708359324e-01
4.942005604477565095e-01 8.588449797193860036e-01
4.955416745871533135e-01 8.710442577216710447e-01
4.968827887265502286e-01 6.973617936306979459e-01
4.982239028659470326e-01 1.772807378093546049e-01
4.995650170053439476e-01 4.894946354176852310e-01
5.009061311447408071e-01 7.318774126390081847e-01
5.022472452841375556e-01 2.201033619204721958e-01
5.035883594235345262e-01 5.332134388390272761e-01
5.049294735629312747e-01 5.770840086120401224e-01
5.062705877023282452e-01 6.384363301534037305e-01
5.076117018417249938e-01 5.164898464424325653e-01
5.089528159811218533e-01 5.149115487176345596e-01
5.102939301205187128e-01 4.147651350727628028e-01
5.116350442599155723e-01 3.855229677148557244e-01
5.129761583993124319e-01 3.348938063749642424e-01
5.143172725387092914e-01 3.951988817975404800e-01
5.156583866781061509e-01 3.071733257915028048e-01
5.169995008175030105e-01 2.692403785034045427e-01
5.183406149568997590e-01 1.495671987950473181e-01
5.196817290962967295e-01 9.125758930202465535e-02
5.210228432356934780e-01 1.385247128933286831e-02
5.223639573750904486e-01 3.209597397342989211e-01
5.237050715144871971e-01 8.530581413583604444e-02
5.250461856538840566e-01 4.635781753745789047e-01
5.263872997932809161e-01 5.734210538301809379e-01
5.277284139326777757e-01 4.599728501573423500e-01
5.290695280720746352e-01 4.014854058916483837e-01
5.304106422114714947e-01 6.987648784909268329e-01
5.317517563508683542e-01 3.619352602170948785e-01
5.330928704902652138e-01 1.892483934893860464e-01
5.344339846296620733e-01 1.474135467271864286e-01
5.357750987690589328e-01 4.387338356894190383e-01
5.371162129084557924e-01 6.028704110731126775e-01
5.384573270478525409e-01 5.042714344232948065e-01
5.397984411872495114e-01 6.569037712884409075e-01
5.411395553266462599e-01 9.303227762973662607e-01
5.424806694660432305e-01 8.514037502637918919e-01
5.438217836054399790e-01 3.576017008456489066e-01
5.451628977448369495e-01 8.210958479813257327e-02
5.465040118842336980e-01 3.483727932209745859e-02
5.478451260236305576e-01 3.158422998747383303e-01
5.491862401630274171e-01 2.940590855782048152e-01
5.505273543024242766e-01 1.578676268263450311e-01
5.518684684418211361e-01 6.079872153708976157e-02
5.532095825812179957e-01 3.061127668003891245e-01
5.545506967206147442e-01 3.780620628871815825e-01
