# q (1/Angstrom), Intensity (arb)
2.078726924066784734e-02 2.922556126534186660e+02
2.212838338006469993e-02 4.392972411824337655e+02
2.346949751946154905e-02 6.005660784631899105e+02
2.481061165885840164e-02 8.638157827100689019e+02
2.615172579825525423e-02 1.005932636658679144e+03
2.749283993765210335e-02 1.059452068825629340e+03
2.883395407704895941e-02 1.107583689240451804e+03
3.017506821644580506e-02 1.138369800443506847e+03
3.151618235584265765e-02 1.143290432040316091e+03
3.285729649523951718e-02 1.139954829458228232e+03
3.419841063463636283e-02 1.136453496990126496e+03
3.553952477403321542e-02 1.134645290299629323e+03
3.688063891343006800e-02 1.126023858793604632e+03
3.822175305282692059e-02 1.118960953154505205e+03
3.956286719222376624e-02 1.111833625355934828e+03
4.090398133162062577e-02 1.105056215458526367e+03
4.224509547101747142e-02 1.091448781794657862e+03
4.358620961041432401e-02 1.083435999303924291e+03
4.492732374981117660e-02 1.076523043698359288e+03
4.626843788920802919e-02 1.074395867521435775e+03
4.760955202860488178e-02 1.075513619445225004e+03
4.895066616800172743e-02 1.067140288985069674e+03
5.029178030739858696e-02 1.058801546422053661e+03
5.163289444679544649e-02 1.053570419698419755e+03
5.297400858619229214e-02 1.049623725185134163e+03
5.431512272558913779e-02 1.038783426017048441e+03
5.565623686498599731e-02 1.027295188551893261e+03
5.699735100438284990e-02 1.013233979170510565e+03
5.833846514377969555e-02 1.004346197021259627e+03
5.967957928317654814e-02 9.956806224470337838e+02
6.102069342257340767e-02 9.837062333568916301e+02
6.236180756197025332e-02 9.711513941456976227e+02
6.370292170136709897e-02 9.599669224395628362e+02
6.504403584076395850e-02 9.481968225990876817e+02
6.638514998016080415e-02 9.389092049812766163e+02
6.772626411955766368e-02 9.262119952815627357e+02
6.906737825895450933e-02 9.123857483391597043e+02
7.040849239835136886e-02 8.944471482946611331e+02
7.174960653774821451e-02 8.771665137936921610e+02
7.309072067714506016e-02 8.614548915733034846e+02
7.443183481654190581e-02 8.474218631146117104e+02
7.577294895593877921e-02 8.339064428167182541e+02
7.711406309533562486e-02 8.166705561033560343e+02
7.845517723473247051e-02 7.996493840671090538e+02
7.979629137412933004e-02 7.828486427911986993e+02
8.113740551352617569e-02 7.660943038283650139e+02
8.247851965292302134e-02 7.502779940544137389e+02
8.381963379231988087e-02 7.367112891070268006e+02
8.516074793171674040e-02 7.207018019915893774e+02
8.650186207111358605e-02 7.050307281044080128e+02
8.784297621051043170e-02 6.893563275986376766e+02
8.918409034990729123e-02 6.745911427191903158e+02
9.052520448930413688e-02 6.585342974168038381e+02
9.186631862870098253e-02 6.415744296122445576e+02
9.320743276809784206e-02 6.258048087579373941e+02
9.454854690749470159e-02 6.090709845067137849e+02
9.588966104689154724e-02 5.972021180955113095e+02
9.723077518628839289e-02 5.838952391116796434e+02
9.857188932568525241e-02 5.668859419750219786e+02
9.991300346508209806e-02 5.512401912869589751e+02
1.012541176044789437e-01 5.363691374278218973e+02
1.025952317438758032e-01 5.232491694091440877e+02
1.039363458832726350e-01 5.070429385406359302e+02
1.052774600226694945e-01 4.925736810173521008e+02
1.066185741620663541e-01 4.794775476958671447e+02
1.079596883014631858e-01 4.671125431457786021e+02
1.093008024408600454e-01 4.532409647971434765e+02
1.106419165802569049e-01 4.378331438643367051e+02
1.119830307196537506e-01 4.251689943272124879e+02
1.133241448590506101e-01 4.129101870593684112e+02
1.146652589984474419e-01 3.991086319322174063e+02
1.160063731378443014e-01 3.858266951712902255e+02
1.173474872772411609e-01 3.741168588497047267e+02
1.186886014166380066e-01 3.619905425603724325e+02
1.200297155560348661e-01 3.509254746827888312e+02
1.213708296954317256e-01 3.383978421586637637e+02
1.227119438348285574e-01 3.274631338681318766e+02
1.240530579742254169e-01 3.160823637185397956e+02
1.253941721136222764e-01 3.037966196819744482e+02
1.267352862530191082e-01 2.932349089233282484e+02
1.280764003924159677e-01 2.834505264077579909e+02
1.294175145318128273e-01 2.724358146827479459e+02
1.307586286712096590e-01 2.614911703933516378e+02
1.320997428106065186e-01 2.521562716434988261e+02
1.334408569500033781e-01 2.410226625686350133e+02
1.347819710894002376e-01 2.317460005364528683e+02
1.361230852287970972e-01 2.228068471947031526e+02
1.374641993681939289e-01 2.135649109671617225e+02
1.388053135075907885e-01 2.056202154314948132e+02
1.401464276469876480e-01 1.957122819441574393e+02
1.414875417863844798e-01 1.879438897997538618e+02
1.428286559257813393e-01 1.795248659373427529e+02
1.441697700651781988e-01 1.724488671155126838e+02
1.455108842045750306e-01 1.642804078789735058e+02
1.468519983439718901e-01 1.573370202273981988e+02
1.481931124833687219e-01 1.505125342705243270e+02
1.495342266227655814e-01 1.427443333489211454e+02
1.508753407621624687e-01 1.359054205502530408e+02
1.522164549015593005e-01 1.291223811858984050e+02
1.535575690409561600e-01 1.233812678812226551e+02
1.548986831803530195e-01 1.173426434812481460e+02
1.562397973197498513e-01 1.106452233249786161e+02
1.575809114591467108e-01 1.041842279742824928e+02
1.589220255985435704e-01 9.908962676941132486e+01
1.602631397379404021e-01 9.401955122420494604e+01
1.616042538773372617e-01 8.855909870407249684e+01
1.629453680167341212e-01 8.388125646318124495e+01
1.642864821561309530e-01 7.855933047996862229e+01
1.656275962955278125e-01 7.457411608271642933e+01
1.669687104349246720e-01 7.059665137957638592e+01
1.683098245743215315e-01 6.726619674966536877e+01
1.696509387137183911e-01 6.355952979744080267e+01
1.709920528531152228e-01 5.956302974035193643e+01
1.723331669925120824e-01 5.576164639334557194e+01
1.736742811319089419e-01 5.197178519846171696e+01
1.750153952713057737e-01 4.896361540768870668e+01
1.763565094107026332e-01 4.491825836507331360e+01
1.776976235500994927e-01 4.185503513392119146e+01
1.790387376894963245e-01 3.959257787750183866e+01
1.803798518288931840e-01 3.631493419791829069e+01
1.817209659682900158e-01 3.433195452487456123e+01
1.830620801076868753e-01 3.224474469755539019e+01
1.844031942470837349e-01 2.954657696753847063e+01
1.857443083864805944e-01 2.759822495248417340e+01
1.870854225258774539e-01 2.522485005960827209e+01
1.884265366652743134e-01 2.350752033618267944e+01
1.897676508046711452e-01 2.186227826140610375e+01
1.911087649440680047e-01 2.021658002399344412e+01
1.924498790834648643e-01 1.859809153736351561e+01
1.937909932228616960e-01 1.729769926045351269e+01
1.951321073622585556e-01 1.523304081637286345e+01
1.964732215016554151e-01 1.402244464235614885e+01
1.978143356410522469e-01 1.359292944110322310e+01
1.991554497804491064e-01 1.208569074972258761e+01
2.004965639198459382e-01 1.106130190303566962e+01
2.018376780592427977e-01 1.044863301377431242e+01
2.031787921986396572e-01 1.001199274275990092e+01
2.045199063380365168e-01 9.190667465618162169e+00
2.058610204774333763e-01 8.015853413323824839e+00
2.072021346168302081e-01 7.333073408860030895e+00
2.085432487562270676e-01 7.444347342840345050e+00
2.098843628956239271e-01 6.872736729441186299e+00
2.112254770350207866e-01 6.153976139964981940e+00
2.125665911744176462e-01 5.785389602643434159e+00
2.139077053138144502e-01 4.937528715188648221e+00
2.152488194532113097e-01 5.282627631810385083e+00
2.165899335926081692e-01 5.271189251131033870e+00
2.179310477320050288e-01 4.636584453917834026e+00
2.192721618714018883e-01 4.789425275174167496e+00
2.206132760107987478e-01 4.568124160637637488e+00
2.219543901501955796e-01 4.152149533957114613e+00
2.232955042895924391e-01 4.540255498236064113e+00
2.246366184289892987e-01 4.558116187470560021e+00
2.259777325683861582e-01 4.374192866017551751e+00
2.273188467077830177e-01 4.721941937201677320e+00
2.286599608471798217e-01 4.757641394252516420e+00
2.300010749865766813e-01 4.311578046121553598e+00
2.313421891259735408e-01 3.990331000898237335e+00
2.326833032653704003e-01 4.386202016807587256e+00
2.340244174047672598e-01 4.798355678431306615e+00
2.353655315441641194e-01 4.871423666573122091e+00
2.367066456835609234e-01 5.425877439468067109e+00
2.380477598229577829e-01 5.235898486517143624e+00
2.393888739623546424e-01 5.374232848240311000e+00
2.407299881017515020e-01 5.332896696928372648e+00
2.420711022411483615e-01 5.893913324120603647e+00
2.434122163805451933e-01 5.942684282698806442e+00
2.447533305199420528e-01 5.868619091942534283e+00
2.460944446593389123e-01 6.158883569236266453e+00
2.474355587987357719e-01 6.855594611924018977e+00
2.487766729381326314e-01 7.334145481412576828e+00
2.501177870775294632e-01 7.147523479351661990e+00
2.514589012169263227e-01 6.704337505228252780e+00
2.528000153563231822e-01 6.818956594145873851e+00
2.541411294957200417e-01 7.781325048089712482e+00
2.554822436351169013e-01 7.756344549569547553e+00
2.568233577745137608e-01 7.482747671527945954e+00
2.581644719139106203e-01 7.345609886828498247e+00
2.595055860533074243e-01 7.516513377879746827e+00
2.608467001927042839e-01 8.169467897139824686e+00
2.621878143321011434e-01 8.311197716522613632e+00
2.635289284714980029e-01 8.079970840830839052e+00
2.648700426108948625e-01 8.080806499361315787e+00
2.662111567502916665e-01 8.327356321243655657e+00
2.675522708896885260e-01 8.239519607159920156e+00
2.688933850290853855e-01 8.126143339268139698e+00
2.702344991684822451e-01 8.461665779007688570e+00
2.715756133078791046e-01 8.670013435934990298e+00
2.729167274472759641e-01 8.908496222998877556e+00
2.742578415866727681e-01 8.943283098127650987e+00
2.755989557260696277e-01 8.422346809670486323e+00
2.769400698654664872e-01 8.499354586378629506e+00
2.782811840048633467e-01 8.597454144251912567e+00
2.796222981442602062e-01 8.351770884074085188e+00
2.809634122836570103e-01 8.497187064358200814e+00
2.823045264230538698e-01 8.089925223910441332e+00
2.836456405624507293e-01 8.147315119919767312e+00
2.849867547018475888e-01 7.753307967282793811e+00
2.863278688412444484e-01 7.580663597172630830e+00
2.876689829806413079e-01 7.948955980019420053e+00
2.890100971200381674e-01 8.034151747638702545e+00
2.903512112594350270e-01 7.647700316398768905e+00
2.916923253988318865e-01 7.476134789805442438e+00
2.930334395382287460e-01 7.676815292709562755e+00
2.943745536776256055e-01 7.640986121279524923e+00
2.957156678170224096e-01 7.389541585136726098e+00
2.970567819564192691e-01 6.855440340473563765e+00
2.983978960958161286e-01 7.218488193621297455e+00
2.997390102352129881e-01 7.114463424157150939e+00
3.010801243746098477e-01 6.971230884967539509e+00
3.024212385140067072e-01 6.881575117358607940e+00
3.037623526534035112e-01 6.823553188831184002e+00
3.051034667928003707e-01 6.498940252093589720e+00
3.064445809321972303e-01 6.304225927289010656e+00
3.077856950715940898e-01 6.185694893337995381e+00
3.091268092109909493e-01 5.847098025284083178e+00
3.104679233503877533e-01 5.997125934351188903e+00
3.118090374897846129e-01 5.813879571558530301e+00
3.131501516291814724e-01 5.696364282503353138e+00
3.144912657685783319e-01 5.403174127268371763e+00
3.158323799079751915e-01 5.111478831818956792e+00
3.171734940473720510e-01 4.755584957472422047e+00
3.185146081867689105e-01 4.951167800068986935e+00
3.198557223261657700e-01 5.201301448349440193e+00
3.211968364655626296e-01 4.455170854564457272e+00
3.225379506049594891e-01 4.201863621100258683e+00
3.238790647443563486e-01 4.329627349283654780e+00
3.252201788837532082e-01 4.397277432491179638e+00
3.265612930231500122e-01 4.146342514380492617e+00
3.279024071625468717e-01 4.352405595467132571e+00
3.292435213019437312e-01 4.155888183654269596e+00
3.305846354413405908e-01 3.766625632919456734e+00
3.319257495807374503e-01 3.596162749158040128e+00
3.332668637201342543e-01 3.382951696508669670e+00
3.346079778595311138e-01 2.965512058848815968e+00
3.359490919989279734e-01 3.289641895488330192e+00
3.372902061383248329e-01 2.987027257159510896e+00
3.386313202777216924e-01 3.543901827843200181e+00
3.399724344171185519e-01 3.008521397882418569e+00
3.413135485565153560e-01 2.204084021159047779e+00
3.426546626959122155e-01 2.316881217307141583e+00
3.439957768353090750e-01 2.575838254311733522e+00
3.453368909747059345e-01 2.702388743868596066e+00
3.466780051141027941e-01 2.523257247411990534e+00
3.480191192534995981e-01 2.117631662783466595e+00
3.493602333928964576e-01 2.119958967240648917e+00
3.507013475322933171e-01 2.116052852210714263e+00
3.520424616716901767e-01 2.226572542536132460e+00
3.533835758110870362e-01 2.066344928601836273e+00
3.547246899504838957e-01 1.697832646953713720e+00
3.560658040898807553e-01 1.664465994031928631e+00
3.574069182292776148e-01 1.759776008164251948e+00
3.587480323686744743e-01 1.722283711292647013e+00
3.600891465080713338e-01 1.797191330652410102e+00
3.614302606474681934e-01 1.921442711870199105e+00
3.627713747868649974e-01 2.192022861687831892e+00
3.641124889262618569e-01 2.129965891421306878e+00
3.654536030656587164e-01 1.530888386954671887e+00
3.667947172050555760e-01 1.365681691778121376e+00
3.681358313444524355e-01 1.717122245454319795e+00
3.694769454838492950e-01 1.715818586282154001e+00
3.708180596232460990e-01 1.951538953453052727e+00
3.721591737626429586e-01 1.635986762149684637e+00
3.735002879020398181e-01 1.612788694584651239e+00
3.748414020414366776e-01 1.246239302459528631e+00
3.761825161808335372e-01 1.182733003869756772e+00
3.775236303202303967e-01 1.376636108898651401e+00
3.788647444596272007e-01 1.960755828477516616e+00
3.802058585990240602e-01 1.726988400647712751e+00
3.815469727384209198e-01 1.740147230426273950e+00
3.828880868778177793e-01 1.990524323639753845e+00
3.842292010172146388e-01 1.657460468034358314e+00
3.855703151566114428e-01 1.350323811025219811e+00
3.869114292960083024e-01 1.353654423985673816e+00
3.882525434354051619e-01 1.109659707635813675e+00
3.895936575748020214e-01 7.225530083815669968e-01
3.909347717141988809e-01 7.077537089123211445e-01
3.922758858535957405e-01 1.462865122696399567e+00
3.936169999929926000e-01 1.405424383744843908e+00
3.949581141323894595e-01 8.445896369576644247e-01
3.962992282717863191e-01 1.422012341422657755e+00
3.976403424111831786e-01 1.707273755518322389e+00
3.989814565505800381e-01 1.318840954659286524e+00
4.003225706899768976e-01 1.225888246505157042e+00
4.016636848293737572e-01 1.360132900925862032e+00
4.030047989687706167e-01 1.392207857039437613e+00
4.043459131081674207e-01 1.430958717893432208e+00
4.056870272475643358e-01 1.068161918692283052e+00
4.070281413869611398e-01 1.128580807052657065e+00
4.083692555263580548e-01 1.239944175262486681e+00
4.097103696657548588e-01 1.268359586862963795e+00
4.110514838051517739e-01 1.276695618916406261e+00
4.123925979445485779e-01 1.112745243713526122e+00
4.137337120839453819e-01 1.055877758841106129e+00
4.150748262233422969e-01 1.101328073124712148e+00
4.164159403627391010e-01 1.163225905284960504e+00
4.177570545021360160e-01 1.261875643922131474e+00
4.190981686415328200e-01 1.338240371169156617e+00
4.204392827809296240e-01 1.340054360610174911e+00
4.217803969203265391e-01 1.675792447693368104e+00
4.231215110597233431e-01 1.435988829663820354e+00
4.244626251991202581e-01 1.181412128808780437e+00
4.258037393385170621e-01 1.563057850956980133e+00
4.271448534779138662e-01 1.546792012190813637e+00
4.284859676173107812e-01 1.571223821944990107e+00
4.298270817567075852e-01 1.758760936354974547e+00
4.311681958961045003e-01 1.993766518746049599e+00
4.325093100355013043e-01 1.683492472935142814e+00
4.338504241748981638e-01 1.585762682516552502e+00
4.351915383142950233e-01 1.469590241977520861e+00
4.365326524536918829e-01 1.567562270879832909e+00
4.378737665930887424e-01 1.580934876274618262e+00
4.392148807324856019e-01 1.308589841579674840e+00
4.405559948718824614e-01 1.211335842178364430e+00
4.418971090112793210e-01 1.497729201204776928e+00
4.432382231506761250e-01 1.276796061125580195e+00
4.445793372900730400e-01 1.196852052686416812e+00
4.459204514294698440e-01 1.241220892794011377e+00
4.472615655688667591e-01 1.281324987564076423e+00
4.486026797082635631e-01 1.158732784902220203e+00
4.499437938476603671e-01 1.249409577024465534e+00
4.512849079870572822e-01 1.351809951707274138e+00
4.526260221264540862e-01 1.618268271481483112e+00
4.539671362658510012e-01 1.714092775571494087e+00
4.553082504052478052e-01 1.460132299180621374e+00
4.566493645446446092e-01 8.604026092004559700e-01
4.579904786840415243e-01 7.005427817041152139e-01
4.593315928234383283e-01 7.408930667342659149e-01
4.606727069628352433e-01 9.581334024405308014e-01
4.620138211022320474e-01 1.163539329355785412e+00
4.633549352416289624e-01 9.068948944898593822e-01
4.646960493810257664e-01 8.912767258118492464e-01
4.660371635204225704e-01 1.225003774222756192e+00
4.673782776598194855e-01 1.250720401971179285e+00
4.687193917992162895e-01 1.481216731800031994e+00
4.700605059386132045e-01 1.352797977989084188e+00
4.714016200780100085e-01 1.107443055294929479e+00
4.727427342174068681e-01 1.034411601026867800e+00
4.740838483568037276e-01 1.013684582899443853e+00
4.754249624962005871e-01 1.068683365775562777e+00
4.767660766355974467e-01 8.423315831809077281e-01
4.781071907749943062e-01 8.113387177174189446e-01
4.794483049143911102e-01 8.956098700263908086e-01
4.807894190537880252e-01 1.053098251978134670e+00
4.821305331931848293e-01 1.037500301426241833e+00
4.834716473325817443e-01 8.634652500343236170e-01
4.848127614719785483e-01 8.808158400690473400e-01
4.861538756113753523e-01 1.197659226783493125e+00
4.874949897507722674e-01 1.124836916602042436e+00
4.888361038901690714e-01 7.477457992919980256e-01
4.901772180295659864e-01 6.353631604254417198e-01
4.915183321689627904e-01 7.272709047116947545e-01
4.928594463083597055e-01 6.733759942672676857e-01
4.942005604477565095e-01 9.286825534868512477e-01
4.955416745871533135e-01 9.499289794743788207e-01
4.968827887265502286e-01 8.933143397793230633e-01
4.982239028659470326e-01 4.140887202285199464e-01
4.995650170053439476e-01 6.897784509466760028e-01
5.009061311447408071e-01 9.353664117445390502e-01
5.022472452841375556e-01 6.731388087742260495e-01
5.035883594235345262e-01 8.512665099115821477e-01
5.049294735629312747e-01 8.631061075330350718e-01
5.062705877023282452e-01 7.062410613920633295e-01
5.076117018417249938e-01 7.826655724570201755e-01
5.089528159811218533e-01 6.280598690989762645e-01
5.102939301205187128e-01 8.040445212329601077e-01
5.116350442599155723e-01 6.743542279454857180e-01
5.129761583993124319e-01 2.076320464277614519e-01
5.143172725387092914e-01 2.543535292913361445e-01
5.156583866781061509e-01 4.328761258192059813e-02
5.169995008175030105e-01 1.730070029950709909e-01
5.183406149568997590e-01 4.070002909938352786e-01
5.196817290962967295e-01 6.814229708589607526e-01
5.210228432356934780e-01 1.333655167841598654e-01
5.223639573750904486e-01 4.088776356935781564e-01
5.237050715144871971e-01 5.946094143473601434e-01
5.250461856538840566e-01 3.757353882049372373e-01
5.263872997932809161e-01 8.191766222436243083e-01
5.277284139326777757e-01 1.004452367470982210e+00
5.290695280720746352e-01 6.036353294907286227e-01
5.304106422114714947e-01 7.997743427934054239e-01
5.317517563508683542e-01 7.029947826995908144e-01
5.330928704902652138e-01 4.453739559840528273e-01
5.344339846296620733e-01 6.304491183226019757e-01
5.357750987690589328e-01 7.787504381060799119e-01
5.371162129084557924e-01 9.263806909694878300e-01
5.384573270478525409e-01 7.508019685614328864e-01
5.397984411872495114e-01 8.084658492294849452e-01
5.411395553266462599e-01 9.563287572702563466e-01
5.424806694660432305e-01 8.435228966468883982e-01
5.438217836054399790e-01 3.948524687676666645e-01
5.451628977448369495e-01 2.327183297235109194e-01
5.465040118842336980e-01 4.110382321989263232e-01
5.478451260236305576e-01 6.230021235624647602e-01
5.491862401630274171e-01 5.322926706854858026e-01
5.505273543024242766e-01 4.539868722410034252e-01
5.518684684418211361e-01 1.548793989349874778e-01
5.532095825812179957e-01 2.396413755113258048e-01
5.545506967206147442e-01 3.717499533113652888e-01
