# q (1/Angstrom), Intensity (arb)
2.078726924066784734e-02 2.870033216704016468e+02
2.212838338006469993e-02 4.249706046354548334e+02
2.346949751946154905e-02 5.689073119081310779e+02
2.481061165885840164e-02 8.200687811403664682e+02
2.615172579825525423e-02 9.537629215855698703e+02
2.749283993765210335e-02 1.009222562672427671e+03
2.883395407704895941e-02 1.051508262770966212e+03
3.017506821644580506e-02 1.074998352943567852e+03
3.151618235584265765e-02 1.082901306582908774e+03
3.285729649523951718e-02 1.086915712290301144e+03
3.419841063463636283e-02 1.086469497903342244e+03
3.553952477403321542e-02 1.076444296049343848e+03
3.688063891343006800e-02 1.068786566206726775e+03
3.822175305282692059e-02 1.064365120565614916e+03
3.956286719222376624e-02 1.055709365216178639e+03
4.090398133162062577e-02 1.050781091206458086e+03
4.224509547101747142e-02 1.043185391709124815e+03
4.358620961041432401e-02 1.034411805549975043e+03
4.492732374981117660e-02 1.027360575776936457e+03
4.626843788920802919e-02 1.024319585740779985e+03
4.760955202860488178e-02 1.022099911938690070e+03
4.895066616800172743e-02 1.014984046855244287e+03
5.029178030739858696e-02 1.010322196186397264e+03
5.163289444679544649e-02 1.006133704298197813e+03
5.297400858619229214e-02 9.987387441895916709e+02
5.431512272558913779e-02 9.922652507831503499e+02
5.565623686498599731e-02 9.797023009268560827e+02
5.699735100438284990e-02 9.611995979811292727e+02
5.833846514377969555e-02 9.543043626900946492e+02
5.967957928317654814e-02 9.506694302245726931e+02
6.102069342257340767e-02 9.377293722934246034e+02
6.236180756197025332e-02 9.246815783458278020e+02
6.370292170136709897e-02 9.142688266669932773e+02
6.504403584076395850e-02 9.062329571919103728e+02
6.638514998016080415e-02 8.959892477901890970e+02
6.772626411955766368e-02 8.798014751642130022e+02
6.906737825895450933e-02 8.641377453939537645e+02
7.040849239835136886e-02 8.516599549126797228e+02
7.174960653774821451e-02 8.386902624969154658e+02
7.309072067714506016e-02 8.240589052404674248e+02
7.443183481654190581e-02 8.086999885861293933e+02
7.577294895593877921e-02 7.949011615004797022e+02
7.711406309533562486e-02 7.792220493859962289e+02
7.845517723473247051e-02 7.619395080878330191e+02
7.979629137412933004e-02 7.458455061276313245e+02
8.113740551352617569e-02 7.313595387637202521e+02
8.247851965292302134e-02 7.187257559148440578e+02
8.381963379231988087e-02 7.029250282995290036e+02
8.516074793171674040e-02 6.876416436379380457e+02
8.650186207111358605e-02 6.737872536368483907e+02
8.784297621051043170e-02 6.578970601654918937e+02
8.918409034990729123e-02 6.444352609192412729e+02
9.052520448930413688e-02 6.277555727701399064e+02
9.186631862870098253e-02 6.108511802211588702e+02
9.320743276809784206e-02 5.971995171355471257e+02
9.454854690749470159e-02 5.835829095072160726e+02
9.588966104689154724e-02 5.695136182592156047e+02
9.723077518628839289e-02 5.545107626085000447e+02
9.857188932568525241e-02 5.403353692925294354e+02
9.991300346508209806e-02 5.261123723570448192e+02
1.012541176044789437e-01 5.129070820314285584e+02
1.025952317438758032e-01 5.011621266146099742e+02
1.039363458832726350e-01 4.865415891082211601e+02
1.052774600226694945e-01 4.713310662099050887e+02
1.066185741620663541e-01 4.586816636548763881e+02
1.079596883014631858e-01 4.477376981956446684e+02
1.093008024408600454e-01 4.333824030549852750e+02
1.106419165802569049e-01 4.191110965481138351e+02
1.119830307196537506e-01 4.075816748272810628e+02
1.133241448590506101e-01 3.948084721469259080e+02
1.146652589984474419e-01 3.833223524763643582e+02
1.160063731378443014e-01 3.717808970203625449e+02
1.173474872772411609e-01 3.589591775941713649e+02
1.186886014166380066e-01 3.473181182407856795e+02
1.200297155560348661e-01 3.369026988191885721e+02
1.213708296954317256e-01 3.250752675906490481e+02
1.227119438348285574e-01 3.138720390984264554e+02
1.240530579742254169e-01 3.018997573415641682e+02
1.253941721136222764e-01 2.917819058873362223e+02
1.267352862530191082e-01 2.814637236529998745e+02
1.280764003924159677e-01 2.721549486988542412e+02
1.294175145318128273e-01 2.618460774312189869e+02
1.307586286712096590e-01 2.518645805125795789e+02
1.320997428106065186e-01 2.433849362253113213e+02
1.334408569500033781e-01 2.326714736162638815e+02
1.347819710894002376e-01 2.240337546706894045e+02
1.361230852287970972e-01 2.144222576891704364e+02
1.374641993681939289e-01 2.052716740273157541e+02
1.388053135075907885e-01 1.961158214039216148e+02
1.401464276469876480e-01 1.889453882356457939e+02
1.414875417863844798e-01 1.812998850480579449e+02
1.428286559257813393e-01 1.733199907890961242e+02
1.441697700651781988e-01 1.666617953860846910e+02
1.455108842045750306e-01 1.593811134924410453e+02
1.468519983439718901e-01 1.523212044291731218e+02
1.481931124833687219e-01 1.449800475182313733e+02
1.495342266227655814e-01 1.390473294545472811e+02
1.508753407621624687e-01 1.315563400354482155e+02
1.522164549015593005e-01 1.247838121525497002e+02
1.535575690409561600e-01 1.194550160503507783e+02
1.548986831803530195e-01 1.125786952159941592e+02
1.562397973197498513e-01 1.060262042226597856e+02
1.575809114591467108e-01 1.009886686500620669e+02
1.589220255985435704e-01 9.750700334270597125e+01
1.602631397379404021e-01 9.177095496914856199e+01
1.616042538773372617e-01 8.662774751012359786e+01
1.629453680167341212e-01 8.238418607547065164e+01
1.642864821561309530e-01 7.673458412424230346e+01
1.656275962955278125e-01 7.269323762662607180e+01
1.669687104349246720e-01 6.793221439312343080e+01
1.683098245743215315e-01 6.467481949963648447e+01
1.696509387137183911e-01 6.073439711457238843e+01
1.709920528531152228e-01 5.714374795534232021e+01
1.723331669925120824e-01 5.350546971542422625e+01
1.736742811319089419e-01 4.968036591534254853e+01
1.750153952713057737e-01 4.703967453167558688e+01
1.763565094107026332e-01 4.373245793081086674e+01
1.776976235500994927e-01 4.048031843192248402e+01
1.790387376894963245e-01 3.849617355209637992e+01
1.803798518288931840e-01 3.612040587168310424e+01
1.817209659682900158e-01 3.301026685788824011e+01
1.830620801076868753e-01 3.062895311951227484e+01
1.844031942470837349e-01 2.847011021145171128e+01
1.857443083864805944e-01 2.681338142200009145e+01
1.870854225258774539e-01 2.419607599153347621e+01
1.884265366652743134e-01 2.214453667497834033e+01
1.897676508046711452e-01 2.079507708227370699e+01
1.911087649440680047e-01 1.904527216835694503e+01
1.924498790834648643e-01 1.792407219106947025e+01
1.937909932228616960e-01 1.655101248623172694e+01
1.951321073622585556e-01 1.440921719931985479e+01
1.964732215016554151e-01 1.330767140518939584e+01
1.978143356410522469e-01 1.227621075218124247e+01
1.991554497804491064e-01 1.070984824267861768e+01
2.004965639198459382e-01 9.790722693997366832e+00
2.018376780592427977e-01 9.870536827176778161e+00
2.031787921986396572e-01 9.454858368624371678e+00
2.045199063380365168e-01 8.253555158129231017e+00
2.058610204774333763e-01 7.499424711718404524e+00
2.072021346168302081e-01 6.802641701544231978e+00
2.085432487562270676e-01 6.747441430749972824e+00
2.098843628956239271e-01 5.957172624480207901e+00
2.112254770350207866e-01 5.249710071642184062e+00
2.125665911744176462e-01 5.528737765306502183e+00
2.139077053138144502e-01 5.149405992169732826e+00
2.152488194532113097e-01 4.544359874788256093e+00
2.165899335926081692e-01 4.154550689866482571e+00
2.179310477320050288e-01 3.928407464264921600e+00
2.192721618714018883e-01 4.191808441084475589e+00
2.206132760107987478e-01 3.712306875063177358e+00
2.219543901501955796e-01 3.542320302841886814e+00
2.232955042895924391e-01 3.584848211313769184e+00
2.246366184289892987e-01 3.733392424840687340e+00
2.259777325683861582e-01 3.702485962410435150e+00
2.273188467077830177e-01 3.743156179827337837e+00
2.286599608471798217e-01 3.926444653641624427e+00
2.300010749865766813e-01 3.940353580311338533e+00
2.313421891259735408e-01 3.652122714228198674e+00
2.326833032653704003e-01 3.817372743258459877e+00
2.340244174047672598e-01 4.501329553081760082e+00
2.353655315441641194e-01 4.182226944226243859e+00
2.367066456835609234e-01 4.145514583859437607e+00
2.380477598229577829e-01 4.296148600827692121e+00
2.393888739623546424e-01 4.428522118524156781e+00
2.407299881017515020e-01 5.005847531618883295e+00
2.420711022411483615e-01 5.969274856830040221e+00
2.434122163805451933e-01 5.319222921576184149e+00
2.447533305199420528e-01 5.161749418906566689e+00
2.460944446593389123e-01 5.610563666309104747e+00
2.474355587987357719e-01 6.117162065961508688e+00
2.487766729381326314e-01 5.710315606091540985e+00
2.501177870775294632e-01 5.738434287310880677e+00
2.514589012169263227e-01 6.055072157306696568e+00
2.528000153563231822e-01 5.904802361286698442e+00
2.541411294957200417e-01 6.384608092339277619e+00
2.554822436351169013e-01 6.664704953538731047e+00
2.568233577745137608e-01 6.399074131638499807e+00
2.581644719139106203e-01 6.611712505581081700e+00
2.595055860533074243e-01 6.857769159573976481e+00
2.608467001927042839e-01 7.152803033366609498e+00
2.621878143321011434e-01 7.191041538498751606e+00
2.635289284714980029e-01 6.754606160156114925e+00
2.648700426108948625e-01 6.934395545067872035e+00
2.662111567502916665e-01 7.427629497584007368e+00
2.675522708896885260e-01 7.547115920918429310e+00
2.688933850290853855e-01 7.177484428218775747e+00
2.702344991684822451e-01 7.366828643105534979e+00
2.715756133078791046e-01 7.708222041924258860e+00
2.729167274472759641e-01 7.903938138791176016e+00
2.742578415866727681e-01 8.215094443431894433e+00
2.755989557260696277e-01 7.608320437151917304e+00
2.769400698654664872e-01 7.497238978003863963e+00
2.782811840048633467e-01 7.665018225952920261e+00
2.796222981442602062e-01 7.481600996980930063e+00
2.809634122836570103e-01 7.665762046027793986e+00
2.823045264230538698e-01 7.193023160225109791e+00
2.836456405624507293e-01 7.428301394790167933e+00
2.849867547018475888e-01 7.042530804878737172e+00
2.863278688412444484e-01 7.060686024792559579e+00
2.876689829806413079e-01 7.125182843861665560e+00
2.890100971200381674e-01 7.254860446966688414e+00
2.903512112594350270e-01 6.791465975489998641e+00
2.916923253988318865e-01 6.989760148103528081e+00
2.930334395382287460e-01 7.146542213323527903e+00
2.943745536776256055e-01 7.296549588121550300e+00
2.957156678170224096e-01 6.915561199775837053e+00
2.970567819564192691e-01 6.392615216576885473e+00
2.983978960958161286e-01 5.981228192356567774e+00
2.997390102352129881e-01 6.395591037701322534e+00
3.010801243746098477e-01 6.511344515821633649e+00
3.024212385140067072e-01 6.063245838502496099e+00
3.037623526534035112e-01 6.047407618230479898e+00
3.051034667928003707e-01 5.958280485999694065e+00
3.064445809321972303e-01 5.900360950516699177e+00
3.077856950715940898e-01 5.796059921399447035e+00
3.091268092109909493e-01 5.379438795856032129e+00
3.104679233503877533e-01 5.642904859698631981e+00
3.118090374897846129e-01 5.461546109341966826e+00
3.131501516291814724e-01 5.340256601205709330e+00
3.144912657685783319e-01 5.003339127420119326e+00
3.158323799079751915e-01 4.537889251900125487e+00
3.171734940473720510e-01 4.328231046921757752e+00
3.185146081867689105e-01 4.493575863550375971e+00
3.198557223261657700e-01 4.746702391786016051e+00
3.211968364655626296e-01 4.035005719903480781e+00
3.225379506049594891e-01 4.328993946506074053e+00
3.238790647443563486e-01 4.401343229696578874e+00
3.252201788837532082e-01 4.397736205081528738e+00
3.265612930231500122e-01 4.106172102719057193e+00
3.279024071625468717e-01 4.138735732435364412e+00
3.292435213019437312e-01 3.857333245759420493e+00
3.305846354413405908e-01 3.194947440114916049e+00
3.319257495807374503e-01 2.912376362688817721e+00
3.332668637201342543e-01 2.776872131354323869e+00
3.346079778595311138e-01 2.856914992776538043e+00
3.359490919989279734e-01 3.448196899200098642e+00
3.372902061383248329e-01 3.088118617565626778e+00
3.386313202777216924e-01 3.139503360917416330e+00
3.399724344171185519e-01 2.722600444094794625e+00
3.413135485565153560e-01 2.489335507003531234e+00
3.426546626959122155e-01 2.409127141108612591e+00
3.439957768353090750e-01 2.520540999635883850e+00
3.453368909747059345e-01 2.354490218647512734e+00
3.466780051141027941e-01 2.302211328380082023e+00
3.480191192534995981e-01 2.256351890780280200e+00
3.493602333928964576e-01 2.079994025407074787e+00
3.507013475322933171e-01 1.822153839169445178e+00
3.520424616716901767e-01 2.093501575457565878e+00
3.533835758110870362e-01 1.910686476646048959e+00
3.547246899504838957e-01 1.412174097548458462e+00
3.560658040898807553e-01 1.471330543461618845e+00
3.574069182292776148e-01 1.555904857482630632e+00
3.587480323686744743e-01 1.642493366288249490e+00
3.600891465080713338e-01 1.971994377998854020e+00
3.614302606474681934e-01 1.943494262916075854e+00
3.627713747868649974e-01 1.656771552521334456e+00
3.641124889262618569e-01 1.802160905853796180e+00
3.654536030656587164e-01 1.303400817447737836e+00
3.667947172050555760e-01 1.206111733438135047e+00
3.681358313444524355e-01 1.507236056647343503e+00
3.694769454838492950e-01 1.624724296933834466e+00
3.708180596232460990e-01 1.873784724248324096e+00
3.721591737626429586e-01 1.468346120223955609e+00
3.735002879020398181e-01 1.390793576727531899e+00
3.748414020414366776e-01 8.216601840102555343e-01
3.761825161808335372e-01 9.301719179190683917e-01
3.775236303202303967e-01 9.331427075128715387e-01
3.788647444596272007e-01 1.255345336755318897e+00
3.802058585990240602e-01 1.480465959675576926e+00
3.815469727384209198e-01 1.396601783801543206e+00
3.828880868778177793e-01 1.872926699849763565e+00
3.842292010172146388e-01 1.231917217846600465e+00
3.855703151566114428e-01 1.192881085723442425e+00
3.869114292960083024e-01 1.536114734870359655e+00
3.882525434354051619e-01 1.147143658710689351e+00
3.895936575748020214e-01 7.733539904149751010e-01
3.909347717141988809e-01 1.026327037030277722e+00
3.922758858535957405e-01 1.439300255396112505e+00
3.936169999929926000e-01 1.487490222195539502e+00
3.949581141323894595e-01 9.370487010068586642e-01
3.962992282717863191e-01 1.070880670748593388e+00
3.976403424111831786e-01 1.608890754338069939e+00
3.989814565505800381e-01 1.470339945699883799e+00
4.003225706899768976e-01 1.125116604933850795e+00
4.016636848293737572e-01 1.189439957427822492e+00
4.030047989687706167e-01 1.165835901078899894e+00
4.043459131081674207e-01 1.273333925923495258e+00
4.056870272475643358e-01 1.654771531178155897e+00
4.070281413869611398e-01 1.432818761113146877e+00
4.083692555263580548e-01 1.349483374105901134e+00
4.097103696657548588e-01 1.016217135369124946e+00
4.110514838051517739e-01 1.127469629470525092e+00
4.123925979445485779e-01 1.030613961107917476e+00
4.137337120839453819e-01 8.553092785018279187e-01
4.150748262233422969e-01 1.015878111032172626e+00
4.164159403627391010e-01 1.257320116300164159e+00
4.177570545021360160e-01 1.262256606309570373e+00
4.190981686415328200e-01 1.296741497682418753e+00
4.204392827809296240e-01 1.205565362817786479e+00
4.217803969203265391e-01 1.225251172422559875e+00
4.231215110597233431e-01 1.307488491717727186e+00
4.244626251991202581e-01 1.136567283652325955e+00
4.258037393385170621e-01 1.336289590743064082e+00
4.271448534779138662e-01 1.238641664494068095e+00
4.284859676173107812e-01 9.587667474106922327e-01
4.298270817567075852e-01 1.413159667982931467e+00
4.311681958961045003e-01 1.780990993965595237e+00
4.325093100355013043e-01 1.599699321045768841e+00
4.338504241748981638e-01 1.501455623209935197e+00
4.351915383142950233e-01 1.766989451159219016e+00
4.365326524536918829e-01 1.545241995732219209e+00
4.378737665930887424e-01 1.410279970355446721e+00
4.392148807324856019e-01 9.564307632841249074e-01
4.405559948718824614e-01 9.351296096615229203e-01
4.418971090112793210e-01 1.197354450186644215e+00
4.432382231506761250e-01 1.283907611452427489e+00
4.445793372900730400e-01 1.302455293836061401e+00
4.459204514294698440e-01 1.268513248191929677e+00
4.472615655688667591e-01 1.451814697615326111e+00
4.486026797082635631e-01 1.430136469981235336e+00
4.499437938476603671e-01 1.329433088142259578e+00
4.512849079870572822e-01 1.236602578574867550e+00
4.526260221264540862e-01 1.473835909094091789e+00
4.539671362658510012e-01 1.566131775685384753e+00
4.553082504052478052e-01 1.426288393845140945e+00
4.566493645446446092e-01 9.982037250668867046e-01
4.579904786840415243e-01 9.422277948057242725e-01
4.593315928234383283e-01 1.077895997436293385e+00
4.606727069628352433e-01 1.170283138153415337e+00
4.620138211022320474e-01 7.951567848357754542e-01
4.633549352416289624e-01 6.981227162326888447e-01
4.646960493810257664e-01 8.051064508167726785e-01
4.660371635204225704e-01 1.417962847649157254e+00
4.673782776598194855e-01 1.556702329566356013e+00
4.687193917992162895e-01 1.521249659463933313e+00
4.700605059386132045e-01 1.274508044861406120e+00
4.714016200780100085e-01 1.153618378639691855e+00
4.727427342174068681e-01 1.004640043058238064e+00
4.740838483568037276e-01 1.058094623059886885e+00
4.754249624962005871e-01 1.002668276692567417e+00
4.767660766355974467e-01 8.034585886162020074e-01
4.781071907749943062e-01 8.535132279142487732e-01
4.794483049143911102e-01 9.868574471097488754e-01
4.807894190537880252e-01 9.150817004716742531e-01
4.821305331931848293e-01 9.817756839203042318e-01
4.834716473325817443e-01 8.253934100382949168e-01
4.848127614719785483e-01 8.863275069416545193e-01
4.861538756113753523e-01 9.398565154399918242e-01
4.874949897507722674e-01 1.048572136628472151e+00
4.888361038901690714e-01 1.112069866925068595e+00
4.901772180295659864e-01 8.939039428191080106e-01
4.915183321689627904e-01 7.485182349666885671e-01
4.928594463083597055e-01 6.943781556062589289e-01
4.942005604477565095e-01 5.968592075576850675e-01
4.955416745871533135e-01 4.066340667608088211e-01
4.968827887265502286e-01 4.662865375062636986e-01
4.982239028659470326e-01 5.015355800645266982e-01
4.995650170053439476e-01 6.854148175931484843e-01
5.009061311447408071e-01 5.887558308474183377e-01
5.022472452841375556e-01 4.781394246606680554e-01
5.035883594235345262e-01 7.647372504654370573e-01
5.049294735629312747e-01 8.650920383921558710e-01
5.062705877023282452e-01 7.213478655882425983e-01
5.076117018417249938e-01 8.056050753683408061e-01
5.089528159811218533e-01 5.962462421020902070e-01
5.102939301205187128e-01 5.464487624103142593e-01
5.116350442599155723e-01 8.093684054546486095e-01
5.129761583993124319e-01 6.383824603574765888e-01
5.143172725387092914e-01 3.773939374561621207e-01
5.156583866781061509e-01 6.462609927368845320e-02
5.169995008175030105e-01 2.072349847592533933e-01
5.183406149568997590e-01 3.561844526272821554e-01
5.196817290962967295e-01 3.146589250170137575e-01
5.210228432356934780e-01 0.000000000000000000e+00
5.223639573750904486e-01 2.891115846475429407e-01
5.237050715144871971e-01 6.222336753348258753e-01
5.250461856538840566e-01 8.257344277868199356e-01
5.263872997932809161e-01 9.040344610245441004e-01
5.277284139326777757e-01 9.750036940774151617e-01
5.290695280720746352e-01 4.478938359393893620e-01
5.304106422114714947e-01 6.108768460935891653e-01
5.317517563508683542e-01 4.021904595681675687e-01
5.330928704902652138e-01 2.962832385898011012e-01
5.344339846296620733e-01 4.314030048415560259e-01
5.357750987690589328e-01 5.562507375656196018e-01
5.371162129084557924e-01 5.784956622410888372e-01
5.384573270478525409e-01 5.284627002742325885e-01
5.397984411872495114e-01 4.261825896558306681e-01
5.411395553266462599e-01 7.514518457790870798e-01
5.424806694660432305e-01 5.915245165342781775e-01
5.438217836054399790e-01 3.523282569212113913e-01
5.451628977448369495e-01 6.233528443042501976e-02
5.465040118842336980e-01 2.006306296127036148e-01
5.478451260236305576e-01 3.665871042642336874e-01
5.491862401630274171e-01 2.159227055916943527e-01
5.505273543024242766e-01 1.215840390509015378e-01
5.518684684418211361e-01 1.720663089813498914e-01
5.532095825812179957e-01 3.362403513664773413e-01
5.545506967206147442e-01 4.242282495125593300e-01
