# q (1/Angstrom), Intensity (arb)
2.078726924066784734e-02 3.061537396368876216e+02
2.212838338006469993e-02 4.609814549517441264e+02
2.346949751946154905e-02 6.269636978786342070e+02
2.481061165885840164e-02 9.006703168346159600e+02
2.615172579825525423e-02 1.047748380857522307e+03
2.749283993765210335e-02 1.100406270277360363e+03
2.883395407704895941e-02 1.147691097173190883e+03
3.017506821644580506e-02 1.180477516303384618e+03
3.151618235584265765e-02 1.191264294993334261e+03
3.285729649523951718e-02 1.190716176416954568e+03
3.419841063463636283e-02 1.184875968582967062e+03
3.553952477403321542e-02 1.175656830247342896e+03
3.688063891343006800e-02 1.164671094084737433e+03
3.822175305282692059e-02 1.161614797605207741e+03
3.956286719222376624e-02 1.153616140618174995e+03
4.090398133162062577e-02 1.148648884551675110e+03
4.224509547101747142e-02 1.141828813631382445e+03
4.358620961041432401e-02 1.129230265005146066e+03
4.492732374981117660e-02 1.113389921792606856e+03
4.626843788920802919e-02 1.113898402016705631e+03
4.760955202860488178e-02 1.116938098922866175e+03
4.895066616800172743e-02 1.108123778573367645e+03
5.029178030739858696e-02 1.098683836514078166e+03
5.163289444679544649e-02 1.092037884069836991e+03
5.297400858619229214e-02 1.085846537748789615e+03
5.431512272558913779e-02 1.075514031039966540e+03
5.565623686498599731e-02 1.064922702245417440e+03
5.699735100438284990e-02 1.053846612962388008e+03
5.833846514377969555e-02 1.044583770879197800e+03
5.967957928317654814e-02 1.036444546895243093e+03
6.102069342257340767e-02 1.022275778443761396e+03
6.236180756197025332e-02 1.008774062893197765e+03
6.370292170136709897e-02 9.944853000911458594e+02
6.504403584076395850e-02 9.859264188377458140e+02
6.638514998016080415e-02 9.764023259625308810e+02
6.772626411955766368e-02 9.602544825177736811e+02
6.906737825895450933e-02 9.449720241151553637e+02
7.040849239835136886e-02 9.298221342609721205e+02
7.174960653774821451e-02 9.133873870572313081e+02
7.309072067714506016e-02 8.942895186781588563e+02
7.443183481654190581e-02 8.798187612515935143e+02
7.577294895593877921e-02 8.660134593186121492e+02
7.711406309533562486e-02 8.472175049886780016e+02
7.845517723473247051e-02 8.267043817522429663e+02
7.979629137412933004e-02 8.134408604158197704e+02
8.113740551352617569e-02 7.966446201523623358e+02
8.247851965292302134e-02 7.828294075988642362e+02
8.381963379231988087e-02 7.655648212190097865e+02
8.516074793171674040e-02 7.457210661097069533e+02
8.650186207111358605e-02 7.322893500387856420e+02
8.784297621051043170e-02 7.159053621489107400e+02
8.918409034990729123e-02 7.003697016755262439e+02
9.052520448930413688e-02 6.829386969279439654e+02
9.186631862870098253e-02 6.648420924136436270e+02
9.320743276809784206e-02 6.503228517023975428e+02
9.454854690749470159e-02 6.353831681276858490e+02
9.588966104689154724e-02 6.194994330297222405e+02
9.723077518628839289e-02 6.029069970640390466e+02
9.857188932568525241e-02 5.859724663186832458e+02
9.991300346508209806e-02 5.727801127528790630e+02
1.012541176044789437e-01 5.571197781493315233e+02
1.025952317438758032e-01 5.413263125905757533e+02
1.039363458832726350e-01 5.263588669523957151e+02
1.052774600226694945e-01 5.115560052310173660e+02
1.066185741620663541e-01 4.987779156644999148e+02
1.079596883014631858e-01 4.839723950314757417e+02
1.093008024408600454e-01 4.701938126679193601e+02
1.106419165802569049e-01 4.556099537359212377e+02
1.119830307196537506e-01 4.434142251364189633e+02
1.133241448590506101e-01 4.290613368578279392e+02
1.146652589984474419e-01 4.149894514236370924e+02
1.160063731378443014e-01 4.008431311591284611e+02
1.173474872772411609e-01 3.876821448084280064e+02
1.186886014166380066e-01 3.769179979397232501e+02
1.200297155560348661e-01 3.645096733275818792e+02
1.213708296954317256e-01 3.503015596818962081e+02
1.227119438348285574e-01 3.382917559895939235e+02
1.240530579742254169e-01 3.284165018753931236e+02
1.253941721136222764e-01 3.157563367215716426e+02
1.267352862530191082e-01 3.039042876430430624e+02
1.280764003924159677e-01 2.939389817041098922e+02
1.294175145318128273e-01 2.821957097775978127e+02
1.307586286712096590e-01 2.713846637560691875e+02
1.320997428106065186e-01 2.617087450670898647e+02
1.334408569500033781e-01 2.498710122630901651e+02
1.347819710894002376e-01 2.402530358130902073e+02
1.361230852287970972e-01 2.319908075103408578e+02
1.374641993681939289e-01 2.226636870726765665e+02
1.388053135075907885e-01 2.128723994753975148e+02
1.401464276469876480e-01 2.030864621648480295e+02
1.414875417863844798e-01 1.952062771972690882e+02
1.428286559257813393e-01 1.863907869825208650e+02
1.441697700651781988e-01 1.787122079300981454e+02
1.455108842045750306e-01 1.706777841696740836e+02
1.468519983439718901e-01 1.628622368169101833e+02
1.481931124833687219e-01 1.560282512748453030e+02
1.495342266227655814e-01 1.476675706456460944e+02
1.508753407621624687e-01 1.404135551508739752e+02
1.522164549015593005e-01 1.338659302352254201e+02
1.535575690409561600e-01 1.278263703327893097e+02
1.548986831803530195e-01 1.219111030997137703e+02
1.562397973197498513e-01 1.155232203389194581e+02
1.575809114591467108e-01 1.092566031648639466e+02
1.589220255985435704e-01 1.033717868336641033e+02
1.602631397379404021e-01 9.880529344559859339e+01
1.616042538773372617e-01 9.286179705472714829e+01
1.629453680167341212e-01 8.764613452057771781e+01
1.642864821561309530e-01 8.282700347988175338e+01
1.656275962955278125e-01 7.788833958021744763e+01
1.669687104349246720e-01 7.311942124431328693e+01
1.683098245743215315e-01 6.879087602179779992e+01
1.696509387137183911e-01 6.496485772106127854e+01
1.709920528531152228e-01 6.085322564684427959e+01
1.723331669925120824e-01 5.662951144819534477e+01
1.736742811319089419e-01 5.314307868348755903e+01
1.750153952713057737e-01 5.027180171750175930e+01
1.763565094107026332e-01 4.676559047168137795e+01
1.776976235500994927e-01 4.336586604015964497e+01
1.790387376894963245e-01 4.140367008629914380e+01
1.803798518288931840e-01 3.862049171841104567e+01
1.817209659682900158e-01 3.519723943498706831e+01
1.830620801076868753e-01 3.183620501034934591e+01
1.844031942470837349e-01 2.987386371547663089e+01
1.857443083864805944e-01 2.804879006120496854e+01
1.870854225258774539e-01 2.610938424878024477e+01
1.884265366652743134e-01 2.380935362167164726e+01
1.897676508046711452e-01 2.200450007831896926e+01
1.911087649440680047e-01 2.063064078114324218e+01
1.924498790834648643e-01 1.919643564427457250e+01
1.937909932228616960e-01 1.824969119541194118e+01
1.951321073622585556e-01 1.538976949568532859e+01
1.964732215016554151e-01 1.444265221618954342e+01
1.978143356410522469e-01 1.376082121341677578e+01
1.991554497804491064e-01 1.270188347633462911e+01
2.004965639198459382e-01 1.179773682046564431e+01
2.018376780592427977e-01 1.094426130039238387e+01
2.031787921986396572e-01 9.963865604394413822e+00
2.045199063380365168e-01 9.180077998460106414e+00
2.058610204774333763e-01 8.584267298920806866e+00
2.072021346168302081e-01 8.582618259178957487e+00
2.085432487562270676e-01 8.044012771123533412e+00
2.098843628956239271e-01 6.789633316510276018e+00
2.112254770350207866e-01 6.647158861986071088e+00
2.125665911744176462e-01 5.815724516204866745e+00
2.139077053138144502e-01 4.915185056851456125e+00
2.152488194532113097e-01 5.243003684770130235e+00
2.165899335926081692e-01 5.560934427703372762e+00
2.179310477320050288e-01 5.097085236199063729e+00
2.192721618714018883e-01 5.057643765031258454e+00
2.206132760107987478e-01 4.767603289282618562e+00
2.219543901501955796e-01 4.767874492054176017e+00
2.232955042895924391e-01 4.765658486268421257e+00
2.246366184289892987e-01 4.669644038960143462e+00
2.259777325683861582e-01 4.723240863563916037e+00
2.273188467077830177e-01 4.464485684450124836e+00
2.286599608471798217e-01 4.339315173477700682e+00
2.300010749865766813e-01 4.327905320572412506e+00
2.313421891259735408e-01 4.609236671119361972e+00
2.326833032653704003e-01 5.091337079106608599e+00
2.340244174047672598e-01 5.312537962993914675e+00
2.353655315441641194e-01 5.055341736962304822e+00
2.367066456835609234e-01 4.780565573762828535e+00
2.380477598229577829e-01 4.846992704461300150e+00
2.393888739623546424e-01 5.392433895942517097e+00
2.407299881017515020e-01 5.820287113322834216e+00
2.420711022411483615e-01 6.673676780879688408e+00
2.434122163805451933e-01 6.464962094532140213e+00
2.447533305199420528e-01 6.508312337210284682e+00
2.460944446593389123e-01 6.814904047576007429e+00
2.474355587987357719e-01 6.931162813594440308e+00
2.487766729381326314e-01 7.002236263940346817e+00
2.501177870775294632e-01 6.822804811475378983e+00
2.514589012169263227e-01 6.758953403253272540e+00
2.528000153563231822e-01 6.783733466457078976e+00
2.541411294957200417e-01 7.521609148317821791e+00
2.554822436351169013e-01 8.146677630674673765e+00
2.568233577745137608e-01 8.178495669934392254e+00
2.581644719139106203e-01 8.361578003428093098e+00
2.595055860533074243e-01 8.186646002246362741e+00
2.608467001927042839e-01 8.311386888843642851e+00
2.621878143321011434e-01 8.661373124446683391e+00
2.635289284714980029e-01 8.625644968643399579e+00
2.648700426108948625e-01 8.507617249859507069e+00
2.662111567502916665e-01 8.732902897440951051e+00
2.675522708896885260e-01 8.346932605522823678e+00
2.688933850290853855e-01 8.401442195129291690e+00
2.702344991684822451e-01 8.814904705859177625e+00
2.715756133078791046e-01 9.393890505749240560e+00
2.729167274472759641e-01 9.015594690651624887e+00
2.742578415866727681e-01 8.896874359121483167e+00
2.755989557260696277e-01 8.543309743361461983e+00
2.769400698654664872e-01 8.230090689424628181e+00
2.782811840048633467e-01 8.444170751788874441e+00
2.796222981442602062e-01 7.894034011335534728e+00
2.809634122836570103e-01 8.349472886747193456e+00
2.823045264230538698e-01 8.181854689669918912e+00
2.836456405624507293e-01 8.111922779065452005e+00
2.849867547018475888e-01 7.966232561458227224e+00
2.863278688412444484e-01 8.102291948756644047e+00
2.876689829806413079e-01 8.394220167937206156e+00
2.890100971200381674e-01 8.279852780294092440e+00
2.903512112594350270e-01 7.254523508851832503e+00
2.916923253988318865e-01 7.224010185124342343e+00
2.930334395382287460e-01 7.565114049737474033e+00
2.943745536776256055e-01 7.848019472528264373e+00
2.957156678170224096e-01 7.670815940030095703e+00
2.970567819564192691e-01 7.535401613142568067e+00
2.983978960958161286e-01 7.643234771026556018e+00
2.997390102352129881e-01 7.503048956726971142e+00
3.010801243746098477e-01 7.072886321003949206e+00
3.024212385140067072e-01 6.786828860742531333e+00
3.037623526534035112e-01 7.120555470792893971e+00
3.051034667928003707e-01 6.619736147707115492e+00
3.064445809321972303e-01 6.302026111231214145e+00
3.077856950715940898e-01 6.628926623499097559e+00
3.091268092109909493e-01 6.112921396615078606e+00
3.104679233503877533e-01 6.347249373902286607e+00
3.118090374897846129e-01 6.172025912555753280e+00
3.131501516291814724e-01 5.768907711525571358e+00
3.144912657685783319e-01 5.490518883291159113e+00
3.158323799079751915e-01 5.259887727007864555e+00
3.171734940473720510e-01 4.819138401887087753e+00
3.185146081867689105e-01 4.776029725123095204e+00
3.198557223261657700e-01 4.826947155537681056e+00
3.211968364655626296e-01 4.450849147906765779e+00
3.225379506049594891e-01 4.323479826385209890e+00
3.238790647443563486e-01 4.308923919998917995e+00
3.252201788837532082e-01 4.538229596129639276e+00
3.265612930231500122e-01 4.194849613430406521e+00
3.279024071625468717e-01 4.158816671284938593e+00
3.292435213019437312e-01 4.160915964204406237e+00
3.305846354413405908e-01 4.058135962473741642e+00
3.319257495807374503e-01 3.639007064803124081e+00
3.332668637201342543e-01 3.234345571013164999e+00
3.346079778595311138e-01 3.176162134025858563e+00
3.359490919989279734e-01 3.159375220007319740e+00
3.372902061383248329e-01 3.061636943245844122e+00
3.386313202777216924e-01 3.389889608290587830e+00
3.399724344171185519e-01 3.044073189822583458e+00
3.413135485565153560e-01 2.419752950615418285e+00
3.426546626959122155e-01 2.073328987716891447e+00
3.439957768353090750e-01 2.687634028340070813e+00
3.453368909747059345e-01 2.462229894995914492e+00
3.466780051141027941e-01 2.335961560213235089e+00
3.480191192534995981e-01 2.468615465464608860e+00
3.493602333928964576e-01 2.316687277615628204e+00
3.507013475322933171e-01 2.229388592205523878e+00
3.520424616716901767e-01 2.585030840585915257e+00
3.533835758110870362e-01 2.090466640287189648e+00
3.547246899504838957e-01 1.638388553168155681e+00
3.560658040898807553e-01 1.614435036254405986e+00
3.574069182292776148e-01 1.574326678252944589e+00
3.587480323686744743e-01 1.549088036689127534e+00
3.600891465080713338e-01 1.953176986246120350e+00
3.614302606474681934e-01 1.933898439339529318e+00
3.627713747868649974e-01 1.701671932863021652e+00
3.641124889262618569e-01 1.700689206570302758e+00
3.654536030656587164e-01 1.534421654824086545e+00
3.667947172050555760e-01 1.118161331926444291e+00
3.681358313444524355e-01 1.205290597318523282e+00
3.694769454838492950e-01 1.412167978161235737e+00
3.708180596232460990e-01 1.881710517549535666e+00
3.721591737626429586e-01 1.704675408577031703e+00
3.735002879020398181e-01 1.628666844171931416e+00
3.748414020414366776e-01 1.120388733434410256e+00
3.761825161808335372e-01 1.083728836543457419e+00
3.775236303202303967e-01 9.346515848950787131e-01
3.788647444596272007e-01 1.479327453553608507e+00
3.802058585990240602e-01 1.397023036253116857e+00
3.815469727384209198e-01 1.593995845629123664e+00
3.828880868778177793e-01 1.858286428833608284e+00
3.842292010172146388e-01 1.293073262539408574e+00
3.855703151566114428e-01 1.387580457638179610e+00
3.869114292960083024e-01 1.463868575895759250e+00
3.882525434354051619e-01 1.077908167373877291e+00
3.895936575748020214e-01 8.845375882162187509e-01
3.909347717141988809e-01 9.502132157338820662e-01
3.922758858535957405e-01 1.123344226907107668e+00
3.936169999929926000e-01 1.452857331806200136e+00
3.949581141323894595e-01 5.903666473365660750e-01
3.962992282717863191e-01 1.080363537134019225e+00
3.976403424111831786e-01 1.326435455971164856e+00
3.989814565505800381e-01 1.559547155519439343e+00
4.003225706899768976e-01 1.258203346483696805e+00
4.016636848293737572e-01 1.287755931683221888e+00
4.030047989687706167e-01 1.034097105805429351e+00
4.043459131081674207e-01 1.070893833593359545e+00
4.056870272475643358e-01 1.292644390156425516e+00
4.070281413869611398e-01 1.237355387198505241e+00
4.083692555263580548e-01 1.450500922070247611e+00
4.097103696657548588e-01 1.523779257649024998e+00
4.110514838051517739e-01 1.671569658641487877e+00
4.123925979445485779e-01 1.866647631902964122e+00
4.137337120839453819e-01 1.343839816376046770e+00
4.150748262233422969e-01 1.104203196051358304e+00
4.164159403627391010e-01 9.856845858710414632e-01
4.177570545021360160e-01 1.236929240650397333e+00
4.190981686415328200e-01 1.068476415072595387e+00
4.204392827809296240e-01 1.002168648549911723e+00
4.217803969203265391e-01 1.508412239464036020e+00
4.231215110597233431e-01 1.306510532647621403e+00
4.244626251991202581e-01 1.252621101582931828e+00
4.258037393385170621e-01 1.571603747882960533e+00
4.271448534779138662e-01 1.771601364221325525e+00
4.284859676173107812e-01 1.733971797107571433e+00
4.298270817567075852e-01 1.474626174311495674e+00
4.311681958961045003e-01 1.886800487252614289e+00
4.325093100355013043e-01 1.992397262194742780e+00
4.338504241748981638e-01 1.759183939997868151e+00
4.351915383142950233e-01 1.426214704766152863e+00
4.365326524536918829e-01 1.557835819499359786e+00
4.378737665930887424e-01 1.312897257712464238e+00
4.392148807324856019e-01 1.073484785082754911e+00
4.405559948718824614e-01 1.272128901220185071e+00
4.418971090112793210e-01 1.741900398180476373e+00
4.432382231506761250e-01 1.338372025474939164e+00
4.445793372900730400e-01 1.274054926039170255e+00
4.459204514294698440e-01 1.042803188397499525e+00
4.472615655688667591e-01 1.226658705417349893e+00
4.486026797082635631e-01 1.335012839074899205e+00
4.499437938476603671e-01 1.421095842193224712e+00
4.512849079870572822e-01 1.427965729028812802e+00
4.526260221264540862e-01 1.569932041313350624e+00
4.539671362658510012e-01 1.617426510267677031e+00
4.553082504052478052e-01 1.657719591534331016e+00
4.566493645446446092e-01 1.081156891657002461e+00
4.579904786840415243e-01 8.205581482011652383e-01
4.593315928234383283e-01 1.154109808504841794e+00
4.606727069628352433e-01 1.151382145033991833e+00
4.620138211022320474e-01 1.185602137240017839e+00
4.633549352416289624e-01 9.918154119675932634e-01
4.646960493810257664e-01 9.613697232537958826e-01
4.660371635204225704e-01 1.315168145302997971e+00
4.673782776598194855e-01 1.418497467137818546e+00
4.687193917992162895e-01 1.420179966087417256e+00
4.700605059386132045e-01 1.355703096844614208e+00
4.714016200780100085e-01 1.343912223928491301e+00
4.727427342174068681e-01 1.269840147962852939e+00
4.740838483568037276e-01 9.794770835252322172e-01
4.754249624962005871e-01 9.907943601229973751e-01
4.767660766355974467e-01 9.446061369034381983e-01
4.781071907749943062e-01 1.005514413868120016e+00
4.794483049143911102e-01 1.281935163661685806e+00
4.807894190537880252e-01 1.425092953978307264e+00
4.821305331931848293e-01 1.339251197704889762e+00
4.834716473325817443e-01 9.272998903958225014e-01
4.848127614719785483e-01 1.056727372667481291e+00
4.861538756113753523e-01 1.014855253381895750e+00
4.874949897507722674e-01 9.523758398674786463e-01
4.888361038901690714e-01 1.122947078991259673e+00
4.901772180295659864e-01 8.082849104090428227e-01
4.915183321689627904e-01 4.284958437215209415e-01
4.928594463083597055e-01 5.070300671284826421e-01
4.942005604477565095e-01 6.067684721410415705e-01
4.955416745871533135e-01 5.989919082554067131e-01
4.968827887265502286e-01 9.766216167177077523e-01
4.982239028659470326e-01 5.744922341868985427e-01
4.995650170053439476e-01 4.762228339796408250e-01
5.009061311447408071e-01 6.470486660679455326e-01
5.022472452841375556e-01 5.448660444483905962e-01
5.035883594235345262e-01 8.299722573661227898e-01
5.049294735629312747e-01 8.028167742336904666e-01
5.062705877023282452e-01 7.297152510671054415e-01
5.076117018417249938e-01 6.141973937052682686e-01
5.089528159811218533e-01 4.528864617110812674e-01
5.102939301205187128e-01 2.397386972834780750e-01
5.116350442599155723e-01 4.651135988898431606e-01
5.129761583993124319e-01 3.674770888664369295e-01
5.143172725387092914e-01 1.000608743359947539e-01
5.156583866781061509e-01 0.000000000000000000e+00
5.169995008175030105e-01 3.184554614283214846e-01
5.183406149568997590e-01 2.775204604371523942e-01
5.196817290962967295e-01 2.698953815674798307e-01
5.210228432356934780e-01 6.017050461561979091e-02
5.223639573750904486e-01 3.133109018090820541e-01
5.237050715144871971e-01 4.367778401938622324e-01
5.250461856538840566e-01 5.134756475819912680e-01
5.263872997932809161e-01 4.618616903421610687e-01
5.277284139326777757e-01 7.055998674117489600e-01
5.290695280720746352e-01 6.923865217475935196e-01
5.304106422114714947e-01 9.739522582102182469e-01
5.317517563508683542e-01 5.248605429567732017e-01
5.330928704902652138e-01 3.508741840513422972e-01
5.344339846296620733e-01 3.434066123125418812e-01
5.357750987690589328e-01 4.081793177700276942e-01
5.371162129084557924e-01 5.318285132590219177e-01
5.384573270478525409e-01 6.461682048787338317e-01
5.397984411872495114e-01 7.013667234871761025e-01
5.411395553266462599e-01 8.948327585669417772e-01
5.424806694660432305e-01 7.052688088663998656e-01
5.438217836054399790e-01 4.924315147262348091e-01
5.451628977448369495e-01 3.359612042696085155e-01
5.465040118842336980e-01 2.473946978787608941e-01
5.478451260236305576e-01 4.805015808919890219e-01
5.491862401630274171e-01 4.094477541456882363e-01
5.505273543024242766e-01 1.837966045795127457e-01
5.518684684418211361e-01 9.279764397095391359e-02
5.532095825812179957e-01 2.707369496462490588e-01
5.545506967206147442e-01 3.274549133855515493e-01
