# q (1/Angstrom), Intensity (arb)
2.029070354705860696e-02 2.538736026542677564e+02
2.133125244372399004e-02 2.209664890068740704e+02
2.237180134038937659e-02 1.972103090113344308e+02
2.341235023705475968e-02 1.785384618459451929e+02
2.445289913372014276e-02 1.624907356863361088e+02
2.549344803038552584e-02 1.491346636882899190e+02
2.653399692705091240e-02 1.397587835422287696e+02
2.757454582371629548e-02 1.321331853927228224e+02
2.861509472038167856e-02 1.227749518126919952e+02
2.965564361704706164e-02 1.167110746786274689e+02
3.069619251371244473e-02 1.137344806489501252e+02
3.173674141037782781e-02 1.084041424017566015e+02
3.277729030704321089e-02 1.042140259518712213e+02
3.381783920370859398e-02 1.025587711785957197e+02
3.485838810037397706e-02 9.947733718709960726e+01
3.589893699703936014e-02 9.822160411003719105e+01
3.693948589370474322e-02 9.795478153378215325e+01
3.798003479037012631e-02 9.861625194737453626e+01
3.902058368703550939e-02 9.999622365060545803e+01
4.006113258370089247e-02 1.004250595117133855e+02
4.110168148036627556e-02 1.022074044033261373e+02
4.214223037703165864e-02 1.050847545142131594e+02
4.318277927369704866e-02 1.095364680448890056e+02
4.422332817036243174e-02 1.153008317400269220e+02
4.526387706702781483e-02 1.224960956937976562e+02
4.630442596369319791e-02 1.319675435715894878e+02
4.734497486035858099e-02 1.437942371254572436e+02
4.838552375702396408e-02 1.583764485546868457e+02
4.942607265368934716e-02 1.806501201539446981e+02
5.046662155035473024e-02 2.114322880343045767e+02
5.150717044702011332e-02 2.584536616564761857e+02
5.254771934368549641e-02 3.393304023554568971e+02
5.358826824035087949e-02 4.740441715144132786e+02
5.462881713701626257e-02 6.776096332733442296e+02
5.566936603368164566e-02 9.547698112600382956e+02
5.670991493034702874e-02 1.274010945191548217e+03
5.775046382701241182e-02 1.483554279086201632e+03
5.879101272367779490e-02 1.493915058483853727e+03
5.983156162034317799e-02 1.362547826974993541e+03
6.087211051700856107e-02 1.168717633235349240e+03
6.191265941367394415e-02 9.657971554457624279e+02
6.295320831033933417e-02 7.795971226140253520e+02
6.399375720700471726e-02 6.212442394295019312e+02
6.503430610367010034e-02 4.978408083656760255e+02
6.607485500033548342e-02 3.998101731768518334e+02
6.711540389700086651e-02 3.171790227332041354e+02
6.815595279366624959e-02 2.497137083975683822e+02
6.919650169033163267e-02 1.934797078123618235e+02
7.023705058699701576e-02 1.455585941803413448e+02
7.127759948366239884e-02 1.090485243676911011e+02
7.231814838032778192e-02 8.171469671070732943e+01
7.335869727699316500e-02 6.109124275022341521e+01
7.439924617365854809e-02 4.675783796232881429e+01
7.543979507032393117e-02 3.700325262441771201e+01
7.648034396698931425e-02 3.024659349501293448e+01
7.752089286365469734e-02 2.514653112617592967e+01
7.856144176032008042e-02 2.192279750978990904e+01
7.960199065698546350e-02 1.981670576534433081e+01
8.064253955365084658e-02 1.765747443634118952e+01
8.168308845031622967e-02 1.592322173770416427e+01
8.272363734698161275e-02 1.564538426239649027e+01
8.376418624364699583e-02 1.558175098070853082e+01
8.480473514031239279e-02 1.514784845232194144e+01
8.584528403697777588e-02 1.588178404266538024e+01
8.688583293364315896e-02 1.705895294752186686e+01
8.792638183030854204e-02 1.882708498242164197e+01
8.896693072697392513e-02 2.106814638568346254e+01
9.000747962363930821e-02 2.484479333852475591e+01
9.104802852030469129e-02 3.210837164745771588e+01
9.208857741697007437e-02 4.269964161321094309e+01
9.312912631363545746e-02 5.438861580260867612e+01
9.416967521030084054e-02 6.233379045525859397e+01
9.521022410696622362e-02 6.478119995121068087e+01
9.625077300363160671e-02 6.590413093985924320e+01
9.729132190029698979e-02 6.554597452180652795e+01
9.833187079696237287e-02 6.337684585763379630e+01
9.937241969362775595e-02 5.959347068005962456e+01
1.004129685902931390e-01 5.633311613580923449e+01
1.014535174869585221e-01 5.385563787345073905e+01
1.024940663836239052e-01 5.199599888238986267e+01
1.035346152802892883e-01 5.045711009769073740e+01
1.045751641769546714e-01 5.030740520995446730e+01
1.056157130736200545e-01 5.202035652229184848e+01
1.066562619702854375e-01 5.501489578691013094e+01
1.076968108669508206e-01 6.186897189326931112e+01
1.087373597636162037e-01 7.024478957382436306e+01
1.097779086602815868e-01 7.512366642422790619e+01
1.108184575569469699e-01 7.610841087030742358e+01
1.118590064536123529e-01 7.434435392696427414e+01
1.128995553502777360e-01 7.189919326673307864e+01
1.139401042469431191e-01 6.847850210435619545e+01
1.149806531436085022e-01 6.274318759108362542e+01
1.160212020402738853e-01 5.571145872298963297e+01
1.170617509369392684e-01 4.908402044488853022e+01
1.181022998336046514e-01 4.286562568316679034e+01
1.191428487302700345e-01 3.729645818898494980e+01
1.201833976269354176e-01 3.218400822446584897e+01
1.212239465236008007e-01 2.735427579065478554e+01
1.222644954202661838e-01 2.288498868574595591e+01
1.233050443169315669e-01 1.929067697294502537e+01
1.243455932135969499e-01 1.649736434293133414e+01
1.253861421102623330e-01 1.398468854114969773e+01
1.264266910069277161e-01 1.202662956332453703e+01
1.274672399035930992e-01 1.048851825733127185e+01
1.285077888002584823e-01 8.696098356576804633e+00
1.295483376969238654e-01 7.714690125747832639e+00
1.305888865935892484e-01 7.183283228869878911e+00
1.316294354902546315e-01 6.435083340344718295e+00
1.326699843869200146e-01 6.332880265881584592e+00
1.337105332835853977e-01 6.092964204466735367e+00
1.347510821802507808e-01 5.714639777491221651e+00
1.357916310769161639e-01 5.116629666247440866e+00
1.368321799735815469e-01 5.201646659900081460e+00
1.378727288702469300e-01 5.584426514304396960e+00
1.389132777669123131e-01 5.975126423244507379e+00
1.399538266635776962e-01 6.189731460869765556e+00
1.409943755602430793e-01 6.566736782103468784e+00
1.420349244569084624e-01 7.310011451611138966e+00
1.430754733535738454e-01 8.099614362512642884e+00
1.441160222502392285e-01 9.934342263371348736e+00
1.451565711469046116e-01 1.160353557214005704e+01
1.461971200435699947e-01 1.255254080428722574e+01
1.472376689402353778e-01 1.322071419175325246e+01
1.482782178369007609e-01 1.384379848811864733e+01
1.493187667335661439e-01 1.330558562154938684e+01
1.503593156302315270e-01 1.280389265631013274e+01
1.513998645268969101e-01 1.207201639639074031e+01
1.524404134235622932e-01 1.174383064617210337e+01
1.534809623202276763e-01 1.194366569219543806e+01
1.545215112168930593e-01 1.141914531745651828e+01
1.555620601135584424e-01 1.070427003530392795e+01
1.566026090102238255e-01 1.008081271878062068e+01
1.576431579068892086e-01 9.765140744617237800e+00
1.586837068035545917e-01 9.884162212136406112e+00
1.597242557002199748e-01 9.965963645275440541e+00
1.607648045968853578e-01 9.835622659060739181e+00
1.618053534935507409e-01 9.527550309138071327e+00
1.628459023902161240e-01 9.441868365914441341e+00
1.638864512868815071e-01 9.565747321806707504e+00
1.649270001835468902e-01 9.211365901993239902e+00
1.659675490802122733e-01 8.729357100191172947e+00
1.670080979768776563e-01 8.505152560551735519e+00
1.680486468735430672e-01 8.058919022251700426e+00
1.690891957702084503e-01 7.800522556425637077e+00
1.701297446668738333e-01 8.020141979950391686e+00
1.711702935635392164e-01 7.791200395428024450e+00
1.722108424602045995e-01 7.257539139736483236e+00
1.732513913568699826e-01 6.720194351260090571e+00
1.742919402535353657e-01 6.295216858892963785e+00
1.753324891502007488e-01 5.988712300570771419e+00
1.763730380468661318e-01 5.821001266728440982e+00
1.774135869435315149e-01 5.275042666009102987e+00
1.784541358401968980e-01 4.972759330175929193e+00
1.794946847368622811e-01 4.578962261318448412e+00
1.805352336335276642e-01 4.484067270293152774e+00
1.815757825301930473e-01 4.271843519630110109e+00
1.826163314268584303e-01 4.117141384573333340e+00
1.836568803235238134e-01 3.417030548072471419e+00
1.846974292201891965e-01 3.265048559470656642e+00
1.857379781168545796e-01 3.251132672998156892e+00
1.867785270135199627e-01 3.329595344835773574e+00
1.878190759101853458e-01 3.087832816697318350e+00
1.888596248068507288e-01 2.926767302425872685e+00
1.899001737035161119e-01 3.082363662430239515e+00
1.909407226001814950e-01 3.458493185595045816e+00
1.919812714968468781e-01 3.338630413102777084e+00
1.930218203935122612e-01 3.299397207496252094e+00
1.940623692901776443e-01 3.424872583774220658e+00
1.951029181868430273e-01 3.618727800895918278e+00
1.961434670835084104e-01 3.812535021704782423e+00
1.971840159801737935e-01 3.843644036131824038e+00
1.982245648768391766e-01 3.611101300000999714e+00
1.992651137735045597e-01 4.070834059195963306e+00
2.003056626701699428e-01 4.093777034991688879e+00
2.013462115668353813e-01 3.546393429091612148e+00
2.023867604635007644e-01 3.513314832264548215e+00
2.034273093601661475e-01 3.530785370157904168e+00
2.044678582568315306e-01 3.448816048650371613e+00
2.055084071534969137e-01 3.607555178245974048e+00
2.065489560501622968e-01 3.482153753974813526e+00
2.075895049468276798e-01 3.385978379064344068e+00
2.086300538434930629e-01 3.285716514564740010e+00
2.096706027401584460e-01 3.106166678206978560e+00
2.107111516368238291e-01 3.178870922665726795e+00
2.117517005334892122e-01 3.627358560314863922e+00
2.127922494301545953e-01 3.555306215327071584e+00
2.138327983268199783e-01 3.507780307428138400e+00
2.148733472234853614e-01 3.485111506024331618e+00
2.159138961201507445e-01 3.889503509609642862e+00
2.169544450168161276e-01 3.795768057944954421e+00
2.179949939134815107e-01 3.512928019174566430e+00
2.190355428101468938e-01 3.439199276269317096e+00
2.200760917068122768e-01 3.344773074317092920e+00
2.211166406034776599e-01 3.375009479169381876e+00
2.221571895001430430e-01 3.219580408501911961e+00
2.231977383968084261e-01 3.208536966665420209e+00
2.242382872934738092e-01 3.088789084364307769e+00
2.252788361901391923e-01 2.921807910295122213e+00
2.263193850868045753e-01 2.671144825871593298e+00
2.273599339834699584e-01 2.590506208450417347e+00
2.284004828801353415e-01 2.414470030273690782e+00
2.294410317768007246e-01 2.509673213845765360e+00
2.304815806734661077e-01 2.187555509356084116e+00
2.315221295701314908e-01 2.330215375927316757e+00
2.325626784667968738e-01 2.330027907285380451e+00
2.336032273634622569e-01 2.220646330624660436e+00
2.346437762601276400e-01 2.177910611624373161e+00
2.356843251567930231e-01 2.295757309171094107e+00
2.367248740534584062e-01 2.333970190994566707e+00
2.377654229501237892e-01 2.091231642027576498e+00
2.388059718467891723e-01 1.820494495341481667e+00
2.398465207434545554e-01 1.970926291129757146e+00
2.408870696401199385e-01 2.224523446510524138e+00
2.419276185367853216e-01 2.121033257156888396e+00
2.429681674334507047e-01 1.911678495836717673e+00
2.440087163301160877e-01 1.874726995213052305e+00
2.450492652267814708e-01 1.925210414569168194e+00
2.460898141234468539e-01 2.101583290644526869e+00
2.471303630201122370e-01 2.195600232744045144e+00
2.481709119167776201e-01 2.071360266753085710e+00
2.492114608134430032e-01 2.023134634130766329e+00
2.502520097101083585e-01 1.966965847936240408e+00
2.512925586067737416e-01 2.188222107933256666e+00
2.523331075034391247e-01 2.279101146121146115e+00
2.533736564001045077e-01 2.242517482946364993e+00
2.544142052967698908e-01 1.978915540302537579e+00
2.554547541934352739e-01 1.681886657000198682e+00
2.564953030901006570e-01 1.783842331182587060e+00
2.575358519867660401e-01 2.009572170498287846e+00
2.585764008834314231e-01 2.086339629224880809e+00
2.596169497800968062e-01 2.199192221862801944e+00
2.606574986767621893e-01 2.119574380346893605e+00
2.616980475734275724e-01 2.189577239662565233e+00
2.627385964700929555e-01 2.048845370015534684e+00
2.637791453667583386e-01 1.934738494453888791e+00
2.648196942634237216e-01 1.798305360496847527e+00
2.658602431600891047e-01 1.666642205186786185e+00
2.669007920567544878e-01 1.646431217013407888e+00
2.679413409534198709e-01 1.531569099880613294e+00
2.689818898500852540e-01 1.602978008981203573e+00
2.700224387467506371e-01 1.924491959722772094e+00
2.710629876434160201e-01 1.935276305606556946e+00
2.721035365400814032e-01 1.754112494060787952e+00
2.731440854367467863e-01 1.799650510375482071e+00
2.741846343334121694e-01 1.692237963816129565e+00
2.752251832300775525e-01 1.735908972472994805e+00
2.762657321267429356e-01 1.786216372867468039e+00
2.773062810234083186e-01 1.714626061584088035e+00
2.783468299200737017e-01 1.723063373403082466e+00
2.793873788167390848e-01 1.723355431173207108e+00
2.804279277134044679e-01 1.695096332076047929e+00
2.814684766100698510e-01 1.733475544389019518e+00
2.825090255067352341e-01 1.678028178280410287e+00
2.835495744034006171e-01 1.585017219049298376e+00
2.845901233000660002e-01 1.320491400320026543e+00
2.856306721967313833e-01 1.589667500058656202e+00
2.866712210933967664e-01 1.739855935405621779e+00
2.877117699900621495e-01 1.600635513336779781e+00
2.887523188867275326e-01 1.438697569023904776e+00
2.897928677833929156e-01 1.462563743628450652e+00
2.908334166800582987e-01 1.445347383511872863e+00
2.918739655767236818e-01 1.522550834075332205e+00
2.929145144733890649e-01 1.442982945968886099e+00
2.939550633700544480e-01 1.475393726783295278e+00
2.949956122667198311e-01 1.542959339060189450e+00
2.960361611633852141e-01 1.468714717625690724e+00
2.970767100600505972e-01 1.495999287067270700e+00
2.981172589567159803e-01 1.478951536426666991e+00
2.991578078533813634e-01 1.522441508375802499e+00
3.001983567500468020e-01 1.548762019184231065e+00
3.012389056467121851e-01 1.421945197575176678e+00
3.022794545433775681e-01 1.296280811760858853e+00
3.033200034400429512e-01 1.376447784685055353e+00
3.043605523367083343e-01 1.241102699261464437e+00
3.054011012333737174e-01 1.286184632684538087e+00
3.064416501300391005e-01 1.285145808612991658e+00
3.074821990267044836e-01 1.345839547587857510e+00
3.085227479233698666e-01 1.313490569817748366e+00
3.095632968200352497e-01 1.320669052547820854e+00
3.106038457167006328e-01 1.287706216813191418e+00
3.116443946133660159e-01 1.449134865065140332e+00
3.126849435100313990e-01 1.512264046448052568e+00
3.137254924066967821e-01 1.407386513297122832e+00
3.147660413033621651e-01 1.265586713721244649e+00
3.158065902000275482e-01 9.740791117341025540e-01
3.168471390966929313e-01 1.153923938486435929e+00
3.178876879933583144e-01 1.196927935295938994e+00
3.189282368900236975e-01 1.223877743852867184e+00
3.199687857866890806e-01 1.267222257459341250e+00
3.210093346833544636e-01 1.219276116740896754e+00
3.220498835800198467e-01 1.322004097603763029e+00
3.230904324766852298e-01 1.263774009717604230e+00
3.241309813733506129e-01 1.247325372678247390e+00
3.251715302700159960e-01 1.166017717065574999e+00
3.262120791666813790e-01 1.162300656345490069e+00
3.272526280633467621e-01 1.088593552637512119e+00
3.282931769600121452e-01 1.238575383400917218e+00
3.293337258566775283e-01 1.312798340963855281e+00
3.303742747533429114e-01 1.303308665667497479e+00
3.314148236500082945e-01 1.316698371604005047e+00
3.324553725466736775e-01 1.224299071515506654e+00
3.334959214433390606e-01 1.006512682688857296e+00
3.345364703400044437e-01 1.018409372330403073e+00
3.355770192366698268e-01 8.753095444013929693e-01
3.366175681333352099e-01 9.049149708167902872e-01
3.376581170300005930e-01 8.400358733271815481e-01
3.386986659266659760e-01 1.062159460898726593e+00
3.397392148233313591e-01 1.026935812002452764e+00
3.407797637199967422e-01 1.250261461796593920e+00
3.418203126166621253e-01 1.276453714467880474e+00
3.428608615133275084e-01 1.132620394297017441e+00
3.439014104099928915e-01 9.070563377461091648e-01
3.449419593066582745e-01 8.424344325383721355e-01
3.459825082033236576e-01 7.790929116771572183e-01
3.470230570999890407e-01 8.697434361728682006e-01
3.480636059966544238e-01 9.267524905148043501e-01
3.491041548933198069e-01 1.038611298406234340e+00
3.501447037899851900e-01 8.898147854211337915e-01
3.511852526866505730e-01 9.430166111600328804e-01
3.522258015833159561e-01 9.154092966829203704e-01
3.532663504799813392e-01 9.334472259297541541e-01
3.543068993766467223e-01 1.014586244859554398e+00
3.553474482733121054e-01 9.321251087952049375e-01
3.563879971699774885e-01 9.239801226694233094e-01
3.574285460666428715e-01 9.699075179068259445e-01
3.584690949633082546e-01 8.149716006304679183e-01
3.595096438599736377e-01 7.200785275809877817e-01
3.605501927566390208e-01 6.601860154178709195e-01
3.615907416533044039e-01 8.029958821332705554e-01
3.626312905499697870e-01 1.071447249148093306e+00
3.636718394466351700e-01 9.816271073116702439e-01
3.647123883433005531e-01 9.169346168467100711e-01
3.657529372399659362e-01 7.928283516454399660e-01
3.667934861366313193e-01 7.941278195345802260e-01
3.678340350332967024e-01 7.815373913812244666e-01
3.688745839299620854e-01 7.915493898483347834e-01
3.699151328266274685e-01 6.801563527232374895e-01
3.709556817232928516e-01 7.323390654672863320e-01
3.719962306199582347e-01 5.589054770573085307e-01
3.730367795166236178e-01 7.401369846883731896e-01
3.740773284132890009e-01 8.242194026288771624e-01
3.751178773099543839e-01 8.772876915584681967e-01
3.761584262066197670e-01 7.872233889878614832e-01
3.771989751032851501e-01 5.768956385390993091e-01
3.782395239999505332e-01 8.228020646025910878e-01
3.792800728966159163e-01 7.048980129092150548e-01
3.803206217932812994e-01 4.503914659301351264e-01
3.813611706899466824e-01 5.417756238348125919e-01
3.824017195866120655e-01 8.531575129489574749e-01
3.834422684832774486e-01 8.830046712794796804e-01
3.844828173799428317e-01 6.935534350689884775e-01
3.855233662766082148e-01 5.561697205479596562e-01
3.865639151732735979e-01 6.280401464088605223e-01
3.876044640699389809e-01 6.852101675098118960e-01
3.886450129666043640e-01 7.547180495286802682e-01
3.896855618632697471e-01 7.057049420570962184e-01
3.907261107599351302e-01 5.913111822034444742e-01
3.917666596566005133e-01 6.458539884826990374e-01
3.928072085532658964e-01 8.016208812728677913e-01
3.938477574499312794e-01 7.090962304496386537e-01
3.948883063465966625e-01 7.106984153069682009e-01
3.959288552432620456e-01 6.609950089154530417e-01
3.969694041399274287e-01 5.288613614831518817e-01
3.980099530365928118e-01 5.529742735151970123e-01
3.990505019332581949e-01 6.124289550809614013e-01
4.000910508299235779e-01 6.227040028890193923e-01
4.011315997265889610e-01 6.706326394084740627e-01
4.021721486232543441e-01 3.810759639634540008e-01
4.032126975199197272e-01 4.256849207800854629e-01
4.042532464165851103e-01 5.015764906249451371e-01
4.052937953132504934e-01 5.281865908819014521e-01
4.063343442099158764e-01 4.713456587106499285e-01
4.073748931065812595e-01 5.185172575399086270e-01
4.084154420032466426e-01 5.436293459628132041e-01
4.094559908999120257e-01 5.248695014846873619e-01
4.104965397965774088e-01 6.000688222923038495e-01
4.115370886932427918e-01 3.956115211496609163e-01
4.125776375899081749e-01 5.192598901597129668e-01
4.136181864865735580e-01 6.964112516011482512e-01
4.146587353832389411e-01 5.484188622594921014e-01
4.156992842799043242e-01 5.022568942583482965e-01
4.167398331765697073e-01 4.258191069432797349e-01
4.177803820732350903e-01 2.599362248381993368e-01
4.188209309699004734e-01 2.575291983157654840e-01
4.198614798665658565e-01 3.572356505302565211e-01
4.209020287632312396e-01 5.780113972620739560e-01
4.219425776598966227e-01 7.442798960800693919e-01
4.229831265565620058e-01 5.568638189286367890e-01
4.240236754532273888e-01 5.430061175966542919e-01
4.250642243498927719e-01 5.473994252803784377e-01
4.261047732465581550e-01 4.867171601157416205e-01
4.271453221432235381e-01 5.310204853721955942e-01
4.281858710398889212e-01 5.562919724561972146e-01
4.292264199365543043e-01 5.682221649858014700e-01
4.302669688332196873e-01 3.815115758045770633e-01
4.313075177298850704e-01 3.988772011386885197e-01
4.323480666265504535e-01 4.233146496717452578e-01
4.333886155232158366e-01 3.692318880037142037e-01
4.344291644198812197e-01 3.620822661660625386e-01
