# q (1/Angstrom), Intensity (arb)
2.029070354705860696e-02 2.578514788509669415e+02
2.133125244372399004e-02 2.236859965353669963e+02
2.237180134038937659e-02 2.003703437437505954e+02
2.341235023705475968e-02 1.827048635753248789e+02
2.445289913372014276e-02 1.676952998159860897e+02
2.549344803038552584e-02 1.543972558984366401e+02
2.653399692705091240e-02 1.422662911735289413e+02
2.757454582371629548e-02 1.345037731130998964e+02
2.861509472038167856e-02 1.247931027199871608e+02
2.965564361704706164e-02 1.169453996337289539e+02
3.069619251371244473e-02 1.117250399715575071e+02
3.173674141037782781e-02 1.086732871902241016e+02
3.277729030704321089e-02 1.059213002708787315e+02
3.381783920370859398e-02 1.022857171845826656e+02
3.485838810037397706e-02 1.000477657157066886e+02
3.589893699703936014e-02 9.842109234256452055e+01
3.693948589370474322e-02 9.756718544727141307e+01
3.798003479037012631e-02 9.793963369810614950e+01
3.902058368703550939e-02 1.003867489301739511e+02
4.006113258370089247e-02 1.013174507342724553e+02
4.110168148036627556e-02 1.025741419431210488e+02
4.214223037703165864e-02 1.058241396823248692e+02
4.318277927369704866e-02 1.090223533526263537e+02
4.422332817036243174e-02 1.130648246691407479e+02
4.526387706702781483e-02 1.210493502915971931e+02
4.630442596369319791e-02 1.308348760461421136e+02
4.734497486035858099e-02 1.425297682593475201e+02
4.838552375702396408e-02 1.578484136770480291e+02
4.942607265368934716e-02 1.773056769115872555e+02
5.046662155035473024e-02 2.079730005272802771e+02
5.150717044702011332e-02 2.548645802547160315e+02
5.254771934368549641e-02 3.330914058990857711e+02
5.358826824035087949e-02 4.682855165336978871e+02
5.462881713701626257e-02 6.678073869962897788e+02
5.566936603368164566e-02 9.410180092874390994e+02
5.670991493034702874e-02 1.257950348100555175e+03
5.775046382701241182e-02 1.470305781222776204e+03
5.879101272367779490e-02 1.487621143708723821e+03
5.983156162034317799e-02 1.364438672479362367e+03
6.087211051700856107e-02 1.173968403773588989e+03
6.191265941367394415e-02 9.667308211749683551e+02
6.295320831033933417e-02 7.794645084173008627e+02
6.399375720700471726e-02 6.237764088483205569e+02
6.503430610367010034e-02 5.017739082250384399e+02
6.607485500033548342e-02 4.010585262734527987e+02
6.711540389700086651e-02 3.196751069251095032e+02
6.815595279366624959e-02 2.496324702384378327e+02
6.919650169033163267e-02 1.921473918281931788e+02
7.023705058699701576e-02 1.462107071684205550e+02
7.127759948366239884e-02 1.093410123470253836e+02
7.231814838032778192e-02 8.188643371581233055e+01
7.335869727699316500e-02 6.206864472000762589e+01
7.439924617365854809e-02 4.765564423265524141e+01
7.543979507032393117e-02 3.807178406327433606e+01
7.648034396698931425e-02 3.016043700818618944e+01
7.752089286365469734e-02 2.470772091049719421e+01
7.856144176032008042e-02 2.134419731249659691e+01
7.960199065698546350e-02 1.904681400378604650e+01
8.064253955365084658e-02 1.724338061404322175e+01
8.168308845031622967e-02 1.623766674732063109e+01
8.272363734698161275e-02 1.550287223369189604e+01
8.376418624364699583e-02 1.516150885198428355e+01
8.480473514031239279e-02 1.572098754689643130e+01
8.584528403697777588e-02 1.626694831358300775e+01
8.688583293364315896e-02 1.734807606814388947e+01
8.792638183030854204e-02 1.901684399029517536e+01
8.896693072697392513e-02 2.160294818799026473e+01
9.000747962363930821e-02 2.617140278442031942e+01
9.104802852030469129e-02 3.303846339784022490e+01
9.208857741697007437e-02 4.355663770036181859e+01
9.312912631363545746e-02 5.523410249459859500e+01
9.416967521030084054e-02 6.281677618068489721e+01
9.521022410696622362e-02 6.529092267390173276e+01
9.625077300363160671e-02 6.672048605751746209e+01
9.729132190029698979e-02 6.610057491424230136e+01
9.833187079696237287e-02 6.357508530019368465e+01
9.937241969362775595e-02 6.035421866914930433e+01
1.004129685902931390e-01 5.730411365438608584e+01
1.014535174869585221e-01 5.390169200930998272e+01
1.024940663836239052e-01 5.155775178960443839e+01
1.035346152802892883e-01 5.065711537210903259e+01
1.045751641769546714e-01 5.065593616563026558e+01
1.056157130736200545e-01 5.193381818180496623e+01
1.066562619702854375e-01 5.486890625878112360e+01
1.076968108669508206e-01 6.158161135501610772e+01
1.087373597636162037e-01 6.967560667706163713e+01
1.097779086602815868e-01 7.527051315574590262e+01
1.108184575569469699e-01 7.595489695588230461e+01
1.118590064536123529e-01 7.381629573805560085e+01
1.128995553502777360e-01 7.128322998124647825e+01
1.139401042469431191e-01 6.787260316880028199e+01
1.149806531436085022e-01 6.302057562815006264e+01
1.160212020402738853e-01 5.614941652873972089e+01
1.170617509369392684e-01 4.949669921237622816e+01
1.181022998336046514e-01 4.334822526206539806e+01
1.191428487302700345e-01 3.750754219943975443e+01
1.201833976269354176e-01 3.210778977409798074e+01
1.212239465236008007e-01 2.734309991865925582e+01
1.222644954202661838e-01 2.316982683868926784e+01
1.233050443169315669e-01 1.989428053125185514e+01
1.243455932135969499e-01 1.651807579584994912e+01
1.253861421102623330e-01 1.384859558533568347e+01
1.264266910069277161e-01 1.202754265747016760e+01
1.274672399035930992e-01 1.092153532167239760e+01
1.285077888002584823e-01 9.464736441217066698e+00
1.295483376969238654e-01 8.378437958727165125e+00
1.305888865935892484e-01 7.173833178708605374e+00
1.316294354902546315e-01 6.474403603009150743e+00
1.326699843869200146e-01 5.993020978772186425e+00
1.337105332835853977e-01 5.699695487361577051e+00
1.347510821802507808e-01 5.556836120154883929e+00
1.357916310769161639e-01 5.136165807343640921e+00
1.368321799735815469e-01 5.056654467517731177e+00
1.378727288702469300e-01 5.386274263033207887e+00
1.389132777669123131e-01 5.857261624697191138e+00
1.399538266635776962e-01 6.321826586644053947e+00
1.409943755602430793e-01 6.774758923315740589e+00
1.420349244569084624e-01 7.842120335000313247e+00
1.430754733535738454e-01 8.930287988472827010e+00
1.441160222502392285e-01 1.025031769141724780e+01
1.451565711469046116e-01 1.141285862816627983e+01
1.461971200435699947e-01 1.270210596228284672e+01
1.472376689402353778e-01 1.359886946145065423e+01
1.482782178369007609e-01 1.383447917052548348e+01
1.493187667335661439e-01 1.378903116713058452e+01
1.503593156302315270e-01 1.310178068563338982e+01
1.513998645268969101e-01 1.266802534850323525e+01
1.524404134235622932e-01 1.234801558766997687e+01
1.534809623202276763e-01 1.186091538472185647e+01
1.545215112168930593e-01 1.130465292342033123e+01
1.555620601135584424e-01 1.065276481879002191e+01
1.566026090102238255e-01 1.042365881168034747e+01
1.576431579068892086e-01 1.031036192340476632e+01
1.586837068035545917e-01 1.004068390598504479e+01
1.597242557002199748e-01 1.000406662482822284e+01
1.607648045968853578e-01 9.977599933381711139e+00
1.618053534935507409e-01 9.806792004794576911e+00
1.628459023902161240e-01 9.917859147657619445e+00
1.638864512868815071e-01 9.661696345688177701e+00
1.649270001835468902e-01 9.415132603358994601e+00
1.659675490802122733e-01 8.959525501770546185e+00
1.670080979768776563e-01 8.546691300021397097e+00
1.680486468735430672e-01 8.102117731056086569e+00
1.690891957702084503e-01 7.729159367446854390e+00
1.701297446668738333e-01 7.571613148374527924e+00
1.711702935635392164e-01 7.429180632349289937e+00
1.722108424602045995e-01 7.457737698145859184e+00
1.732513913568699826e-01 7.159686787432281818e+00
1.742919402535353657e-01 6.318979249775523499e+00
1.753324891502007488e-01 5.982486569171626911e+00
1.763730380468661318e-01 5.872105765161265367e+00
1.774135869435315149e-01 5.708498524995466283e+00
1.784541358401968980e-01 5.434769448687308824e+00
1.794946847368622811e-01 4.940247600585319532e+00
1.805352336335276642e-01 4.411692878680369745e+00
1.815757825301930473e-01 4.264868010088175510e+00
1.826163314268584303e-01 3.923893539066849456e+00
1.836568803235238134e-01 3.948614122043665020e+00
1.846974292201891965e-01 3.727963352156496768e+00
1.857379781168545796e-01 3.575249275378631353e+00
1.867785270135199627e-01 3.556420162364801740e+00
1.878190759101853458e-01 3.457081900723768086e+00
1.888596248068507288e-01 3.483864727213976664e+00
1.899001737035161119e-01 3.508686555228763382e+00
1.909407226001814950e-01 3.527463944063779167e+00
1.919812714968468781e-01 3.653328436448688876e+00
1.930218203935122612e-01 3.443788158318884740e+00
1.940623692901776443e-01 3.653454138195719736e+00
1.951029181868430273e-01 3.711032289769427450e+00
1.961434670835084104e-01 3.756357968344385512e+00
1.971840159801737935e-01 3.833668229252673143e+00
1.982245648768391766e-01 3.990904721923378418e+00
1.992651137735045597e-01 3.635365608262130621e+00
2.003056626701699428e-01 3.909405935247480812e+00
2.013462115668353813e-01 4.047463900253543301e+00
2.023867604635007644e-01 3.854015161286501012e+00
2.034273093601661475e-01 4.061160427849866750e+00
2.044678582568315306e-01 3.838273078764736113e+00
2.055084071534969137e-01 3.486368630139516256e+00
2.065489560501622968e-01 3.463481384139509345e+00
2.075895049468276798e-01 3.891485868387906777e+00
2.086300538434930629e-01 3.748293806572007725e+00
2.096706027401584460e-01 3.621779970876129795e+00
2.107111516368238291e-01 3.873574586207094939e+00
2.117517005334892122e-01 3.888228333488285671e+00
2.127922494301545953e-01 3.542029566112475436e+00
2.138327983268199783e-01 3.451903142275291714e+00
2.148733472234853614e-01 3.714315600228239589e+00
2.159138961201507445e-01 3.609285741022048910e+00
2.169544450168161276e-01 3.590851733311595240e+00
2.179949939134815107e-01 3.391457680767267391e+00
2.190355428101468938e-01 3.405274867723555587e+00
2.200760917068122768e-01 3.383425206756417225e+00
2.211166406034776599e-01 3.245562014096794456e+00
2.221571895001430430e-01 2.990458242317135529e+00
2.231977383968084261e-01 2.976829470435639280e+00
2.242382872934738092e-01 3.168586420178424845e+00
2.252788361901391923e-01 3.272546307101620755e+00
2.263193850868045753e-01 3.171609406851480628e+00
2.273599339834699584e-01 2.999172050218408714e+00
2.284004828801353415e-01 2.826729877320040885e+00
2.294410317768007246e-01 2.543689648463253405e+00
2.304815806734661077e-01 2.590788935331591603e+00
2.315221295701314908e-01 2.611860368345190864e+00
2.325626784667968738e-01 2.309314932691236777e+00
2.336032273634622569e-01 2.246281984266445875e+00
2.346437762601276400e-01 2.451352376278279621e+00
2.356843251567930231e-01 2.711919908037931037e+00
2.367248740534584062e-01 2.298310888037072175e+00
2.377654229501237892e-01 2.414675146819750040e+00
2.388059718467891723e-01 2.441964089841786034e+00
2.398465207434545554e-01 2.308748292131319602e+00
2.408870696401199385e-01 2.398963782830072944e+00
2.419276185367853216e-01 2.361384784297559492e+00
2.429681674334507047e-01 2.416419239191185397e+00
2.440087163301160877e-01 2.438394404099486934e+00
2.450492652267814708e-01 2.227104621982952892e+00
2.460898141234468539e-01 2.146840223610581688e+00
2.471303630201122370e-01 1.979953493391093389e+00
2.481709119167776201e-01 2.048886780069313573e+00
2.492114608134430032e-01 2.281512526741334312e+00
2.502520097101083585e-01 2.109883685318020952e+00
2.512925586067737416e-01 2.192018340116018038e+00
2.523331075034391247e-01 2.396250684528670405e+00
2.533736564001045077e-01 2.607804375844580136e+00
2.544142052967698908e-01 2.330402600389348322e+00
2.554547541934352739e-01 2.285381402072591328e+00
2.564953030901006570e-01 2.300517862891123144e+00
2.575358519867660401e-01 2.264653366481628183e+00
2.585764008834314231e-01 2.203736695733766737e+00
2.596169497800968062e-01 2.306275781722149532e+00
2.606574986767621893e-01 2.167379933435956474e+00
2.616980475734275724e-01 2.076544156713413969e+00
2.627385964700929555e-01 2.045204310543116577e+00
2.637791453667583386e-01 1.990570817877799215e+00
2.648196942634237216e-01 2.170332901499641309e+00
2.658602431600891047e-01 2.243766006510913513e+00
2.669007920567544878e-01 2.154820025868808386e+00
2.679413409534198709e-01 1.806509812771587065e+00
2.689818898500852540e-01 1.740982454090826081e+00
2.700224387467506371e-01 2.012006888137104710e+00
2.710629876434160201e-01 2.105201069495880262e+00
2.721035365400814032e-01 1.932597536459134346e+00
2.731440854367467863e-01 2.096323860988093202e+00
2.741846343334121694e-01 2.146645338655485347e+00
2.752251832300775525e-01 1.981130356515183877e+00
2.762657321267429356e-01 1.756122229348058283e+00
2.773062810234083186e-01 1.833356179922510876e+00
2.783468299200737017e-01 1.918501977219698063e+00
2.793873788167390848e-01 1.874944329670061194e+00
2.804279277134044679e-01 1.909050757387234398e+00
2.814684766100698510e-01 1.705351357978791782e+00
2.825090255067352341e-01 1.765624381343663174e+00
2.835495744034006171e-01 1.629338222447731965e+00
2.845901233000660002e-01 1.557735854247788154e+00
2.856306721967313833e-01 1.554326589822927929e+00
2.866712210933967664e-01 1.736335192625251267e+00
2.877117699900621495e-01 1.941464503508239403e+00
2.887523188867275326e-01 1.878839335844265435e+00
2.897928677833929156e-01 1.538681430543288542e+00
2.908334166800582987e-01 1.489567567227858547e+00
2.918739655767236818e-01 1.659951941363775774e+00
2.929145144733890649e-01 1.295110968514471494e+00
2.939550633700544480e-01 1.367450279677026259e+00
2.949956122667198311e-01 1.529520200354657078e+00
2.960361611633852141e-01 1.650430339021411896e+00
2.970767100600505972e-01 1.646249499969240304e+00
2.981172589567159803e-01 1.631607635518513177e+00
2.991578078533813634e-01 1.601822757178489098e+00
3.001983567500468020e-01 1.683999713434619849e+00
3.012389056467121851e-01 1.546295808003574024e+00
3.022794545433775681e-01 1.526692400660135007e+00
3.033200034400429512e-01 1.628329587869870920e+00
3.043605523367083343e-01 1.582381057731506502e+00
3.054011012333737174e-01 1.747923084639225522e+00
3.064416501300391005e-01 1.651054298638168660e+00
3.074821990267044836e-01 1.222386508333713095e+00
3.085227479233698666e-01 1.456178942738034721e+00
3.095632968200352497e-01 1.452029350002529640e+00
3.106038457167006328e-01 1.344604218403297580e+00
3.116443946133660159e-01 1.446905638567244523e+00
3.126849435100313990e-01 1.492402764498766743e+00
3.137254924066967821e-01 1.403779068814184683e+00
3.147660413033621651e-01 1.535168798480796681e+00
3.158065902000275482e-01 1.305482373771756244e+00
3.168471390966929313e-01 1.198677120755679226e+00
3.178876879933583144e-01 1.264953535992169975e+00
3.189282368900236975e-01 1.396922753894127567e+00
3.199687857866890806e-01 1.268024429168089995e+00
3.210093346833544636e-01 1.374944067891050281e+00
3.220498835800198467e-01 1.414252263979683732e+00
3.230904324766852298e-01 1.338408534976423425e+00
3.241309813733506129e-01 1.327792209175253646e+00
3.251715302700159960e-01 1.284335259957146036e+00
3.262120791666813790e-01 1.443197740475309132e+00
3.272526280633467621e-01 1.536784755283893134e+00
3.282931769600121452e-01 1.233485213151126914e+00
3.293337258566775283e-01 1.018414921875521628e+00
3.303742747533429114e-01 9.780459849977098941e-01
3.314148236500082945e-01 1.047613434462295601e+00
3.324553725466736775e-01 1.131257920689645147e+00
3.334959214433390606e-01 1.207830200866222725e+00
3.345364703400044437e-01 1.268984131575376040e+00
3.355770192366698268e-01 1.190130900207172715e+00
3.366175681333352099e-01 1.085561159695064504e+00
3.376581170300005930e-01 1.038413256253086558e+00
3.386986659266659760e-01 1.349987805322232504e+00
3.397392148233313591e-01 1.328106472977488295e+00
3.407797637199967422e-01 1.251368101057519056e+00
3.418203126166621253e-01 1.202410954347122640e+00
3.428608615133275084e-01 1.238474596254398818e+00
3.439014104099928915e-01 1.144197627805827011e+00
3.449419593066582745e-01 1.089226676586548592e+00
3.459825082033236576e-01 8.126272259390496799e-01
3.470230570999890407e-01 9.850202282834708001e-01
3.480636059966544238e-01 9.839352320093865956e-01
3.491041548933198069e-01 8.236775920904939596e-01
3.501447037899851900e-01 9.719149209249948740e-01
3.511852526866505730e-01 8.342228612476034755e-01
3.522258015833159561e-01 8.220054031640593450e-01
3.532663504799813392e-01 9.835995732655433699e-01
3.543068993766467223e-01 1.141991636211539429e+00
3.553474482733121054e-01 9.507827771175847431e-01
3.563879971699774885e-01 9.566162865646745672e-01
3.574285460666428715e-01 1.061849443122294900e+00
3.584690949633082546e-01 9.885577607860156490e-01
3.595096438599736377e-01 9.739552241079820760e-01
3.605501927566390208e-01 9.365686627007576703e-01
3.615907416533044039e-01 8.761387237801940842e-01
3.626312905499697870e-01 6.023464350201521711e-01
3.636718394466351700e-01 8.148125421251641853e-01
3.647123883433005531e-01 9.070119555053999250e-01
3.657529372399659362e-01 8.343484435402253041e-01
3.667934861366313193e-01 8.417037328916521233e-01
3.678340350332967024e-01 8.532858803386851321e-01
3.688745839299620854e-01 8.457382018014847347e-01
3.699151328266274685e-01 9.372111717065934045e-01
3.709556817232928516e-01 8.861739002693660439e-01
3.719962306199582347e-01 7.469694010318654875e-01
3.730367795166236178e-01 8.655657594628465290e-01
3.740773284132890009e-01 8.200075484161750694e-01
3.751178773099543839e-01 9.220538809703526795e-01
3.761584262066197670e-01 8.941945861084761304e-01
3.771989751032851501e-01 9.434726203218382068e-01
3.782395239999505332e-01 7.047499414182318844e-01
3.792800728966159163e-01 6.918862762813091649e-01
3.803206217932812994e-01 7.868562150814533140e-01
3.813611706899466824e-01 7.748162639070450552e-01
3.824017195866120655e-01 8.029374806895646088e-01
3.834422684832774486e-01 8.011593338737519332e-01
3.844828173799428317e-01 7.778723693688647245e-01
3.855233662766082148e-01 7.118073731601413101e-01
3.865639151732735979e-01 7.548155142981194388e-01
3.876044640699389809e-01 7.280713090116606168e-01
3.886450129666043640e-01 6.216772791459739267e-01
3.896855618632697471e-01 6.244528671112021811e-01
3.907261107599351302e-01 7.824739765534935998e-01
3.917666596566005133e-01 1.353404398003117848e+00
3.928072085532658964e-01 1.087231618923937049e+00
3.938477574499312794e-01 6.562388804526833042e-01
3.948883063465966625e-01 6.676529785099809544e-01
3.959288552432620456e-01 5.893142255764018955e-01
3.969694041399274287e-01 5.395868268413295255e-01
3.980099530365928118e-01 6.468429006335902898e-01
3.990505019332581949e-01 7.203265923199708709e-01
4.000910508299235779e-01 6.801571038264953017e-01
4.011315997265889610e-01 6.094369725828840956e-01
4.021721486232543441e-01 7.320894495524896683e-01
4.032126975199197272e-01 7.688199693559525372e-01
4.042532464165851103e-01 5.758162575127059313e-01
4.052937953132504934e-01 4.535506218352054475e-01
4.063343442099158764e-01 5.133897692673308200e-01
4.073748931065812595e-01 7.130653798797368381e-01
4.084154420032466426e-01 7.195928001684208652e-01
4.094559908999120257e-01 7.054277479863166889e-01
4.104965397965774088e-01 5.029002036648364538e-01
4.115370886932427918e-01 4.268094918118805481e-01
4.125776375899081749e-01 4.821253602521515802e-01
4.136181864865735580e-01 6.061424472289225207e-01
4.146587353832389411e-01 6.672617146388262199e-01
4.156992842799043242e-01 5.059371318738357104e-01
4.167398331765697073e-01 5.086031314687140537e-01
4.177803820732350903e-01 5.882966610862645496e-01
4.188209309699004734e-01 5.444783778481472325e-01
4.198614798665658565e-01 4.957135193628765535e-01
4.209020287632312396e-01 5.408180340145882781e-01
4.219425776598966227e-01 5.134005019707075235e-01
4.229831265565620058e-01 5.506295955911326701e-01
4.240236754532273888e-01 6.216483357026874046e-01
4.250642243498927719e-01 6.126318449058345550e-01
4.261047732465581550e-01 5.913538977326275869e-01
4.271453221432235381e-01 5.772457840642104543e-01
4.281858710398889212e-01 6.482589371050906379e-01
4.292264199365543043e-01 5.183817766231371138e-01
4.302669688332196873e-01 4.591021079272188388e-01
4.313075177298850704e-01 5.920005279237514628e-01
4.323480666265504535e-01 6.829427366797666821e-01
4.333886155232158366e-01 5.774982144692586417e-01
4.344291644198812197e-01 4.331357416405303695e-01
