# q (1/Angstrom), Intensity (arb)
2.029070354705860696e-02 2.623733996914743898e+02
2.133125244372399004e-02 2.231844890289254124e+02
2.237180134038937659e-02 1.997880432543529992e+02
2.341235023705475968e-02 1.792579290420703444e+02
2.445289913372014276e-02 1.639893119361422578e+02
2.549344803038552584e-02 1.527870782348400667e+02
2.653399692705091240e-02 1.420600539311354567e+02
2.757454582371629548e-02 1.332277737028949502e+02
2.861509472038167856e-02 1.244272805112269680e+02
2.965564361704706164e-02 1.168570481452606487e+02
3.069619251371244473e-02 1.113537783381805895e+02
3.173674141037782781e-02 1.095645957609340542e+02
3.277729030704321089e-02 1.061857789223561213e+02
3.381783920370859398e-02 1.014421858945499082e+02
3.485838810037397706e-02 9.963962237049946680e+01
3.589893699703936014e-02 9.854295678782963819e+01
3.693948589370474322e-02 9.918110494189288318e+01
3.798003479037012631e-02 1.006293614993820427e+02
3.902058368703550939e-02 1.008360421336085437e+02
4.006113258370089247e-02 1.005557788335210176e+02
4.110168148036627556e-02 1.029700745750084252e+02
4.214223037703165864e-02 1.065475121129250482e+02
4.318277927369704866e-02 1.111541101000623115e+02
4.422332817036243174e-02 1.179341605845621643e+02
4.526387706702781483e-02 1.256921548645029389e+02
4.630442596369319791e-02 1.346557065924675101e+02
4.734497486035858099e-02 1.463804285184912715e+02
4.838552375702396408e-02 1.621188315713467887e+02
4.942607265368934716e-02 1.844709367009096752e+02
5.046662155035473024e-02 2.158172765148765393e+02
5.150717044702011332e-02 2.670892067805829129e+02
5.254771934368549641e-02 3.516212527402670958e+02
5.358826824035087949e-02 4.961976527468234508e+02
5.462881713701626257e-02 7.113986039296630679e+02
5.566936603368164566e-02 1.002169059785834406e+03
5.670991493034702874e-02 1.324889214356841649e+03
5.775046382701241182e-02 1.525034154681203518e+03
5.879101272367779490e-02 1.521699385069100344e+03
5.983156162034317799e-02 1.383000048384921911e+03
6.087211051700856107e-02 1.178987343432335820e+03
6.191265941367394415e-02 9.701389960164619879e+02
6.295320831033933417e-02 7.832063681126676329e+02
6.399375720700471726e-02 6.274805678923677306e+02
6.503430610367010034e-02 5.030388048763679194e+02
6.607485500033548342e-02 4.024009862584231314e+02
6.711540389700086651e-02 3.201162357735232717e+02
6.815595279366624959e-02 2.500359291710768446e+02
6.919650169033163267e-02 1.933743284156855964e+02
7.023705058699701576e-02 1.464090181108290949e+02
7.127759948366239884e-02 1.087881845326671026e+02
7.231814838032778192e-02 8.243658744346041090e+01
7.335869727699316500e-02 6.212475749039367656e+01
7.439924617365854809e-02 4.743359816717639887e+01
7.543979507032393117e-02 3.742361706037500824e+01
7.648034396698931425e-02 3.005268874251365929e+01
7.752089286365469734e-02 2.488896250975614066e+01
7.856144176032008042e-02 2.136679603875813882e+01
7.960199065698546350e-02 1.845829993187034290e+01
8.064253955365084658e-02 1.679852320072320637e+01
8.168308845031622967e-02 1.567332985973392923e+01
8.272363734698161275e-02 1.525280213689955389e+01
8.376418624364699583e-02 1.513672283338915747e+01
8.480473514031239279e-02 1.547156928630372263e+01
8.584528403697777588e-02 1.571876010604405138e+01
8.688583293364315896e-02 1.660321893172332963e+01
8.792638183030854204e-02 1.853377352271536438e+01
8.896693072697392513e-02 2.176727269593382630e+01
9.000747962363930821e-02 2.666340393256270502e+01
9.104802852030469129e-02 3.389472318399421624e+01
9.208857741697007437e-02 4.512574507725348383e+01
9.312912631363545746e-02 5.641299496088309695e+01
9.416967521030084054e-02 6.331928086682489720e+01
9.521022410696622362e-02 6.564647679966202531e+01
9.625077300363160671e-02 6.661160841569974878e+01
9.729132190029698979e-02 6.482370174028041276e+01
9.833187079696237287e-02 6.235883479840304489e+01
9.937241969362775595e-02 5.957814994908659401e+01
1.004129685902931390e-01 5.690374859961478649e+01
1.014535174869585221e-01 5.392739105915256914e+01
1.024940663836239052e-01 5.182163580502288625e+01
1.035346152802892883e-01 5.128449256399142087e+01
1.045751641769546714e-01 5.106971170688089501e+01
1.056157130736200545e-01 5.276432350860051201e+01
1.066562619702854375e-01 5.760965597984898068e+01
1.076968108669508206e-01 6.497689688562314814e+01
1.087373597636162037e-01 7.273328894020042412e+01
1.097779086602815868e-01 7.778114280419859483e+01
1.108184575569469699e-01 7.812698087744422537e+01
1.118590064536123529e-01 7.560211177005362515e+01
1.128995553502777360e-01 7.259895170806090903e+01
1.139401042469431191e-01 6.866135282872285472e+01
1.149806531436085022e-01 6.296846241959730150e+01
1.160212020402738853e-01 5.586762198918330569e+01
1.170617509369392684e-01 4.910944441792582893e+01
1.181022998336046514e-01 4.289035376575691316e+01
1.191428487302700345e-01 3.709625135511349470e+01
1.201833976269354176e-01 3.172885038395088841e+01
1.212239465236008007e-01 2.691933699420364690e+01
1.222644954202661838e-01 2.267819190185525713e+01
1.233050443169315669e-01 1.929193216580117110e+01
1.243455932135969499e-01 1.628413282242234672e+01
1.253861421102623330e-01 1.400511772104838926e+01
1.264266910069277161e-01 1.155790763618257344e+01
1.274672399035930992e-01 9.550867654323713651e+00
1.285077888002584823e-01 8.583603956972822857e+00
1.295483376969238654e-01 8.076861280207758398e+00
1.305888865935892484e-01 7.194028027973729422e+00
1.316294354902546315e-01 6.102853853337311563e+00
1.326699843869200146e-01 5.674909884300852525e+00
1.337105332835853977e-01 5.409020351520862135e+00
1.347510821802507808e-01 5.371520603758511925e+00
1.357916310769161639e-01 5.371303755473544328e+00
1.368321799735815469e-01 5.278242565072158499e+00
1.378727288702469300e-01 5.336959455577122924e+00
1.389132777669123131e-01 5.413005943475621251e+00
1.399538266635776962e-01 5.790679253425615514e+00
1.409943755602430793e-01 6.429918253206793111e+00
1.420349244569084624e-01 7.367604861369454028e+00
1.430754733535738454e-01 8.849158589745968584e+00
1.441160222502392285e-01 1.008748320555135081e+01
1.451565711469046116e-01 1.140160864979068833e+01
1.461971200435699947e-01 1.250723383661327048e+01
1.472376689402353778e-01 1.284409215270228444e+01
1.482782178369007609e-01 1.310441068854871460e+01
1.493187667335661439e-01 1.283595334751397843e+01
1.503593156302315270e-01 1.256193702142401847e+01
1.513998645268969101e-01 1.226559704113212490e+01
1.524404134235622932e-01 1.227041366704451875e+01
1.534809623202276763e-01 1.144763574658277250e+01
1.545215112168930593e-01 1.089156612566884519e+01
1.555620601135584424e-01 1.062411688009652977e+01
1.566026090102238255e-01 1.008741028279692031e+01
1.576431579068892086e-01 9.648318006519250645e+00
1.586837068035545917e-01 1.010549599289729272e+01
1.597242557002199748e-01 9.885261267993506351e+00
1.607648045968853578e-01 9.688937890318328527e+00
1.618053534935507409e-01 9.854520890415166434e+00
1.628459023902161240e-01 9.474506388121028522e+00
1.638864512868815071e-01 9.397556372260474689e+00
1.649270001835468902e-01 8.802875886879061085e+00
1.659675490802122733e-01 8.657238372654376235e+00
1.670080979768776563e-01 8.454189274787776043e+00
1.680486468735430672e-01 8.262436546171194607e+00
1.690891957702084503e-01 7.938040308933533851e+00
1.701297446668738333e-01 7.857064006605391171e+00
1.711702935635392164e-01 7.347990965387108275e+00
1.722108424602045995e-01 6.924597641458959174e+00
1.732513913568699826e-01 6.652127020353855613e+00
1.742919402535353657e-01 6.276270686207670479e+00
1.753324891502007488e-01 5.945157780690852434e+00
1.763730380468661318e-01 5.462681545138966754e+00
1.774135869435315149e-01 5.402004813000679917e+00
1.784541358401968980e-01 4.938470203738049236e+00
1.794946847368622811e-01 4.535011589045037539e+00
1.805352336335276642e-01 4.391621438202470529e+00
1.815757825301930473e-01 4.122964475536718965e+00
1.826163314268584303e-01 4.063053368515994634e+00
1.836568803235238134e-01 3.955520194883593632e+00
1.846974292201891965e-01 3.546237396893314298e+00
1.857379781168545796e-01 3.411279759859436211e+00
1.867785270135199627e-01 3.399485042603092921e+00
1.878190759101853458e-01 3.253780090222242904e+00
1.888596248068507288e-01 3.334194664743730385e+00
1.899001737035161119e-01 3.317945675842342013e+00
1.909407226001814950e-01 3.141879658568239364e+00
1.919812714968468781e-01 3.202791594070390602e+00
1.930218203935122612e-01 3.536724035646514608e+00
1.940623692901776443e-01 3.479806463321271082e+00
1.951029181868430273e-01 3.377491615714983908e+00
1.961434670835084104e-01 3.718301868756299200e+00
1.971840159801737935e-01 3.972986491030212619e+00
1.982245648768391766e-01 3.811544800427515867e+00
1.992651137735045597e-01 3.663804632117475535e+00
2.003056626701699428e-01 3.542291259666566106e+00
2.013462115668353813e-01 3.659388449654048969e+00
2.023867604635007644e-01 3.750239845265198824e+00
2.034273093601661475e-01 3.605638722670924778e+00
2.044678582568315306e-01 3.549473672238239175e+00
2.055084071534969137e-01 3.406522241997766542e+00
2.065489560501622968e-01 3.382665164524418344e+00
2.075895049468276798e-01 3.537741982447606404e+00
2.086300538434930629e-01 3.439402610958353534e+00
2.096706027401584460e-01 3.166093679577524966e+00
2.107111516368238291e-01 3.224102299261435434e+00
2.117517005334892122e-01 3.537502094836604272e+00
2.127922494301545953e-01 3.440122659066148003e+00
2.138327983268199783e-01 3.681718382647385823e+00
2.148733472234853614e-01 3.573668626835438289e+00
2.159138961201507445e-01 3.332568728155582249e+00
2.169544450168161276e-01 3.316890811499035863e+00
2.179949939134815107e-01 3.189532117034740821e+00
2.190355428101468938e-01 3.239509077493408995e+00
2.200760917068122768e-01 3.119931293219064372e+00
2.211166406034776599e-01 2.980617459724498985e+00
2.221571895001430430e-01 2.781558450761572487e+00
2.231977383968084261e-01 2.865747652902754794e+00
2.242382872934738092e-01 2.920278170701870124e+00
2.252788361901391923e-01 2.972042764197624365e+00
2.263193850868045753e-01 2.848067173077961201e+00
2.273599339834699584e-01 2.843985738179075184e+00
2.284004828801353415e-01 3.022959710280215262e+00
2.294410317768007246e-01 2.985121863622126170e+00
2.304815806734661077e-01 2.593842606310793997e+00
2.315221295701314908e-01 2.341905399943271959e+00
2.325626784667968738e-01 2.170727098211550299e+00
2.336032273634622569e-01 2.291766301820171492e+00
2.346437762601276400e-01 2.323221695211284299e+00
2.356843251567930231e-01 2.263002607835044699e+00
2.367248740534584062e-01 2.133792638045708401e+00
2.377654229501237892e-01 2.025227821373778880e+00
2.388059718467891723e-01 2.143112843928676625e+00
2.398465207434545554e-01 2.087671896250498094e+00
2.408870696401199385e-01 2.012698646125326007e+00
2.419276185367853216e-01 2.070106640069926840e+00
2.429681674334507047e-01 2.034563284782439752e+00
2.440087163301160877e-01 2.127220587568473320e+00
2.450492652267814708e-01 2.128760388731283371e+00
2.460898141234468539e-01 2.068158754578931280e+00
2.471303630201122370e-01 2.032683706556923653e+00
2.481709119167776201e-01 1.927237342073816251e+00
2.492114608134430032e-01 1.855366636055610030e+00
2.502520097101083585e-01 1.804745813810853861e+00
2.512925586067737416e-01 1.745528294635654731e+00
2.523331075034391247e-01 1.935082022314485783e+00
2.533736564001045077e-01 2.148025081437250350e+00
2.544142052967698908e-01 1.918787692807864431e+00
2.554547541934352739e-01 1.835983316564504975e+00
2.564953030901006570e-01 1.777103365200751739e+00
2.575358519867660401e-01 1.831046020052166767e+00
2.585764008834314231e-01 1.899361042993859883e+00
2.596169497800968062e-01 1.816787830109646507e+00
2.606574986767621893e-01 1.614313479127346795e+00
2.616980475734275724e-01 1.746483107877800478e+00
2.627385964700929555e-01 1.672225755242997991e+00
2.637791453667583386e-01 1.917397147412692959e+00
2.648196942634237216e-01 1.944805234039531427e+00
2.658602431600891047e-01 1.921575520845507867e+00
2.669007920567544878e-01 1.964782590619670088e+00
2.679413409534198709e-01 1.890724996606721220e+00
2.689818898500852540e-01 1.899892695614923355e+00
2.700224387467506371e-01 2.158436829197992068e+00
2.710629876434160201e-01 1.973948951338488911e+00
2.721035365400814032e-01 1.857989244206493140e+00
2.731440854367467863e-01 1.779268352521963692e+00
2.741846343334121694e-01 1.611091788763360455e+00
2.752251832300775525e-01 1.699141335262911667e+00
2.762657321267429356e-01 1.561120048488010781e+00
2.773062810234083186e-01 1.509641637287980842e+00
2.783468299200737017e-01 1.738740341904140507e+00
2.793873788167390848e-01 1.888215826573368616e+00
2.804279277134044679e-01 1.523476487341316243e+00
2.814684766100698510e-01 1.360585707181009241e+00
2.825090255067352341e-01 1.794124006865779108e+00
2.835495744034006171e-01 1.916142624326717225e+00
2.845901233000660002e-01 1.596647193706914436e+00
2.856306721967313833e-01 1.407315682339099538e+00
2.866712210933967664e-01 1.375653757177602188e+00
2.877117699900621495e-01 1.379498651137030407e+00
2.887523188867275326e-01 1.329893281940069727e+00
2.897928677833929156e-01 1.344425535858754017e+00
2.908334166800582987e-01 1.433192608844802152e+00
2.918739655767236818e-01 1.468307669682921812e+00
2.929145144733890649e-01 1.403008477262360998e+00
2.939550633700544480e-01 1.368772231651728788e+00
2.949956122667198311e-01 1.538476088298228461e+00
2.960361611633852141e-01 1.435517894659270155e+00
2.970767100600505972e-01 1.261363595663382853e+00
2.981172589567159803e-01 1.358128509344389556e+00
2.991578078533813634e-01 1.321468991513906843e+00
3.001983567500468020e-01 1.022865876286516595e+00
3.012389056467121851e-01 1.132828978385781227e+00
3.022794545433775681e-01 1.206290549956111846e+00
3.033200034400429512e-01 1.242934706650796528e+00
3.043605523367083343e-01 1.380572792182721997e+00
3.054011012333737174e-01 1.396675408109743444e+00
3.064416501300391005e-01 1.367845696977621373e+00
3.074821990267044836e-01 1.214147532021339515e+00
3.085227479233698666e-01 1.115599730489396535e+00
3.095632968200352497e-01 1.198192513753141952e+00
3.106038457167006328e-01 1.237499628385180017e+00
3.116443946133660159e-01 1.375382635064692494e+00
3.126849435100313990e-01 1.365928411315941560e+00
3.137254924066967821e-01 1.240949250826609784e+00
3.147660413033621651e-01 1.152379493264820809e+00
3.158065902000275482e-01 1.167046938370805975e+00
3.168471390966929313e-01 1.126339755397818720e+00
3.178876879933583144e-01 1.193467502715201078e+00
3.189282368900236975e-01 9.685114167106938510e-01
3.199687857866890806e-01 1.164030557911406305e+00
3.210093346833544636e-01 1.092898639320932119e+00
3.220498835800198467e-01 7.842737631657676900e-01
3.230904324766852298e-01 1.114113403526538093e+00
3.241309813733506129e-01 1.399494826283625315e+00
3.251715302700159960e-01 1.155680728523272194e+00
3.262120791666813790e-01 1.017422193426931187e+00
3.272526280633467621e-01 1.003263391563930185e+00
3.282931769600121452e-01 1.013627117354200635e+00
3.293337258566775283e-01 1.034398896579617144e+00
3.303742747533429114e-01 1.135024211227651847e+00
3.314148236500082945e-01 1.235032601558934573e+00
3.324553725466736775e-01 1.227999837742963507e+00
3.334959214433390606e-01 1.027609099803232340e+00
3.345364703400044437e-01 9.811930103873542919e-01
3.355770192366698268e-01 1.212732182328227992e+00
3.366175681333352099e-01 9.140158764475643238e-01
3.376581170300005930e-01 7.339011162613893191e-01
3.386986659266659760e-01 9.693178377101503429e-01
3.397392148233313591e-01 1.007870518876561761e+00
3.407797637199967422e-01 8.071001876488459459e-01
3.418203126166621253e-01 8.524575167786707652e-01
3.428608615133275084e-01 9.030414546385507890e-01
3.439014104099928915e-01 7.527670619657307327e-01
3.449419593066582745e-01 7.966626732727384308e-01
3.459825082033236576e-01 9.076645715112512391e-01
3.470230570999890407e-01 9.256704804903037598e-01
3.480636059966544238e-01 8.412295976176515921e-01
3.491041548933198069e-01 8.403805292264721061e-01
3.501447037899851900e-01 8.938659535017237090e-01
3.511852526866505730e-01 9.292431961869418444e-01
3.522258015833159561e-01 7.285849820985177416e-01
3.532663504799813392e-01 8.222208303662625895e-01
3.543068993766467223e-01 8.562858619493880497e-01
3.553474482733121054e-01 7.627452425578127304e-01
3.563879971699774885e-01 8.517232192411867686e-01
3.574285460666428715e-01 9.439402744651239630e-01
3.584690949633082546e-01 7.840042074371993408e-01
3.595096438599736377e-01 8.628528162876030194e-01
3.605501927566390208e-01 8.262622780875723549e-01
3.615907416533044039e-01 7.987300815267133203e-01
3.626312905499697870e-01 8.163704426771296596e-01
3.636718394466351700e-01 7.174461586114802003e-01
3.647123883433005531e-01 7.698391048867563313e-01
3.657529372399659362e-01 6.119625566763957636e-01
3.667934861366313193e-01 5.623564977316739544e-01
3.678340350332967024e-01 6.092250351121926144e-01
3.688745839299620854e-01 7.217534550250803704e-01
3.699151328266274685e-01 9.001756846007893387e-01
3.709556817232928516e-01 9.274236361718593002e-01
3.719962306199582347e-01 9.107892911647645917e-01
3.730367795166236178e-01 8.581179001552534658e-01
3.740773284132890009e-01 7.324227330184562845e-01
3.751178773099543839e-01 7.206623054994594213e-01
3.761584262066197670e-01 6.865216156773534806e-01
3.771989751032851501e-01 5.877982613109153931e-01
3.782395239999505332e-01 6.264152532257831751e-01
3.792800728966159163e-01 5.970422009617131209e-01
3.803206217932812994e-01 7.102898373576422841e-01
3.813611706899466824e-01 7.205805434847079027e-01
3.824017195866120655e-01 7.349656240623225756e-01
3.834422684832774486e-01 6.820103695383572528e-01
3.844828173799428317e-01 7.171789450158279067e-01
3.855233662766082148e-01 7.184272406982543657e-01
3.865639151732735979e-01 5.133403541852317176e-01
3.876044640699389809e-01 6.131335895464928853e-01
3.886450129666043640e-01 5.528100005751532819e-01
3.896855618632697471e-01 6.145442884977967424e-01
3.907261107599351302e-01 4.583657568498686885e-01
3.917666596566005133e-01 5.438037560892716726e-01
3.928072085532658964e-01 6.477593358927080658e-01
3.938477574499312794e-01 6.964767094391000057e-01
3.948883063465966625e-01 6.970652804950354664e-01
3.959288552432620456e-01 6.730185285981349352e-01
3.969694041399274287e-01 5.183503361912649154e-01
3.980099530365928118e-01 4.836077366675830547e-01
3.990505019332581949e-01 3.193525803601318103e-01
4.000910508299235779e-01 4.278863272123238914e-01
4.011315997265889610e-01 6.036001649563473848e-01
4.021721486232543441e-01 6.209800951702959537e-01
4.032126975199197272e-01 5.612070987545116907e-01
4.042532464165851103e-01 4.377693631410117803e-01
4.052937953132504934e-01 3.486812046035154822e-01
4.063343442099158764e-01 6.144903918864841330e-01
4.073748931065812595e-01 5.230946316635574078e-01
4.084154420032466426e-01 6.803240794617622100e-01
4.094559908999120257e-01 7.287928677717374626e-01
4.104965397965774088e-01 6.569691340925594147e-01
4.115370886932427918e-01 5.298191390094366682e-01
4.125776375899081749e-01 4.109971490936921157e-01
4.136181864865735580e-01 4.157438943505447071e-01
4.146587353832389411e-01 4.750050122094435778e-01
4.156992842799043242e-01 4.702894833516921835e-01
4.167398331765697073e-01 4.044624776285807854e-01
4.177803820732350903e-01 5.086986982008561142e-01
4.188209309699004734e-01 5.241236664971360426e-01
4.198614798665658565e-01 4.795472177477151376e-01
4.209020287632312396e-01 4.720504288356757172e-01
4.219425776598966227e-01 6.207949563968746531e-01
4.229831265565620058e-01 3.691487329366154313e-01
4.240236754532273888e-01 2.522861241650780073e-01
4.250642243498927719e-01 2.846393922118473085e-01
4.261047732465581550e-01 3.161469649700627826e-01
4.271453221432235381e-01 4.074433851486638503e-01
4.281858710398889212e-01 2.068974901491031915e-01
4.292264199365543043e-01 1.283101083431681388e-01
4.302669688332196873e-01 4.460701853831068320e-01
4.313075177298850704e-01 3.602009148794884652e-01
4.323480666265504535e-01 3.856605901861094310e-01
4.333886155232158366e-01 3.366017451753648970e-01
4.344291644198812197e-01 3.184981357018550341e-01
