# q (1/Angstrom), Intensity (arb)
2.029070354705860696e-02 2.552960163131016884e+02
2.133125244372399004e-02 2.188096572581830515e+02
2.237180134038937659e-02 1.974452635648558214e+02
2.341235023705475968e-02 1.791314248630848454e+02
2.445289913372014276e-02 1.626709161592221449e+02
2.549344803038552584e-02 1.493797646389317322e+02
2.653399692705091240e-02 1.390578420176086638e+02
2.757454582371629548e-02 1.305921623984957876e+02
2.861509472038167856e-02 1.206625792352530482e+02
2.965564361704706164e-02 1.127507423876709396e+02
3.069619251371244473e-02 1.084218830942860876e+02
3.173674141037782781e-02 1.062965331074432243e+02
3.277729030704321089e-02 1.057101538951716151e+02
3.381783920370859398e-02 1.024510677260786622e+02
3.485838810037397706e-02 1.004246300141397796e+02
3.589893699703936014e-02 9.777113542201374230e+01
3.693948589370474322e-02 9.806849344141426172e+01
3.798003479037012631e-02 9.787621432263543397e+01
3.902058368703550939e-02 9.818425847716591193e+01
4.006113258370089247e-02 9.970360828139040166e+01
4.110168148036627556e-02 1.024379300434882225e+02
4.214223037703165864e-02 1.062601763028460482e+02
4.318277927369704866e-02 1.094253507197976063e+02
4.422332817036243174e-02 1.160749569099093179e+02
4.526387706702781483e-02 1.244561037576915936e+02
4.630442596369319791e-02 1.345338969554874780e+02
4.734497486035858099e-02 1.463871682263288960e+02
4.838552375702396408e-02 1.631527164075807264e+02
4.942607265368934716e-02 1.863374734984903114e+02
5.046662155035473024e-02 2.181040809391794539e+02
5.150717044702011332e-02 2.697710591429510600e+02
5.254771934368549641e-02 3.594212760395392365e+02
5.358826824035087949e-02 5.090938238390547212e+02
5.462881713701626257e-02 7.297308606407486877e+02
5.566936603368164566e-02 1.024326196428899266e+03
5.670991493034702874e-02 1.347155587369382374e+03
5.775046382701241182e-02 1.537685079460849465e+03
5.879101272367779490e-02 1.523407875300724299e+03
5.983156162034317799e-02 1.376240044432669492e+03
6.087211051700856107e-02 1.171429283043984924e+03
6.191265941367394415e-02 9.634930497700745491e+02
6.295320831033933417e-02 7.758104010850925079e+02
6.399375720700471726e-02 6.198262200439901335e+02
6.503430610367010034e-02 4.971065854113707019e+02
6.607485500033548342e-02 3.978285913018576707e+02
6.711540389700086651e-02 3.168370402912036070e+02
6.815595279366624959e-02 2.472908161618582312e+02
6.919650169033163267e-02 1.904275049514936597e+02
7.023705058699701576e-02 1.435821892845119407e+02
7.127759948366239884e-02 1.065460206877057772e+02
7.231814838032778192e-02 7.989882814066807271e+01
7.335869727699316500e-02 6.054771542727894484e+01
7.439924617365854809e-02 4.660121340856856875e+01
7.543979507032393117e-02 3.721136279513596890e+01
7.648034396698931425e-02 3.003476484082047548e+01
7.752089286365469734e-02 2.481363552636326375e+01
7.856144176032008042e-02 2.121865596397047682e+01
7.960199065698546350e-02 1.871272493517266255e+01
8.064253955365084658e-02 1.727973109138575225e+01
8.168308845031622967e-02 1.606823354785986169e+01
8.272363734698161275e-02 1.540005812733229718e+01
8.376418624364699583e-02 1.526715110265168818e+01
8.480473514031239279e-02 1.477000055003722068e+01
8.584528403697777588e-02 1.543817277532092902e+01
8.688583293364315896e-02 1.720407141391857309e+01
8.792638183030854204e-02 1.887562547878039609e+01
8.896693072697392513e-02 2.169116582587102116e+01
9.000747962363930821e-02 2.720316730379720482e+01
9.104802852030469129e-02 3.510277562481289237e+01
9.208857741697007437e-02 4.616569733218671701e+01
9.312912631363545746e-02 5.667984145015844888e+01
9.416967521030084054e-02 6.248481169594455764e+01
9.521022410696622362e-02 6.563041701361584046e+01
9.625077300363160671e-02 6.577694954299796848e+01
9.729132190029698979e-02 6.520265458792337654e+01
9.833187079696237287e-02 6.204754082532768678e+01
9.937241969362775595e-02 5.821622422065480862e+01
1.004129685902931390e-01 5.519090844781527494e+01
1.014535174869585221e-01 5.330441043472116291e+01
1.024940663836239052e-01 5.171340840741827805e+01
1.035346152802892883e-01 5.086297266725101451e+01
1.045751641769546714e-01 5.096789631327416004e+01
1.056157130736200545e-01 5.291374261519760580e+01
1.066562619702854375e-01 5.765758758609065637e+01
1.076968108669508206e-01 6.538806544515674091e+01
1.087373597636162037e-01 7.406418160175279297e+01
1.097779086602815868e-01 7.850223022544848561e+01
1.108184575569469699e-01 7.787381235984753403e+01
1.118590064536123529e-01 7.506023663410051938e+01
1.128995553502777360e-01 7.215412891665552308e+01
1.139401042469431191e-01 6.802835151704231009e+01
1.149806531436085022e-01 6.200442768944425609e+01
1.160212020402738853e-01 5.536422352802919988e+01
1.170617509369392684e-01 4.859679572721821472e+01
1.181022998336046514e-01 4.221086046153790505e+01
1.191428487302700345e-01 3.653434067287837195e+01
1.201833976269354176e-01 3.100739395899489281e+01
1.212239465236008007e-01 2.647436082450004946e+01
1.222644954202661838e-01 2.266656690507492300e+01
1.233050443169315669e-01 1.889800697176543309e+01
1.243455932135969499e-01 1.578115491578205720e+01
1.253861421102623330e-01 1.384764325788896144e+01
1.264266910069277161e-01 1.175923320370101877e+01
1.274672399035930992e-01 1.008889556923274355e+01
1.285077888002584823e-01 8.725222394371158430e+00
1.295483376969238654e-01 7.854096250435397053e+00
1.305888865935892484e-01 6.820847503348275609e+00
1.316294354902546315e-01 5.677121017829438898e+00
1.326699843869200146e-01 5.385078600529578097e+00
1.337105332835853977e-01 5.522739714069942352e+00
1.347510821802507808e-01 5.153448088516693559e+00
1.357916310769161639e-01 5.083587666817020789e+00
1.368321799735815469e-01 5.019413808841640900e+00
1.378727288702469300e-01 5.053540628376516963e+00
1.389132777669123131e-01 5.492292323691554401e+00
1.399538266635776962e-01 5.833478858960965852e+00
1.409943755602430793e-01 6.546401260446220505e+00
1.420349244569084624e-01 7.905297591565798143e+00
1.430754733535738454e-01 8.920237366116808175e+00
1.441160222502392285e-01 1.050382893998727596e+01
1.451565711469046116e-01 1.136875948639576706e+01
1.461971200435699947e-01 1.223633740767614952e+01
1.472376689402353778e-01 1.326684894781251245e+01
1.482782178369007609e-01 1.347269147519076782e+01
1.493187667335661439e-01 1.283610145151849125e+01
1.503593156302315270e-01 1.224377652016015361e+01
1.513998645268969101e-01 1.184707746178424870e+01
1.524404134235622932e-01 1.158029771849055578e+01
1.534809623202276763e-01 1.127805550121009759e+01
1.545215112168930593e-01 1.057760553293724470e+01
1.555620601135584424e-01 1.037196830238410428e+01
1.566026090102238255e-01 1.016159174765189022e+01
1.576431579068892086e-01 9.703566103170679469e+00
1.586837068035545917e-01 9.693439084365326863e+00
1.597242557002199748e-01 9.582472608951217552e+00
1.607648045968853578e-01 9.579435229523838302e+00
1.618053534935507409e-01 9.881992520550419101e+00
1.628459023902161240e-01 9.399137891072147255e+00
1.638864512868815071e-01 8.931816868075774352e+00
1.649270001835468902e-01 8.797101642174027347e+00
1.659675490802122733e-01 8.408188741242305753e+00
1.670080979768776563e-01 8.193481907403018738e+00
1.680486468735430672e-01 7.566445111254811451e+00
1.690891957702084503e-01 7.418892214837963905e+00
1.701297446668738333e-01 7.567990122990210011e+00
1.711702935635392164e-01 7.378377331613389600e+00
1.722108424602045995e-01 6.940029312385043170e+00
1.732513913568699826e-01 6.668818453462467488e+00
1.742919402535353657e-01 6.306543587038706988e+00
1.753324891502007488e-01 5.786802104070613240e+00
1.763730380468661318e-01 5.287781795985708300e+00
1.774135869435315149e-01 4.969239596508678858e+00
1.784541358401968980e-01 4.659585792281863093e+00
1.794946847368622811e-01 4.528396517813131794e+00
1.805352336335276642e-01 4.535843853979667273e+00
1.815757825301930473e-01 3.945350939412978875e+00
1.826163314268584303e-01 3.590359381222533841e+00
1.836568803235238134e-01 3.313217276449535120e+00
1.846974292201891965e-01 2.939980934712579597e+00
1.857379781168545796e-01 3.093512262260897927e+00
1.867785270135199627e-01 3.145317343933076160e+00
1.878190759101853458e-01 3.190272956363706669e+00
1.888596248068507288e-01 3.131465085284546035e+00
1.899001737035161119e-01 2.993632274881150579e+00
1.909407226001814950e-01 3.277455458066047100e+00
1.919812714968468781e-01 3.329593581287912940e+00
1.930218203935122612e-01 2.911265911909868720e+00
1.940623692901776443e-01 3.239847390897015345e+00
1.951029181868430273e-01 3.705409348517669343e+00
1.961434670835084104e-01 3.650927882635695454e+00
1.971840159801737935e-01 3.477681091643731293e+00
1.982245648768391766e-01 3.602251479323555827e+00
1.992651137735045597e-01 3.654005346208784033e+00
2.003056626701699428e-01 3.580286755819727773e+00
2.013462115668353813e-01 3.354574001543586093e+00
2.023867604635007644e-01 3.313303036956405379e+00
2.034273093601661475e-01 3.523466811392772513e+00
2.044678582568315306e-01 3.459620534440514206e+00
2.055084071534969137e-01 3.456868844832413856e+00
2.065489560501622968e-01 3.357714137037309143e+00
2.075895049468276798e-01 3.289031886669857130e+00
2.086300538434930629e-01 3.289987950876515299e+00
2.096706027401584460e-01 3.084249363211682748e+00
2.107111516368238291e-01 3.261264952880750911e+00
2.117517005334892122e-01 3.211912139094280860e+00
2.127922494301545953e-01 3.209722536525344339e+00
2.138327983268199783e-01 3.341764757476457959e+00
2.148733472234853614e-01 3.389702783471157943e+00
2.159138961201507445e-01 3.472649510929979755e+00
2.169544450168161276e-01 3.418319804386399596e+00
2.179949939134815107e-01 3.252295218803777033e+00
2.190355428101468938e-01 3.334822808778866943e+00
2.200760917068122768e-01 3.173829407103372802e+00
2.211166406034776599e-01 3.160465710209660273e+00
2.221571895001430430e-01 3.112331969344509730e+00
2.231977383968084261e-01 2.985145850950512880e+00
2.242382872934738092e-01 2.984755210539866255e+00
2.252788361901391923e-01 2.804572740492837113e+00
2.263193850868045753e-01 2.917011958698189744e+00
2.273599339834699584e-01 2.721057755035129588e+00
2.284004828801353415e-01 2.525228013698257001e+00
2.294410317768007246e-01 2.472573072311863740e+00
2.304815806734661077e-01 2.550582454485866180e+00
2.315221295701314908e-01 2.531603853324952524e+00
2.325626784667968738e-01 2.435405279638512610e+00
2.336032273634622569e-01 2.462949363728270669e+00
2.346437762601276400e-01 2.297518425186254376e+00
2.356843251567930231e-01 2.133901214885955966e+00
2.367248740534584062e-01 2.227654608891018739e+00
2.377654229501237892e-01 2.072715012757953446e+00
2.388059718467891723e-01 1.766660759542023840e+00
2.398465207434545554e-01 1.945413374738762968e+00
2.408870696401199385e-01 1.935592818455347697e+00
2.419276185367853216e-01 1.725832668675764126e+00
2.429681674334507047e-01 1.844930210485369315e+00
2.440087163301160877e-01 1.794711735884618520e+00
2.450492652267814708e-01 1.970262820954708616e+00
2.460898141234468539e-01 2.028820768169147470e+00
2.471303630201122370e-01 1.837962629612057697e+00
2.481709119167776201e-01 1.925001400346371128e+00
2.492114608134430032e-01 1.983346559491913297e+00
2.502520097101083585e-01 2.195010524598867363e+00
2.512925586067737416e-01 2.234031492040134736e+00
2.523331075034391247e-01 2.124583686776883695e+00
2.533736564001045077e-01 1.825032442313343495e+00
2.544142052967698908e-01 1.793913388895539640e+00
2.554547541934352739e-01 1.996824237613552100e+00
2.564953030901006570e-01 2.229775448395070470e+00
2.575358519867660401e-01 1.997719023947009731e+00
2.585764008834314231e-01 1.820380219670290955e+00
2.596169497800968062e-01 1.957825682664193323e+00
2.606574986767621893e-01 1.888032970817835832e+00
2.616980475734275724e-01 1.549976919154087085e+00
2.627385964700929555e-01 1.668138692109774723e+00
2.637791453667583386e-01 1.848901043924367826e+00
2.648196942634237216e-01 1.801555145018681969e+00
2.658602431600891047e-01 1.702130492302185161e+00
2.669007920567544878e-01 1.770612756202947224e+00
2.679413409534198709e-01 1.831143851363709274e+00
2.689818898500852540e-01 1.696021654896615161e+00
2.700224387467506371e-01 1.487559991345616339e+00
2.710629876434160201e-01 1.692430314834929561e+00
2.721035365400814032e-01 1.806777561117630881e+00
2.731440854367467863e-01 1.744684696572942784e+00
2.741846343334121694e-01 1.702877799857184016e+00
2.752251832300775525e-01 1.775239721020678729e+00
2.762657321267429356e-01 1.723117040157301716e+00
2.773062810234083186e-01 1.852399411993065570e+00
2.783468299200737017e-01 1.630532090534025258e+00
2.793873788167390848e-01 1.662520450461492771e+00
2.804279277134044679e-01 1.782357259712991748e+00
2.814684766100698510e-01 1.827801595071832708e+00
2.825090255067352341e-01 1.522491998432784044e+00
2.835495744034006171e-01 1.515549301106783986e+00
2.845901233000660002e-01 1.507528754466481047e+00
2.856306721967313833e-01 1.584783162071776275e+00
2.866712210933967664e-01 1.389832787539749148e+00
2.877117699900621495e-01 1.386864528916188277e+00
2.887523188867275326e-01 1.471434181634936778e+00
2.897928677833929156e-01 1.282492055654241625e+00
2.908334166800582987e-01 1.335237351582087229e+00
2.918739655767236818e-01 1.346752640234406329e+00
2.929145144733890649e-01 1.446312886851117696e+00
2.939550633700544480e-01 1.496839529415833425e+00
2.949956122667198311e-01 1.446086530747102472e+00
2.960361611633852141e-01 1.577212817395864164e+00
2.970767100600505972e-01 1.513023418316475244e+00
2.981172589567159803e-01 1.506739163827557348e+00
2.991578078533813634e-01 1.300473077439736613e+00
3.001983567500468020e-01 1.249353650269920735e+00
3.012389056467121851e-01 1.403446107144738164e+00
3.022794545433775681e-01 1.251371675986927556e+00
3.033200034400429512e-01 1.171124705297323487e+00
3.043605523367083343e-01 1.377522667977750359e+00
3.054011012333737174e-01 1.407185607654067638e+00
3.064416501300391005e-01 1.467274613553058771e+00
3.074821990267044836e-01 1.361414214035953307e+00
3.085227479233698666e-01 1.183173146185499292e+00
3.095632968200352497e-01 1.131793429612120150e+00
3.106038457167006328e-01 1.357204593143624294e+00
3.116443946133660159e-01 1.259502540878301602e+00
3.126849435100313990e-01 1.146973007862072791e+00
3.137254924066967821e-01 9.392714511520807719e-01
3.147660413033621651e-01 9.586107219034367688e-01
3.158065902000275482e-01 1.126871270500394928e+00
3.168471390966929313e-01 9.997525727080400770e-01
3.178876879933583144e-01 1.038925872211237333e+00
3.189282368900236975e-01 8.607660321111687551e-01
3.199687857866890806e-01 8.141478299331055268e-01
3.210093346833544636e-01 9.584108046036732276e-01
3.220498835800198467e-01 1.068346356689854559e+00
3.230904324766852298e-01 1.075741261418801997e+00
3.241309813733506129e-01 1.019556436197579075e+00
3.251715302700159960e-01 1.077507759543998134e+00
3.262120791666813790e-01 1.106169979108869938e+00
3.272526280633467621e-01 1.026309165341409368e+00
3.282931769600121452e-01 9.537246979892373133e-01
3.293337258566775283e-01 9.906847167396328757e-01
3.303742747533429114e-01 8.880962049219611743e-01
3.314148236500082945e-01 9.459502587376213967e-01
3.324553725466736775e-01 1.084594263276425608e+00
3.334959214433390606e-01 1.110414534590759672e+00
3.345364703400044437e-01 1.126782010089364405e+00
3.355770192366698268e-01 1.057094072201675061e+00
3.366175681333352099e-01 9.578336308238917240e-01
3.376581170300005930e-01 8.467233048138211871e-01
3.386986659266659760e-01 7.661749115354830053e-01
3.397392148233313591e-01 8.528090743034795196e-01
3.407797637199967422e-01 1.105022211374080854e+00
3.418203126166621253e-01 9.884939838431670012e-01
3.428608615133275084e-01 8.547888544348829498e-01
3.439014104099928915e-01 7.433699675226890236e-01
3.449419593066582745e-01 8.588225770375146340e-01
3.459825082033236576e-01 1.014168055267163027e+00
3.470230570999890407e-01 1.061010767606525462e+00
3.480636059966544238e-01 8.748959907268272218e-01
3.491041548933198069e-01 6.090307638458796191e-01
3.501447037899851900e-01 7.611922018120260702e-01
3.511852526866505730e-01 9.121982545362001815e-01
3.522258015833159561e-01 9.149865676078228205e-01
3.532663504799813392e-01 1.003202943754970988e+00
3.543068993766467223e-01 1.004026595962123736e+00
3.553474482733121054e-01 8.538066216635620265e-01
3.563879971699774885e-01 9.061517756778414423e-01
3.574285460666428715e-01 9.451014255439105227e-01
3.584690949633082546e-01 8.840027893153994398e-01
3.595096438599736377e-01 9.080820388937027587e-01
3.605501927566390208e-01 8.766835745135850289e-01
3.615907416533044039e-01 6.899199843369849816e-01
3.626312905499697870e-01 7.028738602607731423e-01
3.636718394466351700e-01 8.214241193917857231e-01
3.647123883433005531e-01 7.379350519195639890e-01
3.657529372399659362e-01 5.550251863851869416e-01
3.667934861366313193e-01 5.133054159056449350e-01
3.678340350332967024e-01 5.354496092553091557e-01
3.688745839299620854e-01 7.965097816756525617e-01
3.699151328266274685e-01 7.111173665849825909e-01
3.709556817232928516e-01 5.740394507083159681e-01
3.719962306199582347e-01 7.037638824924066228e-01
3.730367795166236178e-01 8.864354067877684429e-01
3.740773284132890009e-01 7.956112878865759797e-01
3.751178773099543839e-01 6.822702040469472706e-01
3.761584262066197670e-01 6.631519060902064666e-01
3.771989751032851501e-01 6.851418937318527469e-01
3.782395239999505332e-01 6.764065032514317011e-01
3.792800728966159163e-01 6.625390384801796984e-01
3.803206217932812994e-01 9.045106655761614434e-01
3.813611706899466824e-01 7.841543401339379216e-01
3.824017195866120655e-01 5.901096667266898521e-01
3.834422684832774486e-01 6.661430553317231329e-01
3.844828173799428317e-01 6.571699419955798760e-01
3.855233662766082148e-01 6.691252856035525554e-01
3.865639151732735979e-01 6.621174291311753279e-01
3.876044640699389809e-01 7.050544635167774743e-01
3.886450129666043640e-01 5.444412315491007348e-01
3.896855618632697471e-01 5.786370707850494455e-01
3.907261107599351302e-01 6.774265915167063667e-01
3.917666596566005133e-01 6.073248686203456259e-01
3.928072085532658964e-01 5.182937855580576070e-01
3.938477574499312794e-01 3.991392610123973839e-01
3.948883063465966625e-01 5.835020322098536383e-01
3.959288552432620456e-01 6.167663934387590530e-01
3.969694041399274287e-01 5.895539494759347576e-01
3.980099530365928118e-01 6.294231752254439982e-01
3.990505019332581949e-01 5.860912881033968347e-01
4.000910508299235779e-01 5.137869879751448821e-01
4.011315997265889610e-01 5.479058672342489444e-01
4.021721486232543441e-01 6.228605716241411017e-01
4.032126975199197272e-01 5.448385479897019934e-01
4.042532464165851103e-01 4.996055983321809890e-01
4.052937953132504934e-01 5.503576117125525968e-01
4.063343442099158764e-01 3.894403354360278513e-01
4.073748931065812595e-01 4.369868243589998258e-01
4.084154420032466426e-01 4.574625594540968621e-01
4.094559908999120257e-01 4.465262913461849337e-01
4.104965397965774088e-01 2.897713375872470465e-01
4.115370886932427918e-01 4.260314142654664238e-01
4.125776375899081749e-01 3.694888313487112441e-01
4.136181864865735580e-01 3.309114658924734442e-01
4.146587353832389411e-01 3.147914555798188019e-01
4.156992842799043242e-01 3.929176992855083483e-01
4.167398331765697073e-01 4.614699852233847821e-01
4.177803820732350903e-01 5.669436949145598703e-01
4.188209309699004734e-01 6.206973847500094621e-01
4.198614798665658565e-01 6.391055145291915096e-01
4.209020287632312396e-01 7.154444578525058773e-01
4.219425776598966227e-01 4.378372568859347780e-01
4.229831265565620058e-01 3.360995020220158835e-01
4.240236754532273888e-01 4.559574696402215466e-01
4.250642243498927719e-01 5.084770635334727729e-01
4.261047732465581550e-01 2.669822443280303048e-01
4.271453221432235381e-01 1.821285767520173238e-01
4.281858710398889212e-01 2.565473051226874190e-01
4.292264199365543043e-01 3.041352569385260551e-01
4.302669688332196873e-01 2.869788865147100410e-01
4.313075177298850704e-01 2.996890511681371549e-01
4.323480666265504535e-01 2.104843424019513520e-01
4.333886155232158366e-01 3.727907037007796021e-01
4.344291644198812197e-01 3.336910294735346838e-01
