# q (1/Angstrom), Intensity (arb)
2.029070354705860696e-02 2.694890949188852005e+02
2.133125244372399004e-02 2.317301980728384478e+02
2.237180134038937659e-02 2.045967634277619425e+02
2.341235023705475968e-02 1.821528219492716971e+02
2.445289913372014276e-02 1.645427141217728604e+02
2.549344803038552584e-02 1.493431789373370862e+02
2.653399692705091240e-02 1.407394033839096892e+02
2.757454582371629548e-02 1.321128684087564693e+02
2.861509472038167856e-02 1.237174742991325616e+02
2.965564361704706164e-02 1.170994335899397925e+02
3.069619251371244473e-02 1.120607353928262171e+02
3.173674141037782781e-02 1.071840791616052257e+02
3.277729030704321089e-02 1.047949453900492642e+02
3.381783920370859398e-02 1.014907958011735758e+02
3.485838810037397706e-02 9.988926996225565347e+01
3.589893699703936014e-02 9.870386444316284269e+01
3.693948589370474322e-02 9.862488420185621862e+01
3.798003479037012631e-02 9.840310192294811031e+01
3.902058368703550939e-02 9.913845520444866111e+01
4.006113258370089247e-02 1.015911719056990989e+02
4.110168148036627556e-02 1.026199341049829172e+02
4.214223037703165864e-02 1.046983047261015969e+02
4.318277927369704866e-02 1.083925568272689475e+02
4.422332817036243174e-02 1.143923126600090825e+02
4.526387706702781483e-02 1.210191363384126504e+02
4.630442596369319791e-02 1.303509670524151431e+02
4.734497486035858099e-02 1.413554839989240577e+02
4.838552375702396408e-02 1.552225286836198279e+02
4.942607265368934716e-02 1.762358678838235164e+02
5.046662155035473024e-02 2.056502723892714926e+02
5.150717044702011332e-02 2.507481545902642779e+02
5.254771934368549641e-02 3.274453861876957035e+02
5.358826824035087949e-02 4.565452693884274709e+02
5.462881713701626257e-02 6.526771120389108773e+02
5.566936603368164566e-02 9.213720331129985652e+02
5.670991493034702874e-02 1.233931727377329253e+03
5.775046382701241182e-02 1.455057317496725773e+03
5.879101272367779490e-02 1.485607817439955170e+03
5.983156162034317799e-02 1.367376675738618133e+03
6.087211051700856107e-02 1.174839037987712118e+03
6.191265941367394415e-02 9.702333598935510963e+02
6.295320831033933417e-02 7.834864912036025544e+02
6.399375720700471726e-02 6.261421065780642721e+02
6.503430610367010034e-02 5.028347940186574192e+02
6.607485500033548342e-02 4.023596390730410235e+02
6.711540389700086651e-02 3.206446982397905003e+02
6.815595279366624959e-02 2.497958933873470073e+02
6.919650169033163267e-02 1.926779701103674540e+02
7.023705058699701576e-02 1.469839065270096228e+02
7.127759948366239884e-02 1.108038939442950550e+02
7.231814838032778192e-02 8.232554675325079074e+01
7.335869727699316500e-02 6.173516239222334434e+01
7.439924617365854809e-02 4.718782951441977502e+01
7.543979507032393117e-02 3.746297242219494450e+01
7.648034396698931425e-02 2.995455976299317413e+01
7.752089286365469734e-02 2.525014010940975950e+01
7.856144176032008042e-02 2.233102130351101522e+01
7.960199065698546350e-02 1.978437471975778550e+01
8.064253955365084658e-02 1.796134539225314697e+01
8.168308845031622967e-02 1.624234284475207346e+01
8.272363734698161275e-02 1.513166265889194406e+01
8.376418624364699583e-02 1.529416137366763806e+01
8.480473514031239279e-02 1.578704617865538751e+01
8.584528403697777588e-02 1.640633140379047106e+01
8.688583293364315896e-02 1.700520942211294084e+01
8.792638183030854204e-02 1.879646234989491660e+01
8.896693072697392513e-02 2.166212607393142875e+01
9.000747962363930821e-02 2.585796770895433738e+01
9.104802852030469129e-02 3.259690640478051193e+01
9.208857741697007437e-02 4.213643104175044130e+01
9.312912631363545746e-02 5.379367272266384958e+01
9.416967521030084054e-02 6.280970119815644637e+01
9.521022410696622362e-02 6.650303589668727966e+01
9.625077300363160671e-02 6.757052884068417598e+01
9.729132190029698979e-02 6.722141424481340266e+01
9.833187079696237287e-02 6.367234666272291577e+01
9.937241969362775595e-02 6.034516805558862984e+01
1.004129685902931390e-01 5.735169603581093867e+01
1.014535174869585221e-01 5.415027509939044137e+01
1.024940663836239052e-01 5.171564994298778117e+01
1.035346152802892883e-01 5.070192507146103367e+01
1.045751641769546714e-01 5.061028930343106680e+01
1.056157130736200545e-01 5.211354832150684757e+01
1.066562619702854375e-01 5.538955102164148769e+01
1.076968108669508206e-01 6.161865973236277227e+01
1.087373597636162037e-01 6.933427063395332368e+01
1.097779086602815868e-01 7.465238611202603636e+01
1.108184575569469699e-01 7.543261004141609760e+01
1.118590064536123529e-01 7.357906800993806939e+01
1.128995553502777360e-01 7.120262544001892024e+01
1.139401042469431191e-01 6.802574871445310123e+01
1.149806531436085022e-01 6.266202265475094890e+01
1.160212020402738853e-01 5.642067214741467751e+01
1.170617509369392684e-01 4.996352285504967483e+01
1.181022998336046514e-01 4.336047562708711212e+01
1.191428487302700345e-01 3.788416435791691583e+01
1.201833976269354176e-01 3.275892994455684004e+01
1.212239465236008007e-01 2.786974209547543069e+01
1.222644954202661838e-01 2.375544210657090716e+01
1.233050443169315669e-01 2.012018748835685145e+01
1.243455932135969499e-01 1.686832478622228138e+01
1.253861421102623330e-01 1.371974927591853799e+01
1.264266910069277161e-01 1.185424861090480420e+01
1.274672399035930992e-01 1.061342485209431885e+01
1.285077888002584823e-01 9.714528988162502543e+00
1.295483376969238654e-01 8.586293513367682095e+00
1.305888865935892484e-01 7.579139602046698343e+00
1.316294354902546315e-01 7.101224739620022319e+00
1.326699843869200146e-01 6.586065419624844708e+00
1.337105332835853977e-01 5.722199611468074210e+00
1.347510821802507808e-01 5.324789957255944728e+00
1.357916310769161639e-01 5.144037250353459712e+00
1.368321799735815469e-01 5.527192476576420432e+00
1.378727288702469300e-01 5.840721205012332717e+00
1.389132777669123131e-01 5.862966016430036120e+00
1.399538266635776962e-01 6.193192158334422714e+00
1.409943755602430793e-01 6.463752416769104059e+00
1.420349244569084624e-01 6.975705419389701234e+00
1.430754733535738454e-01 8.128168981406730609e+00
1.441160222502392285e-01 1.020921704350031689e+01
1.451565711469046116e-01 1.130119989453649154e+01
1.461971200435699947e-01 1.233770594893975669e+01
1.472376689402353778e-01 1.404004045877812956e+01
1.482782178369007609e-01 1.441132923832176971e+01
1.493187667335661439e-01 1.371783281437139479e+01
1.503593156302315270e-01 1.311379139621580592e+01
1.513998645268969101e-01 1.290008325190614613e+01
1.524404134235622932e-01 1.254581994145172175e+01
1.534809623202276763e-01 1.200766599576918381e+01
1.545215112168930593e-01 1.153349123112899832e+01
1.555620601135584424e-01 1.098969543802953552e+01
1.566026090102238255e-01 1.043985858954984991e+01
1.576431579068892086e-01 1.002883512719520098e+01
1.586837068035545917e-01 9.792522002749777243e+00
1.597242557002199748e-01 9.799644895198809991e+00
1.607648045968853578e-01 9.967096816807369919e+00
1.618053534935507409e-01 1.021877751182186955e+01
1.628459023902161240e-01 1.017001783717922336e+01
1.638864512868815071e-01 9.516182426990237531e+00
1.649270001835468902e-01 9.183014280927814355e+00
1.659675490802122733e-01 8.895173268891447549e+00
1.670080979768776563e-01 8.666143332963603285e+00
1.680486468735430672e-01 8.647200463612861654e+00
1.690891957702084503e-01 8.091651963725361441e+00
1.701297446668738333e-01 8.182771416054201552e+00
1.711702935635392164e-01 7.669695072770821298e+00
1.722108424602045995e-01 7.196215350615688067e+00
1.732513913568699826e-01 6.826200041151292197e+00
1.742919402535353657e-01 6.663369845121255963e+00
1.753324891502007488e-01 6.041378772253185758e+00
1.763730380468661318e-01 5.564781374122954816e+00
1.774135869435315149e-01 5.414070318899021572e+00
1.784541358401968980e-01 5.281713550728621698e+00
1.794946847368622811e-01 4.754252310106533486e+00
1.805352336335276642e-01 4.294222702949134884e+00
1.815757825301930473e-01 3.961108584609714711e+00
1.826163314268584303e-01 3.506467036913559099e+00
1.836568803235238134e-01 3.518739674826246500e+00
1.846974292201891965e-01 3.707616626562195705e+00
1.857379781168545796e-01 3.674648914207651274e+00
1.867785270135199627e-01 3.191436035456323594e+00
1.878190759101853458e-01 3.264267511283001966e+00
1.888596248068507288e-01 3.265994371170194199e+00
1.899001737035161119e-01 3.276259250059673889e+00
1.909407226001814950e-01 3.333238279979127583e+00
1.919812714968468781e-01 3.286853907467566671e+00
1.930218203935122612e-01 3.259740449834271914e+00
1.940623692901776443e-01 3.487357739026162307e+00
1.951029181868430273e-01 3.914169454658335212e+00
1.961434670835084104e-01 3.853939769311448771e+00
1.971840159801737935e-01 3.850935548606337022e+00
1.982245648768391766e-01 3.951018526220703819e+00
1.992651137735045597e-01 4.033791316871042198e+00
2.003056626701699428e-01 4.073911990574565323e+00
2.013462115668353813e-01 3.823104882264480864e+00
2.023867604635007644e-01 3.859955509274023200e+00
2.034273093601661475e-01 4.010690288262697578e+00
2.044678582568315306e-01 3.980647011168212401e+00
2.055084071534969137e-01 3.848631819361632012e+00
2.065489560501622968e-01 3.934958823964006314e+00
2.075895049468276798e-01 3.631513374912941572e+00
2.086300538434930629e-01 3.845780622868367971e+00
2.096706027401584460e-01 3.833316319979147124e+00
2.107111516368238291e-01 3.863463507105784345e+00
2.117517005334892122e-01 3.869792995453614992e+00
2.127922494301545953e-01 3.664989304674932669e+00
2.138327983268199783e-01 3.604526887576128047e+00
2.148733472234853614e-01 3.305786287330612083e+00
2.159138961201507445e-01 3.448228739258155429e+00
2.169544450168161276e-01 3.611405678010633835e+00
2.179949939134815107e-01 3.423606287525316816e+00
2.190355428101468938e-01 3.419212682444221940e+00
2.200760917068122768e-01 3.294423158326221568e+00
2.211166406034776599e-01 3.260135093850017540e+00
2.221571895001430430e-01 3.374920501655346072e+00
2.231977383968084261e-01 3.333975173767502298e+00
2.242382872934738092e-01 3.096313967404899614e+00
2.252788361901391923e-01 2.904956017403669932e+00
2.263193850868045753e-01 2.469314794914655664e+00
2.273599339834699584e-01 2.822191083946290036e+00
2.284004828801353415e-01 2.884695604841649441e+00
2.294410317768007246e-01 2.624497824312779670e+00
2.304815806734661077e-01 2.460780566827505567e+00
2.315221295701314908e-01 2.701711948821298392e+00
2.325626784667968738e-01 2.570371206467157776e+00
2.336032273634622569e-01 2.380542184956276230e+00
2.346437762601276400e-01 2.443986294292407990e+00
2.356843251567930231e-01 2.256237429462615296e+00
2.367248740534584062e-01 2.285145554619166575e+00
2.377654229501237892e-01 2.216610274778897605e+00
2.388059718467891723e-01 1.982932106610888923e+00
2.398465207434545554e-01 2.103155804366778625e+00
2.408870696401199385e-01 2.057269339633940319e+00
2.419276185367853216e-01 2.054385225982478858e+00
2.429681674334507047e-01 2.226886851280507784e+00
2.440087163301160877e-01 2.317897935293505185e+00
2.450492652267814708e-01 2.047766817020171715e+00
2.460898141234468539e-01 2.287875718638698430e+00
2.471303630201122370e-01 2.336680822278268010e+00
2.481709119167776201e-01 2.309039843852872309e+00
2.492114608134430032e-01 1.990756468119773359e+00
2.502520097101083585e-01 2.159191753716921625e+00
2.512925586067737416e-01 2.145424746572231811e+00
2.523331075034391247e-01 2.101202346577107249e+00
2.533736564001045077e-01 2.005704983193254520e+00
2.544142052967698908e-01 2.236625055538187468e+00
2.554547541934352739e-01 2.147822819666444616e+00
2.564953030901006570e-01 2.101917964848404097e+00
2.575358519867660401e-01 2.255387848617615987e+00
2.585764008834314231e-01 2.272371071461272152e+00
2.596169497800968062e-01 2.190150393208448065e+00
2.606574986767621893e-01 2.254679433272794853e+00
2.616980475734275724e-01 2.335486676685150087e+00
2.627385964700929555e-01 2.136148973781789806e+00
2.637791453667583386e-01 1.813463663737334031e+00
2.648196942634237216e-01 1.871581664346795293e+00
2.658602431600891047e-01 2.034618453662169202e+00
2.669007920567544878e-01 1.856367532557928968e+00
2.679413409534198709e-01 1.773272478089861437e+00
2.689818898500852540e-01 1.812243013618587639e+00
2.700224387467506371e-01 2.002953219542462193e+00
2.710629876434160201e-01 2.009436290824808680e+00
2.721035365400814032e-01 1.877388357582127298e+00
2.731440854367467863e-01 1.904618048483339265e+00
2.741846343334121694e-01 2.004168195875013936e+00
2.752251832300775525e-01 1.986685089884581146e+00
2.762657321267429356e-01 1.796387666002864592e+00
2.773062810234083186e-01 1.989251263687588533e+00
2.783468299200737017e-01 1.883994201375493560e+00
2.793873788167390848e-01 1.510748738330253360e+00
2.804279277134044679e-01 1.548395750639755875e+00
2.814684766100698510e-01 1.645946998809819206e+00
2.825090255067352341e-01 1.803770825780986797e+00
2.835495744034006171e-01 1.755280195726093950e+00
2.845901233000660002e-01 1.565654143147938271e+00
2.856306721967313833e-01 1.599940991872028206e+00
2.866712210933967664e-01 1.406105043531312049e+00
2.877117699900621495e-01 1.447752693794313927e+00
2.887523188867275326e-01 1.651478464258193668e+00
2.897928677833929156e-01 1.727253863416887469e+00
2.908334166800582987e-01 1.588239359307888066e+00
2.918739655767236818e-01 1.529995767662057915e+00
2.929145144733890649e-01 1.407374881325424099e+00
2.939550633700544480e-01 1.393867479886257144e+00
2.949956122667198311e-01 1.624290380351073537e+00
2.960361611633852141e-01 1.460392511596857901e+00
2.970767100600505972e-01 1.496840057943426672e+00
2.981172589567159803e-01 1.524527005986477945e+00
2.991578078533813634e-01 1.538474225138333651e+00
3.001983567500468020e-01 1.491041573768256967e+00
3.012389056467121851e-01 1.479971995830393183e+00
3.022794545433775681e-01 1.555378636628311995e+00
3.033200034400429512e-01 1.198935200896169562e+00
3.043605523367083343e-01 1.004136279991634240e+00
3.054011012333737174e-01 1.159243978630843941e+00
3.064416501300391005e-01 1.164529011412991366e+00
3.074821990267044836e-01 1.255540899408803313e+00
3.085227479233698666e-01 1.251693516055141231e+00
3.095632968200352497e-01 1.233559338740729316e+00
3.106038457167006328e-01 1.434520746574321493e+00
3.116443946133660159e-01 1.342517239981489752e+00
3.126849435100313990e-01 1.535693632392423069e+00
3.137254924066967821e-01 1.581386759848854240e+00
3.147660413033621651e-01 1.355107844224779257e+00
3.158065902000275482e-01 1.273605864451930358e+00
3.168471390966929313e-01 1.227691106660138587e+00
3.178876879933583144e-01 1.170983007560710831e+00
3.189282368900236975e-01 1.265150325802959941e+00
3.199687857866890806e-01 1.357148694925911059e+00
3.210093346833544636e-01 1.180048650722820724e+00
3.220498835800198467e-01 1.144668813024161125e+00
3.230904324766852298e-01 1.191837853526777735e+00
3.241309813733506129e-01 1.378912631157973578e+00
3.251715302700159960e-01 1.275650927420077352e+00
3.262120791666813790e-01 1.191257772494900280e+00
3.272526280633467621e-01 1.269449116995968296e+00
3.282931769600121452e-01 1.198768933621039423e+00
3.293337258566775283e-01 1.163957796621275520e+00
3.303742747533429114e-01 1.366275087563455060e+00
3.314148236500082945e-01 1.199007074377487214e+00
3.324553725466736775e-01 1.113679745501876539e+00
3.334959214433390606e-01 1.155497121956258866e+00
3.345364703400044437e-01 1.081086475181720630e+00
3.355770192366698268e-01 8.869876547017554458e-01
3.366175681333352099e-01 8.694471286166702839e-01
3.376581170300005930e-01 9.111766020853799830e-01
3.386986659266659760e-01 9.819397796072664164e-01
3.397392148233313591e-01 8.960025761720800119e-01
3.407797637199967422e-01 7.929719808376773926e-01
3.418203126166621253e-01 9.110129276198151160e-01
3.428608615133275084e-01 8.447376295324424689e-01
3.439014104099928915e-01 8.569525871857699428e-01
3.449419593066582745e-01 8.492121557373089047e-01
3.459825082033236576e-01 8.561592570337808183e-01
3.470230570999890407e-01 8.469206931341197730e-01
3.480636059966544238e-01 1.065205497654996947e+00
3.491041548933198069e-01 1.281316098093782330e+00
3.501447037899851900e-01 1.066002426782631574e+00
3.511852526866505730e-01 8.679141362551057171e-01
3.522258015833159561e-01 8.733168273612967880e-01
3.532663504799813392e-01 8.562420859615897939e-01
3.543068993766467223e-01 8.807657430115121144e-01
3.553474482733121054e-01 8.458016787728546149e-01
3.563879971699774885e-01 1.129816732241280874e+00
3.574285460666428715e-01 1.180548929152767101e+00
3.584690949633082546e-01 1.133353104243919773e+00
3.595096438599736377e-01 1.028024834780527641e+00
3.605501927566390208e-01 9.487572548482567925e-01
3.615907416533044039e-01 9.175189946054764789e-01
3.626312905499697870e-01 8.987536803448783473e-01
3.636718394466351700e-01 1.078190272430596508e+00
3.647123883433005531e-01 1.015978985172054649e+00
3.657529372399659362e-01 9.020357140589396749e-01
3.667934861366313193e-01 9.450312566281695581e-01
3.678340350332967024e-01 9.954061104905349566e-01
3.688745839299620854e-01 9.270268054591213058e-01
3.699151328266274685e-01 6.922817665127816156e-01
3.709556817232928516e-01 5.911919515214165699e-01
3.719962306199582347e-01 7.167801044370420982e-01
3.730367795166236178e-01 7.793267205049794200e-01
3.740773284132890009e-01 7.575516556176715710e-01
3.751178773099543839e-01 6.786148314277760107e-01
3.761584262066197670e-01 8.248643287456971507e-01
3.771989751032851501e-01 1.009388149120667322e+00
3.782395239999505332e-01 1.040060873693175125e+00
3.792800728966159163e-01 8.892414003673572154e-01
3.803206217932812994e-01 8.508690026439928999e-01
3.813611706899466824e-01 8.364716431439944699e-01
3.824017195866120655e-01 7.034056517093141281e-01
3.834422684832774486e-01 6.642466219986360443e-01
3.844828173799428317e-01 5.350355343632813288e-01
3.855233662766082148e-01 7.783279897540644754e-01
3.865639151732735979e-01 9.406771595998364432e-01
3.876044640699389809e-01 8.181426440731947025e-01
3.886450129666043640e-01 8.643129611628594944e-01
3.896855618632697471e-01 9.082983417721059993e-01
3.907261107599351302e-01 8.149315088916431193e-01
3.917666596566005133e-01 7.385621314361010548e-01
3.928072085532658964e-01 8.010815436647291676e-01
3.938477574499312794e-01 8.073556499719813928e-01
3.948883063465966625e-01 7.561772169131693033e-01
3.959288552432620456e-01 5.799098883723878828e-01
3.969694041399274287e-01 5.562485500039784370e-01
3.980099530365928118e-01 6.172178528372107564e-01
3.990505019332581949e-01 5.335857818737856917e-01
4.000910508299235779e-01 5.839224814465104885e-01
4.011315997265889610e-01 5.939404006102151357e-01
4.021721486232543441e-01 6.470309759456362997e-01
4.032126975199197272e-01 5.674920920477930508e-01
4.042532464165851103e-01 6.302446780393182735e-01
4.052937953132504934e-01 5.979752088287533240e-01
4.063343442099158764e-01 5.352700582041229893e-01
4.073748931065812595e-01 5.213810072938791507e-01
4.084154420032466426e-01 5.597601482843472809e-01
4.094559908999120257e-01 4.184333761124996443e-01
4.104965397965774088e-01 4.803389941007480957e-01
4.115370886932427918e-01 3.947180178792457639e-01
4.125776375899081749e-01 4.548662390102400366e-01
4.136181864865735580e-01 6.336042491239091135e-01
4.146587353832389411e-01 7.725402365671989457e-01
4.156992842799043242e-01 7.378464498709575992e-01
4.167398331765697073e-01 5.850158547554649147e-01
4.177803820732350903e-01 6.579986530527826005e-01
4.188209309699004734e-01 6.583806932739832973e-01
4.198614798665658565e-01 5.591848128327896461e-01
4.209020287632312396e-01 6.219368574337842404e-01
4.219425776598966227e-01 6.151146203050608108e-01
4.229831265565620058e-01 6.258472363747920042e-01
4.240236754532273888e-01 5.832997952536196351e-01
4.250642243498927719e-01 6.255491073518371081e-01
4.261047732465581550e-01 5.727122295787161477e-01
4.271453221432235381e-01 6.683455148393520062e-01
4.281858710398889212e-01 5.569705328156899782e-01
4.292264199365543043e-01 5.582679491666588945e-01
4.302669688332196873e-01 7.002276910991227510e-01
4.313075177298850704e-01 6.288745136895954602e-01
4.323480666265504535e-01 3.710586815554179907e-01
4.333886155232158366e-01 5.587722987715366685e-01
4.344291644198812197e-01 6.215991011540005218e-01
