# q (1/Angstrom), Intensity (arb)
2.029070354705860696e-02 2.638141344436368172e+02
2.133125244372399004e-02 2.286591890504842581e+02
2.237180134038937659e-02 2.024459932957171588e+02
2.341235023705475968e-02 1.833948284453491340e+02
2.445289913372014276e-02 1.643574503376309508e+02
2.549344803038552584e-02 1.526655811885778178e+02
2.653399692705091240e-02 1.414391547554421606e+02
2.757454582371629548e-02 1.322381615129935710e+02
2.861509472038167856e-02 1.248501601890666137e+02
2.965564361704706164e-02 1.170356011231842928e+02
3.069619251371244473e-02 1.112630363773484987e+02
3.173674141037782781e-02 1.087007222664736190e+02
3.277729030704321089e-02 1.061765235365897979e+02
3.381783920370859398e-02 1.033760452369719474e+02
3.485838810037397706e-02 1.006583808312265944e+02
3.589893699703936014e-02 9.828524920797028130e+01
3.693948589370474322e-02 9.823966701691705339e+01
3.798003479037012631e-02 9.903532367045109197e+01
3.902058368703550939e-02 9.875450684918466493e+01
4.006113258370089247e-02 1.004960524953725951e+02
4.110168148036627556e-02 1.032412812944324685e+02
4.214223037703165864e-02 1.058677124313803546e+02
4.318277927369704866e-02 1.110398537533742740e+02
4.422332817036243174e-02 1.168074176521585770e+02
4.526387706702781483e-02 1.255260576684646026e+02
4.630442596369319791e-02 1.350657988793847437e+02
4.734497486035858099e-02 1.466827417213020794e+02
4.838552375702396408e-02 1.615353835205440021e+02
4.942607265368934716e-02 1.828790714580574672e+02
5.046662155035473024e-02 2.146560178620796364e+02
5.150717044702011332e-02 2.649929113422130627e+02
5.254771934368549641e-02 3.517108195537753659e+02
5.358826824035087949e-02 4.953619877137910521e+02
5.462881713701626257e-02 7.052468564748892277e+02
5.566936603368164566e-02 9.920743245875719367e+02
5.670991493034702874e-02 1.317083532809268036e+03
5.775046382701241182e-02 1.525008954778953466e+03
5.879101272367779490e-02 1.524710935049092541e+03
5.983156162034317799e-02 1.382062659851696253e+03
6.087211051700856107e-02 1.182020617200854304e+03
6.191265941367394415e-02 9.722657802526613295e+02
6.295320831033933417e-02 7.830888239756953908e+02
6.399375720700471726e-02 6.283284791984925732e+02
6.503430610367010034e-02 5.031247975623391540e+02
6.607485500033548342e-02 4.033072640464308733e+02
6.711540389700086651e-02 3.220503981622105130e+02
6.815595279366624959e-02 2.517977307750688283e+02
6.919650169033163267e-02 1.933299320215469095e+02
7.023705058699701576e-02 1.456329577971636411e+02
7.127759948366239884e-02 1.086722493880952527e+02
7.231814838032778192e-02 8.158226871053872742e+01
7.335869727699316500e-02 6.200370857093834331e+01
7.439924617365854809e-02 4.745558863044750808e+01
7.543979507032393117e-02 3.698181012253879629e+01
7.648034396698931425e-02 2.986893255997481589e+01
7.752089286365469734e-02 2.540892324435592542e+01
7.856144176032008042e-02 2.207570348016784578e+01
7.960199065698546350e-02 1.876177257641942120e+01
8.064253955365084658e-02 1.684268156399923200e+01
8.168308845031622967e-02 1.580724299572443670e+01
8.272363734698161275e-02 1.509156491922024301e+01
8.376418624364699583e-02 1.534833660284018109e+01
8.480473514031239279e-02 1.573696441479724228e+01
8.584528403697777588e-02 1.655423852677352059e+01
8.688583293364315896e-02 1.746807774476821962e+01
8.792638183030854204e-02 1.916959908417512182e+01
8.896693072697392513e-02 2.193837207336091311e+01
9.000747962363930821e-02 2.701109218388281619e+01
9.104802852030469129e-02 3.394907078832549985e+01
9.208857741697007437e-02 4.477366545401757492e+01
9.312912631363545746e-02 5.638825160697734162e+01
9.416967521030084054e-02 6.367322154324592987e+01
9.521022410696622362e-02 6.562124524358479505e+01
9.625077300363160671e-02 6.579744503136072353e+01
9.729132190029698979e-02 6.572928402380016166e+01
9.833187079696237287e-02 6.303408056838350149e+01
9.937241969362775595e-02 5.946089512030154367e+01
1.004129685902931390e-01 5.664405929213599933e+01
1.014535174869585221e-01 5.383255861182625779e+01
1.024940663836239052e-01 5.145730834931882214e+01
1.035346152802892883e-01 5.067315526890127586e+01
1.045751641769546714e-01 5.120669456899515382e+01
1.056157130736200545e-01 5.290926199875818980e+01
1.066562619702854375e-01 5.717064985768796248e+01
1.076968108669508206e-01 6.469442269755734287e+01
1.087373597636162037e-01 7.261416629348168783e+01
1.097779086602815868e-01 7.767825655637045656e+01
1.108184575569469699e-01 7.832355834416557627e+01
1.118590064536123529e-01 7.527826017755310772e+01
1.128995553502777360e-01 7.247076574597784315e+01
1.139401042469431191e-01 6.864449647185054459e+01
1.149806531436085022e-01 6.279624196465708508e+01
1.160212020402738853e-01 5.613242583120252505e+01
1.170617509369392684e-01 4.956771130519722135e+01
1.181022998336046514e-01 4.307759139954606553e+01
1.191428487302700345e-01 3.734735699902291373e+01
1.201833976269354176e-01 3.198253243432768045e+01
1.212239465236008007e-01 2.722652058293350308e+01
1.222644954202661838e-01 2.291005222043838785e+01
1.233050443169315669e-01 1.941104720745193291e+01
1.243455932135969499e-01 1.654871894143453659e+01
1.253861421102623330e-01 1.397905883609716327e+01
1.264266910069277161e-01 1.169763666356222132e+01
1.274672399035930992e-01 9.904948114893240785e+00
1.285077888002584823e-01 8.587659139137901576e+00
1.295483376969238654e-01 7.648537968853261759e+00
1.305888865935892484e-01 7.029838438944050694e+00
1.316294354902546315e-01 5.903813537831311464e+00
1.326699843869200146e-01 5.879140847522105418e+00
1.337105332835853977e-01 5.693997533756249396e+00
1.347510821802507808e-01 5.359716779423514765e+00
1.357916310769161639e-01 5.258632043054809913e+00
1.368321799735815469e-01 5.212651153657105851e+00
1.378727288702469300e-01 5.235051293498774072e+00
1.389132777669123131e-01 5.330559283597704479e+00
1.399538266635776962e-01 5.726843651478766617e+00
1.409943755602430793e-01 6.295931626396061631e+00
1.420349244569084624e-01 7.552953227375628131e+00
1.430754733535738454e-01 8.890937844306677107e+00
1.441160222502392285e-01 9.935565527823193577e+00
1.451565711469046116e-01 1.128859443457900014e+01
1.461971200435699947e-01 1.276022800806624602e+01
1.472376689402353778e-01 1.331775159443278511e+01
1.482782178369007609e-01 1.351768762026236104e+01
1.493187667335661439e-01 1.316821675943856818e+01
1.503593156302315270e-01 1.270215160560772816e+01
1.513998645268969101e-01 1.247400915967958568e+01
1.524404134235622932e-01 1.220156815057815081e+01
1.534809623202276763e-01 1.169918181139477298e+01
1.545215112168930593e-01 1.115756845262128749e+01
1.555620601135584424e-01 1.053614240907042188e+01
1.566026090102238255e-01 1.004475103504267253e+01
1.576431579068892086e-01 9.582854489163732836e+00
1.586837068035545917e-01 9.841059274155259828e+00
1.597242557002199748e-01 1.000092512704485515e+01
1.607648045968853578e-01 1.015089263787432117e+01
1.618053534935507409e-01 1.000076361304223482e+01
1.628459023902161240e-01 9.569670816204251196e+00
1.638864512868815071e-01 9.407054080104668259e+00
1.649270001835468902e-01 9.098450070285757363e+00
1.659675490802122733e-01 8.707110504560876763e+00
1.670080979768776563e-01 8.344918263902631139e+00
1.680486468735430672e-01 8.278401349127133102e+00
1.690891957702084503e-01 7.910090223608253979e+00
1.701297446668738333e-01 7.789241634684827886e+00
1.711702935635392164e-01 7.427327136842134081e+00
1.722108424602045995e-01 7.427799899966565533e+00
1.732513913568699826e-01 6.915213423240661683e+00
1.742919402535353657e-01 6.133989127158525179e+00
1.753324891502007488e-01 5.817891288262050153e+00
1.763730380468661318e-01 5.473797693149293764e+00
1.774135869435315149e-01 5.173629394548150628e+00
1.784541358401968980e-01 4.885079287573010021e+00
1.794946847368622811e-01 4.693975161763756176e+00
1.805352336335276642e-01 4.468969981841890871e+00
1.815757825301930473e-01 4.023980364950126898e+00
1.826163314268584303e-01 3.987984790732518547e+00
1.836568803235238134e-01 3.816607773975505324e+00
1.846974292201891965e-01 3.641545560350905930e+00
1.857379781168545796e-01 3.515356274682027049e+00
1.867785270135199627e-01 3.512227133663827772e+00
1.878190759101853458e-01 3.502639367804704307e+00
1.888596248068507288e-01 3.527329931797847706e+00
1.899001737035161119e-01 3.462549680279494169e+00
1.909407226001814950e-01 3.237671783498782929e+00
1.919812714968468781e-01 3.451858045314800449e+00
1.930218203935122612e-01 3.656952468969667081e+00
1.940623692901776443e-01 3.338348737863562121e+00
1.951029181868430273e-01 3.540633911469665662e+00
1.961434670835084104e-01 4.032790914906051682e+00
1.971840159801737935e-01 3.980191149504413772e+00
1.982245648768391766e-01 3.912966693424326792e+00
1.992651137735045597e-01 3.914391880949239066e+00
2.003056626701699428e-01 3.964767696027909238e+00
2.013462115668353813e-01 3.802416198137628101e+00
2.023867604635007644e-01 3.605366882923444649e+00
2.034273093601661475e-01 3.637526360438759099e+00
2.044678582568315306e-01 3.639183497648108556e+00
2.055084071534969137e-01 3.680316675896733614e+00
2.065489560501622968e-01 3.494424964124341670e+00
2.075895049468276798e-01 3.695430510300148796e+00
2.086300538434930629e-01 3.793876024858889195e+00
2.096706027401584460e-01 3.582973824309778621e+00
2.107111516368238291e-01 3.654074024453286995e+00
2.117517005334892122e-01 3.592424312431298006e+00
2.127922494301545953e-01 3.593515555898832758e+00
2.138327983268199783e-01 3.727508904676462009e+00
2.148733472234853614e-01 3.366111760098977612e+00
2.159138961201507445e-01 3.265668555613757462e+00
2.169544450168161276e-01 3.242811922919365486e+00
2.179949939134815107e-01 3.222991538082304430e+00
2.190355428101468938e-01 3.330229491214709014e+00
2.200760917068122768e-01 3.259266531259399358e+00
2.211166406034776599e-01 3.135791875320528277e+00
2.221571895001430430e-01 3.133843724820877696e+00
2.231977383968084261e-01 3.152616246739022188e+00
2.242382872934738092e-01 3.005304988565434599e+00
2.252788361901391923e-01 3.040648058698320000e+00
2.263193850868045753e-01 2.815775947452625161e+00
2.273599339834699584e-01 2.618156458647462159e+00
2.284004828801353415e-01 3.015185626152515397e+00
2.294410317768007246e-01 2.903127452764344696e+00
2.304815806734661077e-01 2.625404112544128310e+00
2.315221295701314908e-01 2.461727467081267662e+00
2.325626784667968738e-01 2.453053186052770229e+00
2.336032273634622569e-01 2.496019742549819398e+00
2.346437762601276400e-01 2.428252497592090720e+00
2.356843251567930231e-01 2.295907139572314293e+00
2.367248740534584062e-01 2.502760344221133693e+00
2.377654229501237892e-01 2.280908226599574817e+00
2.388059718467891723e-01 2.150022319488630984e+00
2.398465207434545554e-01 2.220100387496618310e+00
2.408870696401199385e-01 2.132078208179397194e+00
2.419276185367853216e-01 2.146653391422148616e+00
2.429681674334507047e-01 1.891618985460727487e+00
2.440087163301160877e-01 1.995926585712744838e+00
2.450492652267814708e-01 1.988427426672235043e+00
2.460898141234468539e-01 1.980279891248258650e+00
2.471303630201122370e-01 2.105308096951493013e+00
2.481709119167776201e-01 2.000969056202063001e+00
2.492114608134430032e-01 1.982787066564426937e+00
2.502520097101083585e-01 2.141373758909654867e+00
2.512925586067737416e-01 2.034721816943701356e+00
2.523331075034391247e-01 2.246341445559412620e+00
2.533736564001045077e-01 2.319585125083396093e+00
2.544142052967698908e-01 2.347330342354567279e+00
2.554547541934352739e-01 2.030430858162826979e+00
2.564953030901006570e-01 2.029153117375255277e+00
2.575358519867660401e-01 2.368604032473626830e+00
2.585764008834314231e-01 2.236972539126117709e+00
2.596169497800968062e-01 2.108042655776845464e+00
2.606574986767621893e-01 1.883117235417305579e+00
2.616980475734275724e-01 2.076322380950919921e+00
2.627385964700929555e-01 1.954499190495901928e+00
2.637791453667583386e-01 1.722085806455442736e+00
2.648196942634237216e-01 1.796414144655660294e+00
2.658602431600891047e-01 1.648730460138626341e+00
2.669007920567544878e-01 1.689208216390749584e+00
2.679413409534198709e-01 1.917852109177651698e+00
2.689818898500852540e-01 1.825168834390549222e+00
2.700224387467506371e-01 2.032145823239300597e+00
2.710629876434160201e-01 1.951834609257282693e+00
2.721035365400814032e-01 1.817674058903882894e+00
2.731440854367467863e-01 1.797264655340278239e+00
2.741846343334121694e-01 1.611414033396187051e+00
2.752251832300775525e-01 1.869338780801662381e+00
2.762657321267429356e-01 1.781559552265509438e+00
2.773062810234083186e-01 1.697423372786751372e+00
2.783468299200737017e-01 1.636753469280453288e+00
2.793873788167390848e-01 1.827691720606249959e+00
2.804279277134044679e-01 1.778994273414454597e+00
2.814684766100698510e-01 1.661043194733828443e+00
2.825090255067352341e-01 2.004892384660813320e+00
2.835495744034006171e-01 1.983968185591464817e+00
2.845901233000660002e-01 1.694139573000729371e+00
2.856306721967313833e-01 1.522707808404277330e+00
2.866712210933967664e-01 1.603297034582698899e+00
2.877117699900621495e-01 1.508416640782549223e+00
2.887523188867275326e-01 1.471531817382125240e+00
2.897928677833929156e-01 1.254738456560104964e+00
2.908334166800582987e-01 1.442918562675043148e+00
2.918739655767236818e-01 1.650056354585366591e+00
2.929145144733890649e-01 1.541971493395166704e+00
2.939550633700544480e-01 1.666678432189392822e+00
2.949956122667198311e-01 1.789456315007122100e+00
2.960361611633852141e-01 1.597938739445520895e+00
2.970767100600505972e-01 1.533268480567752334e+00
2.981172589567159803e-01 1.476014598196314864e+00
2.991578078533813634e-01 1.532553805993497775e+00
3.001983567500468020e-01 1.396750147838016431e+00
3.012389056467121851e-01 1.246273064223125004e+00
3.022794545433775681e-01 1.193628465306368014e+00
3.033200034400429512e-01 1.155914878395623901e+00
3.043605523367083343e-01 1.174948706331967685e+00
3.054011012333737174e-01 1.236906091144980735e+00
3.064416501300391005e-01 1.352097959903737490e+00
3.074821990267044836e-01 1.208556842083776672e+00
3.085227479233698666e-01 1.252963983228148948e+00
3.095632968200352497e-01 1.417113949167298159e+00
3.106038457167006328e-01 1.352741400755220980e+00
3.116443946133660159e-01 1.408814500182931084e+00
3.126849435100313990e-01 1.441065733763167600e+00
3.137254924066967821e-01 1.383971118971640379e+00
3.147660413033621651e-01 1.290847215985991170e+00
3.158065902000275482e-01 1.354018899657450703e+00
3.168471390966929313e-01 1.300020020584522484e+00
3.178876879933583144e-01 1.294932175651684503e+00
3.189282368900236975e-01 1.182424508394063878e+00
3.199687857866890806e-01 1.245926727555410451e+00
3.210093346833544636e-01 1.305051995904619844e+00
3.220498835800198467e-01 1.124883290362529209e+00
3.230904324766852298e-01 1.289546602655619267e+00
3.241309813733506129e-01 1.420486266078444970e+00
3.251715302700159960e-01 1.437698924651240162e+00
3.262120791666813790e-01 1.251884900596760275e+00
3.272526280633467621e-01 1.257216244248162695e+00
3.282931769600121452e-01 1.253427089672136674e+00
3.293337258566775283e-01 1.158418438574866371e+00
3.303742747533429114e-01 1.288070689032032590e+00
3.314148236500082945e-01 1.295551194724630761e+00
3.324553725466736775e-01 1.136368968160287096e+00
3.334959214433390606e-01 9.416631977135985210e-01
3.345364703400044437e-01 8.305877590664465515e-01
3.355770192366698268e-01 1.120252485348121496e+00
3.366175681333352099e-01 9.814844235619553103e-01
3.376581170300005930e-01 1.106059216481554586e+00
3.386986659266659760e-01 1.246735602119141362e+00
3.397392148233313591e-01 1.094937393359678879e+00
3.407797637199967422e-01 9.715922696349785781e-01
3.418203126166621253e-01 9.551369050572162678e-01
3.428608615133275084e-01 9.132574979815792915e-01
3.439014104099928915e-01 7.864347311267039231e-01
3.449419593066582745e-01 9.050280034409077246e-01
3.459825082033236576e-01 9.334426601338350338e-01
3.470230570999890407e-01 1.012535105033244065e+00
3.480636059966544238e-01 9.989333487309153270e-01
3.491041548933198069e-01 8.761563217067518394e-01
3.501447037899851900e-01 9.580496905602515767e-01
3.511852526866505730e-01 1.072187503857207957e+00
3.522258015833159561e-01 9.399001130497488532e-01
3.532663504799813392e-01 8.214869855793374143e-01
3.543068993766467223e-01 6.992246069844441081e-01
3.553474482733121054e-01 5.727741046466263697e-01
3.563879971699774885e-01 8.233399137288976988e-01
3.574285460666428715e-01 9.545342790248803055e-01
3.584690949633082546e-01 9.066991443214469371e-01
3.595096438599736377e-01 9.698425304937394742e-01
3.605501927566390208e-01 9.751691888820808174e-01
3.615907416533044039e-01 8.455644904569332709e-01
3.626312905499697870e-01 7.924672475297747098e-01
3.636718394466351700e-01 8.179567824175784096e-01
3.647123883433005531e-01 7.968349278679980330e-01
3.657529372399659362e-01 7.944395092347882326e-01
3.667934861366313193e-01 8.122623985705565985e-01
3.678340350332967024e-01 6.030256776471816238e-01
3.688745839299620854e-01 6.928545988754244433e-01
3.699151328266274685e-01 8.538505768620190395e-01
3.709556817232928516e-01 1.007874979455966269e+00
3.719962306199582347e-01 1.011424219260977253e+00
3.730367795166236178e-01 9.694436185481407620e-01
3.740773284132890009e-01 7.713260720693426720e-01
3.751178773099543839e-01 7.594083544026304367e-01
3.761584262066197670e-01 7.673242823883299479e-01
3.771989751032851501e-01 5.868650264743386913e-01
3.782395239999505332e-01 6.436521132859560623e-01
3.792800728966159163e-01 7.679599635645928402e-01
3.803206217932812994e-01 8.303202891780365746e-01
3.813611706899466824e-01 7.361840320299855023e-01
3.824017195866120655e-01 8.133059690124575525e-01
3.834422684832774486e-01 8.779493506537860981e-01
3.844828173799428317e-01 8.192321563106048643e-01
3.855233662766082148e-01 7.773856659087172716e-01
3.865639151732735979e-01 7.216920629454648406e-01
3.876044640699389809e-01 6.274112381561636198e-01
3.886450129666043640e-01 6.420473535154087585e-01
3.896855618632697471e-01 7.692127465671951825e-01
3.907261107599351302e-01 6.802674328434292761e-01
3.917666596566005133e-01 7.952724543778231237e-01
3.928072085532658964e-01 7.563028080834790501e-01
3.938477574499312794e-01 6.509577034855418276e-01
3.948883063465966625e-01 5.486940873093288928e-01
3.959288552432620456e-01 7.103075134090666154e-01
3.969694041399274287e-01 7.185137869948334810e-01
3.980099530365928118e-01 6.456471360913553781e-01
3.990505019332581949e-01 4.547579976080626807e-01
4.000910508299235779e-01 5.363302370841402933e-01
4.011315997265889610e-01 6.813101940037817883e-01
4.021721486232543441e-01 5.521091429231468339e-01
4.032126975199197272e-01 3.935682914586990933e-01
4.042532464165851103e-01 4.809068787611856521e-01
4.052937953132504934e-01 5.394632459802579660e-01
4.063343442099158764e-01 7.795955648680887862e-01
4.073748931065812595e-01 5.484738295961868459e-01
4.084154420032466426e-01 5.734317366077092970e-01
4.094559908999120257e-01 5.811417357632642222e-01
4.104965397965774088e-01 6.020867770414781717e-01
4.115370886932427918e-01 5.619944036109423280e-01
4.125776375899081749e-01 4.624140098483877637e-01
4.136181864865735580e-01 6.595758453868469928e-01
4.146587353832389411e-01 6.891986099320455139e-01
4.156992842799043242e-01 5.441328884124061460e-01
4.167398331765697073e-01 4.426760108301017738e-01
4.177803820732350903e-01 6.877049478177781339e-01
4.188209309699004734e-01 7.318592246775992294e-01
4.198614798665658565e-01 7.393641706148343928e-01
4.209020287632312396e-01 6.242912893155825316e-01
4.219425776598966227e-01 5.583043798666587065e-01
4.229831265565620058e-01 4.469894472168896016e-01
4.240236754532273888e-01 5.553044868364338527e-01
4.250642243498927719e-01 6.546720409639767979e-01
4.261047732465581550e-01 6.203656273660733689e-01
4.271453221432235381e-01 5.766000914094746577e-01
4.281858710398889212e-01 3.782197385526302469e-01
4.292264199365543043e-01 3.365040214264283236e-01
4.302669688332196873e-01 3.794163870668079142e-01
4.313075177298850704e-01 4.268544246456187352e-01
4.323480666265504535e-01 6.168362230056203543e-01
4.333886155232158366e-01 6.998796292302849054e-01
4.344291644198812197e-01 5.881124297440045723e-01
