# q (1/Angstrom), Intensity (arb)
2.029070354705860696e-02 2.551421150285159456e+02
2.133125244372399004e-02 2.227945736784929238e+02
2.237180134038937659e-02 1.977926106351996225e+02
2.341235023705475968e-02 1.767567749540282591e+02
2.445289913372014276e-02 1.612772600059469994e+02
2.549344803038552584e-02 1.488106970756483065e+02
2.653399692705091240e-02 1.369238963439198642e+02
2.757454582371629548e-02 1.280055364479021307e+02
2.861509472038167856e-02 1.206237843932082541e+02
2.965564361704706164e-02 1.128289832917996023e+02
3.069619251371244473e-02 1.085786987915324602e+02
3.173674141037782781e-02 1.055530489936644045e+02
3.277729030704321089e-02 1.028949939199772388e+02
3.381783920370859398e-02 9.951380625631743726e+01
3.485838810037397706e-02 9.631823411398247003e+01
3.589893699703936014e-02 9.503400372304382415e+01
3.693948589370474322e-02 9.361532997612783902e+01
3.798003479037012631e-02 9.382157814124961703e+01
3.902058368703550939e-02 9.391468820854302635e+01
4.006113258370089247e-02 9.450747339540730252e+01
4.110168148036627556e-02 9.535368813814957889e+01
4.214223037703165864e-02 9.779775789648678597e+01
4.318277927369704866e-02 1.020439042993311034e+02
4.422332817036243174e-02 1.060125708499517998e+02
4.526387706702781483e-02 1.126830206807717758e+02
4.630442596369319791e-02 1.222006875026867476e+02
4.734497486035858099e-02 1.333356188094258528e+02
4.838552375702396408e-02 1.467858645659652268e+02
4.942607265368934716e-02 1.641657262900958756e+02
5.046662155035473024e-02 1.888019536586280651e+02
5.150717044702011332e-02 2.268474434616860549e+02
5.254771934368549641e-02 2.896143160168078907e+02
5.358826824035087949e-02 3.993793875145319134e+02
5.462881713701626257e-02 5.638290184321260767e+02
5.566936603368164566e-02 7.994132502013958401e+02
5.670991493034702874e-02 1.090213038049133274e+03
5.775046382701241182e-02 1.322820480715790609e+03
5.879101272367779490e-02 1.387237020543554991e+03
5.983156162034317799e-02 1.299065787282007705e+03
6.087211051700856107e-02 1.130263890219340510e+03
6.191265941367394415e-02 9.382625497986655319e+02
6.295320831033933417e-02 7.582511569601732617e+02
6.399375720700471726e-02 6.059996839822636048e+02
6.503430610367010034e-02 4.861677485157274532e+02
6.607485500033548342e-02 3.883881323561063823e+02
6.711540389700086651e-02 3.096527707087745966e+02
6.815595279366624959e-02 2.428804509394138336e+02
6.919650169033163267e-02 1.872787302924919288e+02
7.023705058699701576e-02 1.427798829983510700e+02
7.127759948366239884e-02 1.075125584924171562e+02
7.231814838032778192e-02 8.050323749617292890e+01
7.335869727699316500e-02 6.105967095147559576e+01
7.439924617365854809e-02 4.703958828379491308e+01
7.543979507032393117e-02 3.631821791851932346e+01
7.648034396698931425e-02 3.005739857380813262e+01
7.752089286365469734e-02 2.505797182768338160e+01
7.856144176032008042e-02 2.138646603461039319e+01
7.960199065698546350e-02 1.885640491475667702e+01
8.064253955365084658e-02 1.684319956254115525e+01
8.168308845031622967e-02 1.578671244850908195e+01
8.272363734698161275e-02 1.479051024508427048e+01
8.376418624364699583e-02 1.441428856883588239e+01
8.480473514031239279e-02 1.419377738027496605e+01
8.584528403697777588e-02 1.499470453572471840e+01
8.688583293364315896e-02 1.584359956442164119e+01
8.792638183030854204e-02 1.732898464143083928e+01
8.896693072697392513e-02 2.017912242117252930e+01
9.000747962363930821e-02 2.357963841920075510e+01
9.104802852030469129e-02 2.923968281304875205e+01
9.208857741697007437e-02 3.750854423678316607e+01
9.312912631363545746e-02 4.838154638667193552e+01
9.416967521030084054e-02 5.770980577346180951e+01
9.521022410696622362e-02 6.275780813451643070e+01
9.625077300363160671e-02 6.488853675965641798e+01
9.729132190029698979e-02 6.400288489538991143e+01
9.833187079696237287e-02 6.198885418924198376e+01
9.937241969362775595e-02 5.892834202913658714e+01
1.004129685902931390e-01 5.594290243988503164e+01
1.014535174869585221e-01 5.334068895763782336e+01
1.024940663836239052e-01 5.058795630672606336e+01
1.035346152802892883e-01 4.811053834257867834e+01
1.045751641769546714e-01 4.717815037162642966e+01
1.056157130736200545e-01 4.801866863363649429e+01
1.066562619702854375e-01 4.992781626823921215e+01
1.076968108669508206e-01 5.377825596442087175e+01
1.087373597636162037e-01 6.062753008110759367e+01
1.097779086602815868e-01 6.679350077638667926e+01
1.108184575569469699e-01 6.954796133487354837e+01
1.118590064536123529e-01 6.856295342856142838e+01
1.128995553502777360e-01 6.688912758525982838e+01
1.139401042469431191e-01 6.470809954258015750e+01
1.149806531436085022e-01 6.000755780803652328e+01
1.160212020402738853e-01 5.453906311443641641e+01
1.170617509369392684e-01 4.845553924281447422e+01
1.181022998336046514e-01 4.273010225988008415e+01
1.191428487302700345e-01 3.709228226348206192e+01
1.201833976269354176e-01 3.144135586436178897e+01
1.212239465236008007e-01 2.698644430582197273e+01
1.222644954202661838e-01 2.328019463519492405e+01
1.233050443169315669e-01 1.976427262673753305e+01
1.243455932135969499e-01 1.633456577239880403e+01
1.253861421102623330e-01 1.364696477144851983e+01
1.264266910069277161e-01 1.187800142696853456e+01
1.274672399035930992e-01 1.001263537941456505e+01
1.285077888002584823e-01 8.966557961117683107e+00
1.295483376969238654e-01 7.795309160621613387e+00
1.305888865935892484e-01 7.200644685361048403e+00
1.316294354902546315e-01 6.195163592643897488e+00
1.326699843869200146e-01 5.697325401521279531e+00
1.337105332835853977e-01 5.398783240252949867e+00
1.347510821802507808e-01 4.789343209289480541e+00
1.357916310769161639e-01 4.487357087453197835e+00
1.368321799735815469e-01 4.390880591699875879e+00
1.378727288702469300e-01 4.841090183489313858e+00
1.389132777669123131e-01 5.563434782822618274e+00
1.399538266635776962e-01 5.609785873723023286e+00
1.409943755602430793e-01 5.661636633520799933e+00
1.420349244569084624e-01 6.174140493644912908e+00
1.430754733535738454e-01 7.414339013264289235e+00
1.441160222502392285e-01 8.903196658384118223e+00
1.451565711469046116e-01 1.045506468741467643e+01
1.461971200435699947e-01 1.192569933906925428e+01
1.472376689402353778e-01 1.302578701035096742e+01
1.482782178369007609e-01 1.392096942483128075e+01
1.493187667335661439e-01 1.412052332788051956e+01
1.503593156302315270e-01 1.308517082220821237e+01
1.513998645268969101e-01 1.192150113370827924e+01
1.524404134235622932e-01 1.180962909691765717e+01
1.534809623202276763e-01 1.165571344917546881e+01
1.545215112168930593e-01 1.088722276747873252e+01
1.555620601135584424e-01 1.029239410489199713e+01
1.566026090102238255e-01 1.037570948832105699e+01
1.576431579068892086e-01 1.011756785114737767e+01
1.586837068035545917e-01 9.319210942242975193e+00
1.597242557002199748e-01 9.114973790940144482e+00
1.607648045968853578e-01 9.249266268939017266e+00
1.618053534935507409e-01 9.222470068580886249e+00
1.628459023902161240e-01 8.920978909877263163e+00
1.638864512868815071e-01 8.804232266401758267e+00
1.649270001835468902e-01 8.218388163461423090e+00
1.659675490802122733e-01 8.105530014450376797e+00
1.670080979768776563e-01 8.093050385978010297e+00
1.680486468735430672e-01 8.040535140831021721e+00
1.690891957702084503e-01 7.272043817312905389e+00
1.701297446668738333e-01 6.715439598771613561e+00
1.711702935635392164e-01 6.831667908152230240e+00
1.722108424602045995e-01 6.403399090003720318e+00
1.732513913568699826e-01 6.297040876335650239e+00
1.742919402535353657e-01 5.918875856683342818e+00
1.753324891502007488e-01 5.409205880962751678e+00
1.763730380468661318e-01 5.323393100090189733e+00
1.774135869435315149e-01 4.961698058927982657e+00
1.784541358401968980e-01 4.445598871485923809e+00
1.794946847368622811e-01 4.481701733284470635e+00
1.805352336335276642e-01 4.162818295532574098e+00
1.815757825301930473e-01 3.707354590113492776e+00
1.826163314268584303e-01 3.462198412380821821e+00
1.836568803235238134e-01 3.328207915727869448e+00
1.846974292201891965e-01 3.325490737923555429e+00
1.857379781168545796e-01 3.200081413060068769e+00
1.867785270135199627e-01 3.031140132464287262e+00
1.878190759101853458e-01 3.009219818973548399e+00
1.888596248068507288e-01 3.070699312648155654e+00
1.899001737035161119e-01 3.034544471137490262e+00
1.909407226001814950e-01 2.752972474604153064e+00
1.919812714968468781e-01 2.619792291374206883e+00
1.930218203935122612e-01 2.779932809969171359e+00
1.940623692901776443e-01 2.854953093530554042e+00
1.951029181868430273e-01 2.783018948162858663e+00
1.961434670835084104e-01 2.844704627260107088e+00
1.971840159801737935e-01 3.359210001748451191e+00
1.982245648768391766e-01 3.511419097813142542e+00
1.992651137735045597e-01 3.696609951436798269e+00
2.003056626701699428e-01 3.618494107474145238e+00
2.013462115668353813e-01 3.506195039822806336e+00
2.023867604635007644e-01 3.271251263995377911e+00
2.034273093601661475e-01 3.290156022259079549e+00
2.044678582568315306e-01 3.412280637815086948e+00
2.055084071534969137e-01 3.488278456441644693e+00
2.065489560501622968e-01 3.339765556007559866e+00
2.075895049468276798e-01 3.174091628519530417e+00
2.086300538434930629e-01 3.210818742912767476e+00
2.096706027401584460e-01 3.433727403569996284e+00
2.107111516368238291e-01 3.300558447238344684e+00
2.117517005334892122e-01 3.312951106917022770e+00
2.127922494301545953e-01 3.143115663312691765e+00
2.138327983268199783e-01 2.473881490504410863e+00
2.148733472234853614e-01 2.781529378071205372e+00
2.159138961201507445e-01 2.833663785136899094e+00
2.169544450168161276e-01 2.556986683173143149e+00
2.179949939134815107e-01 2.687933518071567107e+00
2.190355428101468938e-01 2.757087835332168169e+00
2.200760917068122768e-01 2.641723081721480071e+00
2.211166406034776599e-01 2.639165034414300948e+00
2.221571895001430430e-01 2.770570486666201759e+00
2.231977383968084261e-01 2.768176610859711673e+00
2.242382872934738092e-01 2.721315680488654465e+00
2.252788361901391923e-01 2.597512434024892514e+00
2.263193850868045753e-01 2.596323746950282896e+00
2.273599339834699584e-01 2.267750990552656276e+00
2.284004828801353415e-01 2.375456431890217601e+00
2.294410317768007246e-01 2.334692924195294950e+00
2.304815806734661077e-01 1.977013030936948468e+00
2.315221295701314908e-01 1.969473552656044291e+00
2.325626784667968738e-01 1.859375425728000408e+00
2.336032273634622569e-01 1.483935566660580463e+00
2.346437762601276400e-01 1.713114374114425686e+00
2.356843251567930231e-01 1.987241031101316224e+00
2.367248740534584062e-01 1.907826179809582356e+00
2.377654229501237892e-01 1.800173210287603354e+00
2.388059718467891723e-01 1.589687799457802697e+00
2.398465207434545554e-01 1.487880940304297184e+00
2.408870696401199385e-01 1.502029164976057984e+00
2.419276185367853216e-01 1.847110011068984647e+00
2.429681674334507047e-01 1.776143968137287033e+00
2.440087163301160877e-01 1.489763300790542644e+00
2.450492652267814708e-01 1.491666797838849590e+00
2.460898141234468539e-01 1.506736311928278838e+00
2.471303630201122370e-01 1.565682410331568519e+00
2.481709119167776201e-01 1.777742801147130791e+00
2.492114608134430032e-01 1.679187855965697196e+00
2.502520097101083585e-01 1.480869067464624322e+00
2.512925586067737416e-01 1.740363544125766992e+00
2.523331075034391247e-01 1.590910655991571332e+00
2.533736564001045077e-01 1.420633373013849621e+00
2.544142052967698908e-01 1.632897172729240509e+00
2.554547541934352739e-01 1.612722646590057707e+00
2.564953030901006570e-01 1.682165906989744997e+00
2.575358519867660401e-01 1.605542282747457250e+00
2.585764008834314231e-01 1.558391358058702991e+00
2.596169497800968062e-01 1.489536572420540494e+00
2.606574986767621893e-01 1.467670408336868348e+00
2.616980475734275724e-01 1.479168942987119095e+00
2.627385964700929555e-01 1.519994626932970050e+00
2.637791453667583386e-01 1.640136380873869371e+00
2.648196942634237216e-01 1.601511276689063124e+00
2.658602431600891047e-01 1.430296871797736458e+00
2.669007920567544878e-01 1.479167151542689851e+00
2.679413409534198709e-01 1.532080893728391402e+00
2.689818898500852540e-01 1.445040601075135100e+00
2.700224387467506371e-01 1.495013096043940948e+00
2.710629876434160201e-01 1.321541055487344352e+00
2.721035365400814032e-01 1.418067054033429031e+00
2.731440854367467863e-01 1.714601933761844776e+00
2.741846343334121694e-01 1.726638864797589434e+00
2.752251832300775525e-01 1.451266185499410000e+00
2.762657321267429356e-01 1.271310607916547042e+00
2.773062810234083186e-01 1.414479653894236577e+00
2.783468299200737017e-01 1.390479511453950323e+00
2.793873788167390848e-01 1.352038985322899123e+00
2.804279277134044679e-01 1.377682508106758519e+00
2.814684766100698510e-01 1.254580793849864762e+00
2.825090255067352341e-01 1.134480490212727233e+00
2.835495744034006171e-01 1.197534006131306228e+00
2.845901233000660002e-01 1.057435740585855655e+00
2.856306721967313833e-01 1.196900290803320388e+00
2.866712210933967664e-01 1.216706175318400085e+00
2.877117699900621495e-01 1.089315538545196915e+00
2.887523188867275326e-01 1.009167071591242859e+00
2.897928677833929156e-01 1.207310461037604199e+00
2.908334166800582987e-01 9.426194853226732562e-01
2.918739655767236818e-01 8.499853721780219473e-01
2.929145144733890649e-01 1.013513777038038910e+00
2.939550633700544480e-01 8.714550009118937623e-01
2.949956122667198311e-01 1.003247468907378703e+00
2.960361611633852141e-01 1.077149254264099909e+00
2.970767100600505972e-01 1.036478960191885790e+00
2.981172589567159803e-01 8.520837760770305636e-01
2.991578078533813634e-01 8.380151100559203314e-01
3.001983567500468020e-01 1.160804068232611286e+00
3.012389056467121851e-01 1.304376574930415700e+00
3.022794545433775681e-01 9.367741268891727202e-01
3.033200034400429512e-01 9.960591303922470274e-01
3.043605523367083343e-01 1.021394034965826592e+00
3.054011012333737174e-01 1.142333714976544456e+00
3.064416501300391005e-01 9.413345748481667385e-01
3.074821990267044836e-01 7.703443659944930744e-01
3.085227479233698666e-01 1.066799008017280670e+00
3.095632968200352497e-01 8.915540414759952625e-01
3.106038457167006328e-01 9.865198812067994538e-01
3.116443946133660159e-01 8.934427384626566493e-01
3.126849435100313990e-01 8.430764335682425781e-01
3.137254924066967821e-01 8.542533171581965235e-01
3.147660413033621651e-01 8.817260008802847437e-01
3.158065902000275482e-01 9.369094125571741927e-01
3.168471390966929313e-01 8.022989091790364569e-01
3.178876879933583144e-01 7.346292519896984174e-01
3.189282368900236975e-01 9.444668904127624387e-01
3.199687857866890806e-01 9.674446161828385016e-01
3.210093346833544636e-01 1.090366796513507097e+00
3.220498835800198467e-01 1.056266092090975661e+00
3.230904324766852298e-01 7.935092059101940265e-01
3.241309813733506129e-01 5.850845151124239862e-01
3.251715302700159960e-01 8.860429716489015561e-01
3.262120791666813790e-01 8.966473312885376856e-01
3.272526280633467621e-01 8.706709444749911597e-01
3.282931769600121452e-01 1.007006919832065250e+00
3.293337258566775283e-01 9.078805381339805081e-01
3.303742747533429114e-01 7.252403730387335656e-01
3.314148236500082945e-01 9.127655031247279283e-01
3.324553725466736775e-01 8.872466752893046760e-01
3.334959214433390606e-01 7.953964066540741840e-01
3.345364703400044437e-01 7.357907755964490093e-01
3.355770192366698268e-01 8.039451693725325754e-01
3.366175681333352099e-01 6.748517430644227488e-01
3.376581170300005930e-01 7.480888626109880590e-01
3.386986659266659760e-01 7.504094399572736052e-01
3.397392148233313591e-01 5.711292143187591819e-01
3.407797637199967422e-01 3.698931273858647728e-01
3.418203126166621253e-01 4.940076839225895355e-01
3.428608615133275084e-01 5.870312931601553430e-01
3.439014104099928915e-01 5.596584345047688203e-01
3.449419593066582745e-01 4.665369876085385670e-01
3.459825082033236576e-01 4.773016026815923851e-01
3.470230570999890407e-01 5.245539494310982320e-01
3.480636059966544238e-01 6.963169043738339781e-01
3.491041548933198069e-01 7.578477019674281223e-01
3.501447037899851900e-01 5.817856739630720142e-01
3.511852526866505730e-01 6.815134854427817857e-01
3.522258015833159561e-01 6.665391484774794151e-01
3.532663504799813392e-01 4.939244152838604407e-01
3.543068993766467223e-01 4.082900025527216314e-01
3.553474482733121054e-01 4.818444209398791145e-01
3.563879971699774885e-01 5.895644080364021988e-01
3.574285460666428715e-01 6.105023724245022265e-01
3.584690949633082546e-01 5.011768856691212193e-01
3.595096438599736377e-01 4.141661992867256004e-01
3.605501927566390208e-01 2.907431280345775804e-01
3.615907416533044039e-01 3.208098174756592869e-01
3.626312905499697870e-01 2.555018275558680330e-01
3.636718394466351700e-01 3.682099397798630491e-01
3.647123883433005531e-01 4.659660131147695949e-01
3.657529372399659362e-01 5.061552946819993792e-01
3.667934861366313193e-01 6.155270438584921067e-01
3.678340350332967024e-01 5.040661077184367400e-01
3.688745839299620854e-01 5.100208513841977265e-01
3.699151328266274685e-01 6.834248294591098727e-01
3.709556817232928516e-01 5.436365389426072170e-01
3.719962306199582347e-01 3.461156478296736339e-01
3.730367795166236178e-01 5.217412020570577624e-01
3.740773284132890009e-01 4.837053035608001039e-01
3.751178773099543839e-01 4.593983845587956694e-01
3.761584262066197670e-01 4.324416583028067862e-01
3.771989751032851501e-01 4.508166858130771004e-01
3.782395239999505332e-01 3.855823031309668636e-01
3.792800728966159163e-01 2.451963242264056930e-01
3.803206217932812994e-01 2.535724904750864539e-01
3.813611706899466824e-01 3.763811769456886225e-01
3.824017195866120655e-01 3.705459956139414146e-01
3.834422684832774486e-01 4.746535898009653920e-01
3.844828173799428317e-01 6.217892413788810302e-01
3.855233662766082148e-01 4.000534077048030213e-01
3.865639151732735979e-01 2.422524772049392539e-01
3.876044640699389809e-01 4.313722917660030021e-01
3.886450129666043640e-01 4.150046277549961360e-01
3.896855618632697471e-01 3.264154265197127813e-01
3.907261107599351302e-01 4.298752910888090639e-01
3.917666596566005133e-01 4.167673638489830523e-01
3.928072085532658964e-01 3.839152678723323220e-01
3.938477574499312794e-01 1.560863509932346460e-01
3.948883063465966625e-01 1.894509609039864984e-01
3.959288552432620456e-01 3.974266428449233501e-01
3.969694041399274287e-01 3.656259712980016729e-01
3.980099530365928118e-01 4.668566056131524533e-01
3.990505019332581949e-01 2.347642646106926634e-01
4.000910508299235779e-01 2.360547084545032703e-01
4.011315997265889610e-01 3.452896781649137381e-01
4.021721486232543441e-01 1.709379662101255803e-01
4.032126975199197272e-01 3.133169987289221581e-01
4.042532464165851103e-01 4.266183972365915622e-01
4.052937953132504934e-01 3.077544772662612615e-01
4.063343442099158764e-01 4.393928462376948119e-01
4.073748931065812595e-01 4.192574795567622914e-01
4.084154420032466426e-01 2.952678374755315360e-01
4.094559908999120257e-01 1.964115448363763505e-01
4.104965397965774088e-01 2.475999167931313139e-01
4.115370886932427918e-01 3.952350512138309568e-01
4.125776375899081749e-01 1.504057177816093827e-01
4.136181864865735580e-01 1.436975856408047036e-01
4.146587353832389411e-01 2.834059576171128469e-01
4.156992842799043242e-01 2.062731881356327790e-01
4.167398331765697073e-01 2.283491107212292093e-01
4.177803820732350903e-01 3.820569877528825486e-01
4.188209309699004734e-01 2.588326259524826867e-01
4.198614798665658565e-01 2.673169977835954114e-01
4.209020287632312396e-01 4.235953154377227747e-01
4.219425776598966227e-01 3.823749902242532528e-01
4.229831265565620058e-01 2.305476703903970304e-01
4.240236754532273888e-01 2.110087775579145841e-01
4.250642243498927719e-01 1.311946071132794600e-01
4.261047732465581550e-01 1.566843500587040694e-01
4.271453221432235381e-01 3.775149744785650796e-01
4.281858710398889212e-01 3.855040656963026890e-01
4.292264199365543043e-01 2.490230423003367832e-01
4.302669688332196873e-01 2.482000542792057729e-01
4.313075177298850704e-01 1.992450955604390117e-01
4.323480666265504535e-01 2.526188796225383726e-01
4.333886155232158366e-01 3.424747788617032995e-01
4.344291644198812197e-01 2.792730657802735550e-01
