# q (1/Angstrom), Intensity (arb)
2.029070354705860696e-02 2.563325761227821999e+02
2.133125244372399004e-02 2.254599993601759422e+02
2.237180134038937659e-02 2.018200349392781163e+02
2.341235023705475968e-02 1.824085722355084442e+02
2.445289913372014276e-02 1.646965815148816716e+02
2.549344803038552584e-02 1.487630893838198745e+02
2.653399692705091240e-02 1.371506030357326722e+02
2.757454582371629548e-02 1.272256267799322558e+02
2.861509472038167856e-02 1.195095688604078390e+02
2.965564361704706164e-02 1.128551524308767426e+02
3.069619251371244473e-02 1.073899542633180459e+02
3.173674141037782781e-02 1.043744752929460020e+02
3.277729030704321089e-02 1.015373708783335474e+02
3.381783920370859398e-02 9.690597506839010578e+01
3.485838810037397706e-02 9.606137012020698762e+01
3.589893699703936014e-02 9.504600705736012856e+01
3.693948589370474322e-02 9.374251845053373700e+01
3.798003479037012631e-02 9.502515672209523245e+01
3.902058368703550939e-02 9.500505203488711459e+01
4.006113258370089247e-02 9.574879595705409940e+01
4.110168148036627556e-02 9.631493187575614456e+01
4.214223037703165864e-02 1.001376385041827177e+02
4.318277927369704866e-02 1.038920564179925492e+02
4.422332817036243174e-02 1.076297177814295765e+02
4.526387706702781483e-02 1.140397496818925731e+02
4.630442596369319791e-02 1.220135449499915552e+02
4.734497486035858099e-02 1.306283578162100412e+02
4.838552375702396408e-02 1.437595987205364167e+02
4.942607265368934716e-02 1.629981165760474369e+02
5.046662155035473024e-02 1.876459413075202463e+02
5.150717044702011332e-02 2.246323541446083141e+02
5.254771934368549641e-02 2.881975611563707389e+02
5.358826824035087949e-02 3.959087225249023732e+02
5.462881713701626257e-02 5.589379530693075822e+02
5.566936603368164566e-02 7.862780057371057865e+02
5.670991493034702874e-02 1.071012813563720101e+03
5.775046382701241182e-02 1.305005087801719810e+03
5.879101272367779490e-02 1.374193226200590516e+03
5.983156162034317799e-02 1.284432690019168604e+03
6.087211051700856107e-02 1.119208085148410646e+03
6.191265941367394415e-02 9.295921867984287701e+02
6.295320831033933417e-02 7.529903159933933239e+02
6.399375720700471726e-02 6.045934864762257348e+02
6.503430610367010034e-02 4.820311558340837905e+02
6.607485500033548342e-02 3.846355661461353748e+02
6.711540389700086651e-02 3.068830542865953817e+02
6.815595279366624959e-02 2.423036753061070669e+02
6.919650169033163267e-02 1.874370207482479316e+02
7.023705058699701576e-02 1.423646343545360082e+02
7.127759948366239884e-02 1.071392198139785137e+02
7.231814838032778192e-02 8.162443066764564037e+01
7.335869727699316500e-02 6.174341128395570166e+01
7.439924617365854809e-02 4.706493889863192237e+01
7.543979507032393117e-02 3.674804707741300547e+01
7.648034396698931425e-02 2.972149556415931215e+01
7.752089286365469734e-02 2.460694844828244499e+01
7.856144176032008042e-02 2.077008014702999361e+01
7.960199065698546350e-02 1.778180257462014424e+01
8.064253955365084658e-02 1.598612109547423898e+01
8.168308845031622967e-02 1.519136071330660798e+01
8.272363734698161275e-02 1.399005867754233634e+01
8.376418624364699583e-02 1.368740458840660779e+01
8.480473514031239279e-02 1.447310540383602984e+01
8.584528403697777588e-02 1.434590039916082560e+01
8.688583293364315896e-02 1.549636316600255981e+01
8.792638183030854204e-02 1.671448191255331395e+01
8.896693072697392513e-02 1.886567450559156356e+01
9.000747962363930821e-02 2.255165215061119710e+01
9.104802852030469129e-02 2.792152595692164496e+01
9.208857741697007437e-02 3.639661939782973121e+01
9.312912631363545746e-02 4.727643465291149738e+01
9.416967521030084054e-02 5.698427891817718205e+01
9.521022410696622362e-02 6.300829680362501506e+01
9.625077300363160671e-02 6.558457362138780411e+01
9.729132190029698979e-02 6.444702761917179146e+01
9.833187079696237287e-02 6.153587079599036258e+01
9.937241969362775595e-02 5.866519776230931882e+01
1.004129685902931390e-01 5.573042203096178326e+01
1.014535174869585221e-01 5.342898961376643285e+01
1.024940663836239052e-01 5.077131255163016732e+01
1.035346152802892883e-01 4.875846911863634148e+01
1.045751641769546714e-01 4.764638667639560055e+01
1.056157130736200545e-01 4.730681494495941308e+01
1.066562619702854375e-01 4.869216035784791785e+01
1.076968108669508206e-01 5.358213529799284913e+01
1.087373597636162037e-01 6.033184283892100552e+01
1.097779086602815868e-01 6.661972821470924089e+01
1.108184575569469699e-01 6.963784721042576109e+01
1.118590064536123529e-01 6.827583896130119001e+01
1.128995553502777360e-01 6.588536721641582972e+01
1.139401042469431191e-01 6.333002888074936720e+01
1.149806531436085022e-01 5.902845172216825631e+01
1.160212020402738853e-01 5.378643115987804890e+01
1.170617509369392684e-01 4.754997647715429565e+01
1.181022998336046514e-01 4.222766663000969345e+01
1.191428487302700345e-01 3.623425638960549833e+01
1.201833976269354176e-01 3.103869369954044188e+01
1.212239465236008007e-01 2.653040034112092727e+01
1.222644954202661838e-01 2.287556595076399191e+01
1.233050443169315669e-01 1.929929854058867278e+01
1.243455932135969499e-01 1.639223170848082489e+01
1.253861421102623330e-01 1.374982954775211752e+01
1.264266910069277161e-01 1.210117404623090920e+01
1.274672399035930992e-01 1.034484762876295605e+01
1.285077888002584823e-01 8.624546389040524730e+00
1.295483376969238654e-01 7.540483758140510417e+00
1.305888865935892484e-01 7.206350373701091883e+00
1.316294354902546315e-01 6.440528173369621356e+00
1.326699843869200146e-01 5.611205704433814390e+00
1.337105332835853977e-01 5.446292779319932720e+00
1.347510821802507808e-01 4.517333054705250817e+00
1.357916310769161639e-01 4.413009992919025848e+00
1.368321799735815469e-01 4.543399133138244395e+00
1.378727288702469300e-01 4.585263790848042476e+00
1.389132777669123131e-01 4.786544983031173928e+00
1.399538266635776962e-01 4.769756627229252643e+00
1.409943755602430793e-01 5.593805648398689101e+00
1.420349244569084624e-01 6.482899355695121102e+00
1.430754733535738454e-01 7.287271736681624645e+00
1.441160222502392285e-01 8.801729481152477774e+00
1.451565711469046116e-01 1.023005401578480544e+01
1.461971200435699947e-01 1.160000183896248060e+01
1.472376689402353778e-01 1.280269994331575134e+01
1.482782178369007609e-01 1.338672366907382383e+01
1.493187667335661439e-01 1.313805798043578932e+01
1.503593156302315270e-01 1.315356666156271359e+01
1.513998645268969101e-01 1.295558876872401655e+01
1.524404134235622932e-01 1.200097975300153763e+01
1.534809623202276763e-01 1.157722634322062660e+01
1.545215112168930593e-01 1.101091627994304289e+01
1.555620601135584424e-01 1.052963760286241168e+01
1.566026090102238255e-01 9.953201568446893077e+00
1.576431579068892086e-01 9.249215822419895261e+00
1.586837068035545917e-01 8.947618957317860833e+00
1.597242557002199748e-01 9.046752832177883619e+00
1.607648045968853578e-01 8.856773607327063758e+00
1.618053534935507409e-01 9.301760673873037177e+00
1.628459023902161240e-01 9.452949245456260030e+00
1.638864512868815071e-01 9.036231985498513808e+00
1.649270001835468902e-01 8.573191024756994238e+00
1.659675490802122733e-01 8.048325629925702884e+00
1.670080979768776563e-01 7.947327591439407257e+00
1.680486468735430672e-01 7.480307045281534783e+00
1.690891957702084503e-01 6.857478308754053842e+00
1.701297446668738333e-01 6.707072705242016042e+00
1.711702935635392164e-01 6.506014720679125674e+00
1.722108424602045995e-01 6.387312511257327685e+00
1.732513913568699826e-01 6.000766665126334942e+00
1.742919402535353657e-01 5.761419005821938555e+00
1.753324891502007488e-01 5.768085619747274961e+00
1.763730380468661318e-01 5.288936599679153971e+00
1.774135869435315149e-01 4.912363173961384888e+00
1.784541358401968980e-01 4.568817212345045675e+00
1.794946847368622811e-01 4.241053433177810916e+00
1.805352336335276642e-01 4.064411936337716469e+00
1.815757825301930473e-01 3.835390504270634437e+00
1.826163314268584303e-01 3.602146407604504219e+00
1.836568803235238134e-01 3.411497212351651598e+00
1.846974292201891965e-01 3.418413034117488536e+00
1.857379781168545796e-01 3.152057599550751377e+00
1.867785270135199627e-01 2.763963636137741986e+00
1.878190759101853458e-01 2.754666181262951596e+00
1.888596248068507288e-01 2.685154517547115205e+00
1.899001737035161119e-01 2.669493326669940103e+00
1.909407226001814950e-01 2.613875879582678863e+00
1.919812714968468781e-01 2.574547806283817408e+00
1.930218203935122612e-01 2.432012007939253095e+00
1.940623692901776443e-01 2.678600569616087057e+00
1.951029181868430273e-01 2.804470404450462695e+00
1.961434670835084104e-01 3.037511627566058081e+00
1.971840159801737935e-01 3.324452990197737989e+00
1.982245648768391766e-01 3.347722708764425903e+00
1.992651137735045597e-01 3.332397862769834518e+00
2.003056626701699428e-01 3.282129961088021020e+00
2.013462115668353813e-01 3.250203001918858803e+00
2.023867604635007644e-01 3.376360193177148972e+00
2.034273093601661475e-01 3.291972568736586169e+00
2.044678582568315306e-01 3.104601408372200666e+00
2.055084071534969137e-01 3.244177475051571946e+00
2.065489560501622968e-01 3.258190454033002226e+00
2.075895049468276798e-01 2.986984539351006163e+00
2.086300538434930629e-01 2.898175706440589749e+00
2.096706027401584460e-01 3.149876280165933906e+00
2.107111516368238291e-01 3.266481095324106576e+00
2.117517005334892122e-01 3.099936904219269707e+00
2.127922494301545953e-01 2.971677872482228366e+00
2.138327983268199783e-01 2.963482953596123792e+00
2.148733472234853614e-01 2.760362379106851449e+00
2.159138961201507445e-01 2.553181231691176833e+00
2.169544450168161276e-01 2.592298354415870421e+00
2.179949939134815107e-01 2.664633521449307096e+00
2.190355428101468938e-01 2.547411493156165108e+00
2.200760917068122768e-01 2.507575106549381871e+00
2.211166406034776599e-01 2.281650005637406053e+00
2.221571895001430430e-01 2.546785514161623354e+00
2.231977383968084261e-01 2.710130934191621321e+00
2.242382872934738092e-01 2.572774913162962918e+00
2.252788361901391923e-01 2.095924129980339501e+00
2.263193850868045753e-01 1.919151943526010484e+00
2.273599339834699584e-01 2.289352700828487741e+00
2.284004828801353415e-01 2.241048433513551430e+00
2.294410317768007246e-01 1.922650596682117907e+00
2.304815806734661077e-01 2.082851722494829971e+00
2.315221295701314908e-01 1.918445228004614478e+00
2.325626784667968738e-01 1.794703194590560713e+00
2.336032273634622569e-01 1.732995509473070683e+00
2.346437762601276400e-01 1.667512586109779704e+00
2.356843251567930231e-01 1.623716405546932862e+00
2.367248740534584062e-01 1.877604783936920541e+00
2.377654229501237892e-01 1.687234901003414222e+00
2.388059718467891723e-01 1.478962098169283479e+00
2.398465207434545554e-01 1.512316958387575738e+00
2.408870696401199385e-01 1.507856827737942496e+00
2.419276185367853216e-01 1.325962871020927025e+00
2.429681674334507047e-01 1.362925145806261895e+00
2.440087163301160877e-01 1.544721268289457328e+00
2.450492652267814708e-01 1.597711826355222797e+00
2.460898141234468539e-01 1.378637173258642434e+00
2.471303630201122370e-01 1.319062765165298856e+00
2.481709119167776201e-01 1.347291122779392225e+00
2.492114608134430032e-01 1.328983463412679811e+00
2.502520097101083585e-01 1.483771206094768758e+00
2.512925586067737416e-01 1.666845743657109580e+00
2.523331075034391247e-01 1.522620900150940315e+00
2.533736564001045077e-01 1.359319318687553846e+00
2.544142052967698908e-01 1.551544946550720283e+00
2.554547541934352739e-01 1.880307679373569130e+00
2.564953030901006570e-01 1.717188011982187845e+00
2.575358519867660401e-01 1.422680148189861882e+00
2.585764008834314231e-01 1.370944194092395207e+00
2.596169497800968062e-01 1.320112264435945093e+00
2.606574986767621893e-01 1.494194871532510405e+00
2.616980475734275724e-01 1.425312505477126734e+00
2.627385964700929555e-01 1.354753158591478268e+00
2.637791453667583386e-01 1.405754525229735208e+00
2.648196942634237216e-01 1.287629081981084056e+00
2.658602431600891047e-01 1.402002156485199436e+00
2.669007920567544878e-01 1.604127916990933045e+00
2.679413409534198709e-01 1.388227797931033791e+00
2.689818898500852540e-01 1.524814075389024026e+00
2.700224387467506371e-01 1.417705148517114822e+00
2.710629876434160201e-01 1.114722015040054970e+00
2.721035365400814032e-01 1.302001794789205746e+00
2.731440854367467863e-01 1.192719625877579404e+00
2.741846343334121694e-01 1.052492898750337247e+00
2.752251832300775525e-01 1.168634287885332412e+00
2.762657321267429356e-01 9.726662863470636466e-01
2.773062810234083186e-01 1.054790144150100417e+00
2.783468299200737017e-01 1.028284034548427428e+00
2.793873788167390848e-01 8.050201906254486062e-01
2.804279277134044679e-01 9.903636523571890393e-01
2.814684766100698510e-01 1.330314888872184298e+00
2.825090255067352341e-01 1.148632223107341588e+00
2.835495744034006171e-01 1.010473139003902787e+00
2.845901233000660002e-01 1.074523282754206832e+00
2.856306721967313833e-01 1.102618195174528637e+00
2.866712210933967664e-01 1.291611252279807331e+00
2.877117699900621495e-01 1.187652979302903589e+00
2.887523188867275326e-01 1.017318163326365266e+00
2.897928677833929156e-01 8.773268482871330320e-01
2.908334166800582987e-01 8.506930003989907618e-01
2.918739655767236818e-01 9.307252804213845820e-01
2.929145144733890649e-01 8.401998627335061087e-01
2.939550633700544480e-01 7.472363690332741726e-01
2.949956122667198311e-01 5.996940808239799026e-01
2.960361611633852141e-01 7.893910111784627759e-01
2.970767100600505972e-01 1.043912893541261155e+00
2.981172589567159803e-01 1.000998720552587429e+00
2.991578078533813634e-01 9.550357813685188546e-01
3.001983567500468020e-01 9.421749960187284501e-01
3.012389056467121851e-01 7.520238956818730003e-01
3.022794545433775681e-01 8.431946675170536309e-01
3.033200034400429512e-01 9.462599460059877288e-01
3.043605523367083343e-01 9.423662721115455554e-01
3.054011012333737174e-01 1.095525340054528840e+00
3.064416501300391005e-01 9.957565646927299952e-01
3.074821990267044836e-01 7.693260846350042925e-01
3.085227479233698666e-01 6.888101054804813828e-01
3.095632968200352497e-01 5.659515064797346895e-01
3.106038457167006328e-01 5.539078749713723937e-01
3.116443946133660159e-01 8.284707434602154308e-01
3.126849435100313990e-01 8.655295133393714480e-01
3.137254924066967821e-01 6.306717811184441302e-01
3.147660413033621651e-01 5.177624951209089943e-01
3.158065902000275482e-01 5.953329643939149207e-01
3.168471390966929313e-01 5.586585796172940377e-01
3.178876879933583144e-01 5.804371673314321356e-01
3.189282368900236975e-01 5.741804659062026417e-01
3.199687857866890806e-01 4.628781593825941343e-01
3.210093346833544636e-01 3.600215331512046646e-01
3.220498835800198467e-01 7.462601422003203311e-01
3.230904324766852298e-01 6.726335814762016696e-01
3.241309813733506129e-01 7.479660540580681527e-01
3.251715302700159960e-01 5.072972615984738809e-01
3.262120791666813790e-01 3.477459604061792220e-01
3.272526280633467621e-01 7.597282957073652199e-01
3.282931769600121452e-01 6.967700483317713633e-01
3.293337258566775283e-01 7.173140134416762237e-01
3.303742747533429114e-01 8.878491692995886808e-01
3.314148236500082945e-01 6.888151307621477315e-01
3.324553725466736775e-01 7.055155776599555395e-01
3.334959214433390606e-01 9.005275867584856542e-01
3.345364703400044437e-01 8.398485136869737744e-01
3.355770192366698268e-01 5.309658868045410429e-01
3.366175681333352099e-01 5.357068814258667544e-01
3.376581170300005930e-01 7.075878822699550597e-01
3.386986659266659760e-01 5.405594316157937840e-01
3.397392148233313591e-01 4.448163886745248874e-01
3.407797637199967422e-01 6.361690898187184473e-01
3.418203126166621253e-01 6.487747920390134482e-01
3.428608615133275084e-01 4.888174035704615505e-01
3.439014104099928915e-01 4.921719232716696979e-01
3.449419593066582745e-01 4.554858023706387371e-01
3.459825082033236576e-01 2.724339699818685290e-01
3.470230570999890407e-01 5.963927150225636353e-01
3.480636059966544238e-01 6.522300629895809720e-01
3.491041548933198069e-01 4.910925606202134475e-01
3.501447037899851900e-01 3.303293598997925073e-01
3.511852526866505730e-01 3.077215418039038752e-01
3.522258015833159561e-01 2.757712242134822134e-01
3.532663504799813392e-01 4.807135593187297218e-01
3.543068993766467223e-01 5.701404281178810152e-01
3.553474482733121054e-01 4.610241372031502749e-01
3.563879971699774885e-01 6.484399563696108260e-01
3.574285460666428715e-01 4.934079782429314776e-01
3.584690949633082546e-01 4.646689256806197932e-01
3.595096438599736377e-01 5.209996804608252319e-01
3.605501927566390208e-01 5.597699354089691326e-01
3.615907416533044039e-01 5.058628031096681354e-01
3.626312905499697870e-01 3.512260276630740918e-01
3.636718394466351700e-01 3.428222297801895024e-01
3.647123883433005531e-01 4.156354852709114311e-01
3.657529372399659362e-01 6.481657046885480611e-01
3.667934861366313193e-01 3.672347058663945063e-01
3.678340350332967024e-01 2.534787013891346419e-01
3.688745839299620854e-01 4.126647641118381671e-01
3.699151328266274685e-01 3.749694612781127034e-01
3.709556817232928516e-01 2.489047844252354480e-01
3.719962306199582347e-01 3.010540388052262983e-01
3.730367795166236178e-01 4.183420017685186565e-01
3.740773284132890009e-01 4.641327798356407186e-01
3.751178773099543839e-01 5.148145150253995439e-01
3.761584262066197670e-01 4.463120059037848364e-01
3.771989751032851501e-01 5.340732872615170379e-01
3.782395239999505332e-01 5.043159603733116114e-01
3.792800728966159163e-01 4.360953475697542103e-01
3.803206217932812994e-01 4.279041414029656210e-01
3.813611706899466824e-01 4.650465240438705905e-01
3.824017195866120655e-01 3.166738777057283016e-01
3.834422684832774486e-01 3.906393433086634559e-01
3.844828173799428317e-01 3.042055968693340162e-01
3.855233662766082148e-01 1.962141752516117776e-01
3.865639151732735979e-01 2.609561794446015881e-01
3.876044640699389809e-01 4.211996157297654975e-01
3.886450129666043640e-01 4.186840213012352763e-01
3.896855618632697471e-01 4.744519032632759092e-01
3.907261107599351302e-01 5.317198369050117890e-01
3.917666596566005133e-01 4.605252930954861768e-01
3.928072085532658964e-01 5.850912116714148681e-01
3.938477574499312794e-01 3.797680117278829925e-01
3.948883063465966625e-01 2.989260922448622182e-01
3.959288552432620456e-01 3.175806106470631107e-01
3.969694041399274287e-01 3.706974921993193561e-01
3.980099530365928118e-01 4.019330174153026292e-01
3.990505019332581949e-01 2.222933160080025061e-01
4.000910508299235779e-01 2.083472266207095913e-01
4.011315997265889610e-01 2.190199898368980769e-01
4.021721486232543441e-01 8.022011796533234929e-02
4.032126975199197272e-01 2.940926820488698468e-01
4.042532464165851103e-01 2.879136391053442878e-01
4.052937953132504934e-01 4.064474003232270150e-01
4.063343442099158764e-01 3.564650292927566966e-01
4.073748931065812595e-01 3.154805208009996420e-01
4.084154420032466426e-01 1.672711060165212871e-01
4.094559908999120257e-01 2.002828680703210296e-01
4.104965397965774088e-01 4.015286042610739514e-01
4.115370886932427918e-01 1.115129584170553301e-01
4.125776375899081749e-01 1.851491523055841526e-01
4.136181864865735580e-01 1.702260773307386899e-01
4.146587353832389411e-01 2.150339987830491850e-01
4.156992842799043242e-01 1.411513011178371357e-01
4.167398331765697073e-01 2.671678327772433192e-01
4.177803820732350903e-01 1.201781860713779793e-01
4.188209309699004734e-01 9.313391148463168179e-02
4.198614798665658565e-01 1.864189518534260515e-01
4.209020287632312396e-01 9.201552303095539287e-02
4.219425776598966227e-01 2.176289091978844681e-01
4.229831265565620058e-01 1.862466415614036919e-01
4.240236754532273888e-01 3.954099225546876539e-01
4.250642243498927719e-01 3.521737225577830088e-01
4.261047732465581550e-01 2.355442292246507918e-01
4.271453221432235381e-01 2.400610853182563176e-01
4.281858710398889212e-01 2.953988306777617368e-01
4.292264199365543043e-01 2.983959419378443556e-01
4.302669688332196873e-01 3.229820209818718979e-01
4.313075177298850704e-01 2.595431955445377525e-01
4.323480666265504535e-01 2.712144371750540017e-01
4.333886155232158366e-01 3.075273540058454103e-01
4.344291644198812197e-01 2.289078452953496878e-01
