# q (1/Angstrom), Intensity (arb)
2.029070354705860696e-02 2.546823476894068108e+02
2.133125244372399004e-02 2.191907135215016922e+02
2.237180134038937659e-02 1.965841299195015495e+02
2.341235023705475968e-02 1.788135267575193836e+02
2.445289913372014276e-02 1.622569864045327392e+02
2.549344803038552584e-02 1.482563268414344293e+02
2.653399692705091240e-02 1.387769531850210569e+02
2.757454582371629548e-02 1.297642284888857489e+02
2.861509472038167856e-02 1.237604615411263040e+02
2.965564361704706164e-02 1.182257500767557588e+02
3.069619251371244473e-02 1.138753218169994028e+02
3.173674141037782781e-02 1.086481269573378370e+02
3.277729030704321089e-02 1.041526638067906561e+02
3.381783920370859398e-02 1.026386464129160032e+02
3.485838810037397706e-02 1.009149091398579401e+02
3.589893699703936014e-02 9.866263193100219553e+01
3.693948589370474322e-02 9.809316873115096769e+01
3.798003479037012631e-02 9.751026374440320410e+01
3.902058368703550939e-02 9.921723865802769637e+01
4.006113258370089247e-02 1.000240486990162481e+02
4.110168148036627556e-02 1.026374580140214903e+02
4.214223037703165864e-02 1.068224890667567308e+02
4.318277927369704866e-02 1.113122353982218158e+02
4.422332817036243174e-02 1.157228019068798517e+02
4.526387706702781483e-02 1.228611981796308612e+02
4.630442596369319791e-02 1.332265325168609422e+02
4.734497486035858099e-02 1.449496166955581202e+02
4.838552375702396408e-02 1.613710451283328098e+02
4.942607265368934716e-02 1.841258275232111998e+02
5.046662155035473024e-02 2.129924650733898375e+02
5.150717044702011332e-02 2.602632021802859867e+02
5.254771934368549641e-02 3.411851738472618081e+02
5.358826824035087949e-02 4.839647002747423699e+02
5.462881713701626257e-02 6.949930602712515793e+02
5.566936603368164566e-02 9.789324338208847394e+02
5.670991493034702874e-02 1.297339768823102986e+03
5.775046382701241182e-02 1.505469942332053733e+03
5.879101272367779490e-02 1.508492738262968032e+03
5.983156162034317799e-02 1.371091947344588334e+03
6.087211051700856107e-02 1.171611336448977909e+03
6.191265941367394415e-02 9.640674540508777000e+02
6.295320831033933417e-02 7.766534241196679886e+02
6.399375720700471726e-02 6.228335108012602177e+02
6.503430610367010034e-02 5.008059446471980323e+02
6.607485500033548342e-02 3.992206905742418712e+02
6.711540389700086651e-02 3.167965488276701649e+02
6.815595279366624959e-02 2.471754160061398409e+02
6.919650169033163267e-02 1.906477831598242858e+02
7.023705058699701576e-02 1.447779025336701579e+02
7.127759948366239884e-02 1.086089502564626628e+02
7.231814838032778192e-02 8.096335020240459812e+01
7.335869727699316500e-02 6.138720950008384136e+01
7.439924617365854809e-02 4.684767520071889635e+01
7.543979507032393117e-02 3.701862838542301404e+01
7.648034396698931425e-02 3.041380056766839601e+01
7.752089286365469734e-02 2.526533777982963258e+01
7.856144176032008042e-02 2.143859337303728907e+01
7.960199065698546350e-02 1.844599061659228667e+01
8.064253955365084658e-02 1.655954529158045929e+01
8.168308845031622967e-02 1.558032971439670789e+01
8.272363734698161275e-02 1.509336468051367675e+01
8.376418624364699583e-02 1.495175057468819091e+01
8.480473514031239279e-02 1.551712792689856357e+01
8.584528403697777588e-02 1.562978524487523302e+01
8.688583293364315896e-02 1.663486073238072649e+01
8.792638183030854204e-02 1.929787324352761146e+01
8.896693072697392513e-02 2.188334497956439861e+01
9.000747962363930821e-02 2.595929999369289831e+01
9.104802852030469129e-02 3.405855146386150523e+01
9.208857741697007437e-02 4.496687930107564313e+01
9.312912631363545746e-02 5.532811940111704985e+01
9.416967521030084054e-02 6.329883202429789435e+01
9.521022410696622362e-02 6.630070022563239718e+01
9.625077300363160671e-02 6.651753924604106771e+01
9.729132190029698979e-02 6.555648485756842092e+01
9.833187079696237287e-02 6.261413976638804968e+01
9.937241969362775595e-02 5.908968889954536508e+01
1.004129685902931390e-01 5.585507935175643723e+01
1.014535174869585221e-01 5.299170041772389794e+01
1.024940663836239052e-01 5.123233526501048374e+01
1.035346152802892883e-01 5.120989925680916599e+01
1.045751641769546714e-01 5.055151391040037367e+01
1.056157130736200545e-01 5.144334210218914905e+01
1.066562619702854375e-01 5.622629398702986236e+01
1.076968108669508206e-01 6.416039094729043768e+01
1.087373597636162037e-01 7.214087567271198509e+01
1.097779086602815868e-01 7.699132502246841625e+01
1.108184575569469699e-01 7.642411428268025020e+01
1.118590064536123529e-01 7.386835451645164596e+01
1.128995553502777360e-01 7.167975417759569723e+01
1.139401042469431191e-01 6.849684893424340260e+01
1.149806531436085022e-01 6.272204706855620771e+01
1.160212020402738853e-01 5.537295642077778268e+01
1.170617509369392684e-01 4.923996241687272146e+01
1.181022998336046514e-01 4.343387265030442990e+01
1.191428487302700345e-01 3.743196400936992774e+01
1.201833976269354176e-01 3.190201286772735756e+01
1.212239465236008007e-01 2.711243515239988611e+01
1.222644954202661838e-01 2.266857560373838254e+01
1.233050443169315669e-01 1.905017617917201633e+01
1.243455932135969499e-01 1.570239300851875441e+01
1.253861421102623330e-01 1.333577466298109115e+01
1.264266910069277161e-01 1.159199707307683269e+01
1.274672399035930992e-01 9.807213098754477443e+00
1.285077888002584823e-01 8.230845242154284591e+00
1.295483376969238654e-01 7.358813837994095053e+00
1.305888865935892484e-01 7.010395364421508901e+00
1.316294354902546315e-01 6.468746539449114152e+00
1.326699843869200146e-01 6.111268806770450368e+00
1.337105332835853977e-01 5.387835339473284080e+00
1.347510821802507808e-01 5.362252675765095233e+00
1.357916310769161639e-01 5.209326870706302515e+00
1.368321799735815469e-01 5.194963459708056064e+00
1.378727288702469300e-01 5.277805033491247855e+00
1.389132777669123131e-01 5.358448158653310145e+00
1.399538266635776962e-01 5.597693042427902554e+00
1.409943755602430793e-01 6.161042258836417318e+00
1.420349244569084624e-01 7.443877946291930670e+00
1.430754733535738454e-01 9.008182529561697294e+00
1.441160222502392285e-01 9.771163388022355178e+00
1.451565711469046116e-01 1.108406589199737269e+01
1.461971200435699947e-01 1.239315288473962440e+01
1.472376689402353778e-01 1.340675886362235403e+01
1.482782178369007609e-01 1.366951341822632671e+01
1.493187667335661439e-01 1.325118473152755527e+01
1.503593156302315270e-01 1.238384320017145157e+01
1.513998645268969101e-01 1.215242315892639624e+01
1.524404134235622932e-01 1.165137967430518273e+01
1.534809623202276763e-01 1.134952618791025714e+01
1.545215112168930593e-01 1.111230875144794439e+01
1.555620601135584424e-01 1.031497182152677539e+01
1.566026090102238255e-01 1.004547079448720481e+01
1.576431579068892086e-01 1.016219609014247638e+01
1.586837068035545917e-01 9.900362116409976210e+00
1.597242557002199748e-01 9.431799543894872073e+00
1.607648045968853578e-01 9.340310576848843027e+00
1.618053534935507409e-01 9.636407412601762701e+00
1.628459023902161240e-01 9.259996228439018040e+00
1.638864512868815071e-01 8.796350885257474772e+00
1.649270001835468902e-01 8.440490114991405335e+00
1.659675490802122733e-01 8.366024819722348127e+00
1.670080979768776563e-01 8.222758656964451518e+00
1.680486468735430672e-01 7.805241232592496914e+00
1.690891957702084503e-01 7.490895976871193795e+00
1.701297446668738333e-01 7.483958077156096067e+00
1.711702935635392164e-01 7.350262165574516615e+00
1.722108424602045995e-01 7.127627589106165118e+00
1.732513913568699826e-01 6.547326121122463150e+00
1.742919402535353657e-01 6.181284557764843868e+00
1.753324891502007488e-01 6.058990847230493415e+00
1.763730380468661318e-01 5.883488121352304034e+00
1.774135869435315149e-01 5.155397385029193202e+00
1.784541358401968980e-01 4.805969307817232306e+00
1.794946847368622811e-01 4.407798249250319600e+00
1.805352336335276642e-01 4.295571632577818377e+00
1.815757825301930473e-01 4.155594841579663523e+00
1.826163314268584303e-01 3.542014324232649614e+00
1.836568803235238134e-01 3.525028932140479299e+00
1.846974292201891965e-01 3.239187384880050757e+00
1.857379781168545796e-01 3.031443469785205735e+00
1.867785270135199627e-01 3.092232461529359711e+00
1.878190759101853458e-01 3.150355297199048721e+00
1.888596248068507288e-01 3.026573451086409960e+00
1.899001737035161119e-01 2.988527177371679500e+00
1.909407226001814950e-01 2.959422935461205384e+00
1.919812714968468781e-01 3.249051855883003270e+00
1.930218203935122612e-01 3.441529124409420604e+00
1.940623692901776443e-01 3.355473340555775508e+00
1.951029181868430273e-01 3.389270627467844577e+00
1.961434670835084104e-01 3.586854922319787420e+00
1.971840159801737935e-01 3.941493619256860370e+00
1.982245648768391766e-01 3.662450921090631084e+00
1.992651137735045597e-01 3.657454836432197709e+00
2.003056626701699428e-01 3.610437661588822067e+00
2.013462115668353813e-01 3.377795229264940247e+00
2.023867604635007644e-01 3.523980731543666423e+00
2.034273093601661475e-01 3.379420419688429433e+00
2.044678582568315306e-01 3.499038813638897238e+00
2.055084071534969137e-01 3.517971151650783668e+00
2.065489560501622968e-01 3.464486294598458471e+00
2.075895049468276798e-01 3.360426101806233135e+00
2.086300538434930629e-01 3.372915008921140156e+00
2.096706027401584460e-01 3.513427987231882099e+00
2.107111516368238291e-01 3.381936203937819130e+00
2.117517005334892122e-01 3.689322721685705631e+00
2.127922494301545953e-01 3.678121100450695735e+00
2.138327983268199783e-01 3.469905823230931219e+00
2.148733472234853614e-01 3.440517185482718787e+00
2.159138961201507445e-01 3.337158515720954455e+00
2.169544450168161276e-01 3.188141684538049248e+00
2.179949939134815107e-01 3.286133011058183229e+00
2.190355428101468938e-01 3.304083797726519833e+00
2.200760917068122768e-01 2.911407705293338921e+00
2.211166406034776599e-01 2.978377582150322667e+00
2.221571895001430430e-01 2.897408499596522802e+00
2.231977383968084261e-01 2.976208030310218078e+00
2.242382872934738092e-01 2.784311161415828906e+00
2.252788361901391923e-01 2.606930150612015495e+00
2.263193850868045753e-01 2.702105657647894787e+00
2.273599339834699584e-01 2.990038716293671683e+00
2.284004828801353415e-01 2.612524062889999499e+00
2.294410317768007246e-01 2.188049918631016055e+00
2.304815806734661077e-01 2.197542856987315218e+00
2.315221295701314908e-01 2.385876405937342071e+00
2.325626784667968738e-01 2.344041563857512500e+00
2.336032273634622569e-01 2.243626918291745653e+00
2.346437762601276400e-01 2.219353077955023679e+00
2.356843251567930231e-01 2.263150946689371779e+00
2.367248740534584062e-01 2.178270408885023102e+00
2.377654229501237892e-01 2.215067903422070827e+00
2.388059718467891723e-01 2.190821855834798271e+00
2.398465207434545554e-01 2.050884346891958643e+00
2.408870696401199385e-01 2.035991321304539525e+00
2.419276185367853216e-01 1.908480352811938729e+00
2.429681674334507047e-01 2.012234667339455996e+00
2.440087163301160877e-01 1.967361158633007534e+00
2.450492652267814708e-01 1.818584907483849378e+00
2.460898141234468539e-01 1.874337073131243869e+00
2.471303630201122370e-01 2.002768976786409638e+00
2.481709119167776201e-01 2.180930985611436057e+00
2.492114608134430032e-01 2.065763416946360564e+00
2.502520097101083585e-01 2.060327089870394701e+00
2.512925586067737416e-01 2.118073880088921612e+00
2.523331075034391247e-01 2.148676676011682218e+00
2.533736564001045077e-01 2.164553959594137211e+00
2.544142052967698908e-01 2.264151810998729530e+00
2.554547541934352739e-01 2.024662068556342120e+00
2.564953030901006570e-01 1.917985161665004767e+00
2.575358519867660401e-01 2.006934252477030611e+00
2.585764008834314231e-01 1.950345185267174486e+00
2.596169497800968062e-01 2.047574527728144744e+00
2.606574986767621893e-01 1.880542331872874229e+00
2.616980475734275724e-01 1.815358429531841011e+00
2.627385964700929555e-01 1.911601781915926779e+00
2.637791453667583386e-01 1.952068584853144273e+00
2.648196942634237216e-01 1.862604182013555487e+00
2.658602431600891047e-01 1.843708242093853755e+00
2.669007920567544878e-01 1.793558446064128731e+00
2.679413409534198709e-01 1.869825222766685613e+00
2.689818898500852540e-01 1.681726722592863155e+00
2.700224387467506371e-01 1.913202393265905243e+00
2.710629876434160201e-01 1.831730903673083333e+00
2.721035365400814032e-01 1.632149966117921736e+00
2.731440854367467863e-01 1.979514737240240407e+00
2.741846343334121694e-01 1.923897238703979440e+00
2.752251832300775525e-01 1.779776912799075461e+00
2.762657321267429356e-01 1.493700428474880937e+00
2.773062810234083186e-01 1.506914581311264101e+00
2.783468299200737017e-01 1.645712613532531066e+00
2.793873788167390848e-01 1.617518659867371866e+00
2.804279277134044679e-01 1.555360588857457316e+00
2.814684766100698510e-01 1.488521578452001393e+00
2.825090255067352341e-01 1.553271399610789416e+00
2.835495744034006171e-01 1.660135312113425243e+00
2.845901233000660002e-01 1.499526696376189960e+00
2.856306721967313833e-01 1.456248780195267045e+00
2.866712210933967664e-01 1.339682515944655705e+00
2.877117699900621495e-01 1.486470351412847890e+00
2.887523188867275326e-01 1.416733218308088738e+00
2.897928677833929156e-01 1.260614206250888714e+00
2.908334166800582987e-01 1.494503876761324790e+00
2.918739655767236818e-01 1.586751104880459451e+00
2.929145144733890649e-01 1.481458836668988255e+00
2.939550633700544480e-01 1.409433706360886163e+00
2.949956122667198311e-01 1.376254674646343545e+00
2.960361611633852141e-01 1.127555942326413430e+00
2.970767100600505972e-01 1.224772427314444911e+00
2.981172589567159803e-01 1.199156213021588258e+00
2.991578078533813634e-01 1.206756088331022880e+00
3.001983567500468020e-01 1.340224577314369725e+00
3.012389056467121851e-01 1.126340052992976126e+00
3.022794545433775681e-01 1.018834441256270651e+00
3.033200034400429512e-01 9.364524268547569363e-01
3.043605523367083343e-01 1.057587011281338363e+00
3.054011012333737174e-01 1.403005575222167067e+00
3.064416501300391005e-01 1.345133440052709517e+00
3.074821990267044836e-01 1.360798710868564854e+00
3.085227479233698666e-01 1.324758670212641931e+00
3.095632968200352497e-01 1.181864580247797392e+00
3.106038457167006328e-01 1.268168429268325070e+00
3.116443946133660159e-01 1.371105917411881592e+00
3.126849435100313990e-01 1.221206905145169941e+00
3.137254924066967821e-01 1.051514368661411680e+00
3.147660413033621651e-01 1.244391309735938478e+00
3.158065902000275482e-01 1.130280480593583547e+00
3.168471390966929313e-01 1.027222242663668794e+00
3.178876879933583144e-01 1.148872105086859108e+00
3.189282368900236975e-01 9.911454823802863245e-01
3.199687857866890806e-01 1.186837000086473637e+00
3.210093346833544636e-01 1.285710393750047587e+00
3.220498835800198467e-01 1.346548925780794548e+00
3.230904324766852298e-01 1.262797015556436975e+00
3.241309813733506129e-01 1.045126932619027116e+00
3.251715302700159960e-01 8.679766194278535352e-01
3.262120791666813790e-01 1.066524269135310732e+00
3.272526280633467621e-01 1.020377391489830643e+00
3.282931769600121452e-01 1.137894145212005270e+00
3.293337258566775283e-01 1.191483653455023273e+00
3.303742747533429114e-01 9.746017345654571784e-01
3.314148236500082945e-01 1.002634732406168183e+00
3.324553725466736775e-01 1.115137983867857230e+00
3.334959214433390606e-01 1.247512251854463017e+00
3.345364703400044437e-01 1.089731673850867111e+00
3.355770192366698268e-01 9.807983643010942387e-01
3.366175681333352099e-01 9.821108328835457257e-01
3.376581170300005930e-01 1.001775679160569865e+00
3.386986659266659760e-01 9.774398001374287048e-01
3.397392148233313591e-01 9.908015860597814140e-01
3.407797637199967422e-01 8.270677090443285806e-01
3.418203126166621253e-01 8.471721140094317093e-01
3.428608615133275084e-01 9.228491857919891572e-01
3.439014104099928915e-01 9.508867382338692664e-01
3.449419593066582745e-01 8.846216237955175643e-01
3.459825082033236576e-01 9.490213580680340044e-01
3.470230570999890407e-01 7.488854487301068730e-01
3.480636059966544238e-01 7.847234573936532342e-01
3.491041548933198069e-01 9.409602848363434191e-01
3.501447037899851900e-01 9.255263116975527282e-01
3.511852526866505730e-01 9.807927748401077395e-01
3.522258015833159561e-01 9.054364084290575931e-01
3.532663504799813392e-01 8.561676214473976643e-01
3.543068993766467223e-01 7.373176469284317136e-01
3.553474482733121054e-01 6.825534192122191257e-01
3.563879971699774885e-01 8.390470709480837286e-01
3.574285460666428715e-01 6.853215488181518822e-01
3.584690949633082546e-01 6.184623609385759835e-01
3.595096438599736377e-01 6.042695402404625327e-01
3.605501927566390208e-01 5.907748465386006842e-01
3.615907416533044039e-01 7.231263697974270599e-01
3.626312905499697870e-01 6.853321966047438707e-01
3.636718394466351700e-01 7.747468390845959618e-01
3.647123883433005531e-01 7.897850978880107675e-01
3.657529372399659362e-01 7.839802953942260899e-01
3.667934861366313193e-01 8.244615294777162262e-01
3.678340350332967024e-01 7.829287204533059708e-01
3.688745839299620854e-01 8.036346489135226534e-01
3.699151328266274685e-01 7.887919008511410368e-01
3.709556817232928516e-01 7.117391910514001552e-01
3.719962306199582347e-01 7.108837878565417157e-01
3.730367795166236178e-01 6.944078409455869405e-01
3.740773284132890009e-01 5.116203528180527371e-01
3.751178773099543839e-01 6.805782514666027794e-01
3.761584262066197670e-01 9.058630471600324086e-01
3.771989751032851501e-01 8.687844827028357031e-01
3.782395239999505332e-01 7.746021084492475950e-01
3.792800728966159163e-01 7.457191903281490397e-01
3.803206217932812994e-01 7.690726394817524181e-01
3.813611706899466824e-01 8.409110391053253863e-01
3.824017195866120655e-01 8.338306387289549093e-01
3.834422684832774486e-01 8.222378542528581136e-01
3.844828173799428317e-01 5.839507770926424257e-01
3.855233662766082148e-01 6.344003665422661697e-01
3.865639151732735979e-01 7.311375831426545346e-01
3.876044640699389809e-01 6.019451576319418962e-01
3.886450129666043640e-01 5.636852521835749030e-01
3.896855618632697471e-01 6.224373320696088285e-01
3.907261107599351302e-01 4.766491055980175418e-01
3.917666596566005133e-01 5.429340596560017218e-01
3.928072085532658964e-01 5.883726436141465399e-01
3.938477574499312794e-01 4.305901166204044728e-01
3.948883063465966625e-01 3.300750488997685750e-01
3.959288552432620456e-01 4.921708170106100511e-01
3.969694041399274287e-01 5.955300654173356634e-01
3.980099530365928118e-01 6.551693985216857641e-01
3.990505019332581949e-01 5.759802817093664373e-01
4.000910508299235779e-01 5.604595054169756452e-01
4.011315997265889610e-01 5.400702276143718450e-01
4.021721486232543441e-01 5.829684807608082053e-01
4.032126975199197272e-01 6.761445040270075424e-01
4.042532464165851103e-01 7.246172665169012816e-01
4.052937953132504934e-01 7.304566394726457190e-01
4.063343442099158764e-01 5.387922479891926741e-01
4.073748931065812595e-01 5.341735213653073799e-01
4.084154420032466426e-01 5.810746860472164599e-01
4.094559908999120257e-01 3.940086150789454678e-01
4.104965397965774088e-01 4.048506641864122457e-01
4.115370886932427918e-01 5.659012843880617538e-01
4.125776375899081749e-01 5.785429196905909066e-01
4.136181864865735580e-01 5.292697387400799869e-01
4.146587353832389411e-01 4.782558312425813085e-01
4.156992842799043242e-01 3.605567039173145361e-01
4.167398331765697073e-01 2.540333918562396320e-01
4.177803820732350903e-01 2.660005346253946357e-01
4.188209309699004734e-01 3.435946664082258906e-01
4.198614798665658565e-01 4.242293996070749529e-01
4.209020287632312396e-01 3.796704655707685561e-01
4.219425776598966227e-01 3.533263217705666648e-01
4.229831265565620058e-01 3.859892685192569672e-01
4.240236754532273888e-01 3.700738992448755482e-01
4.250642243498927719e-01 4.574668330063182964e-01
4.261047732465581550e-01 6.334335114910203401e-01
4.271453221432235381e-01 5.125665268417591847e-01
4.281858710398889212e-01 3.523634878956265482e-01
4.292264199365543043e-01 4.389415245187038295e-01
4.302669688332196873e-01 3.968738190013958445e-01
4.313075177298850704e-01 3.084084537540618953e-01
4.323480666265504535e-01 3.254290785604396774e-01
4.333886155232158366e-01 3.683207406492172709e-01
4.344291644198812197e-01 2.831904948487533602e-01
