# q (1/Angstrom), Intensity (arb)
2.029070354705860696e-02 2.535529558855767505e+02
2.133125244372399004e-02 2.165762190560166971e+02
2.237180134038937659e-02 1.935234060368175335e+02
2.341235023705475968e-02 1.722629877832346210e+02
2.445289913372014276e-02 1.535064563774842270e+02
2.549344803038552584e-02 1.411823666577737981e+02
2.653399692705091240e-02 1.308379918926999039e+02
2.757454582371629548e-02 1.211822887402211109e+02
2.861509472038167856e-02 1.133101067900745704e+02
2.965564361704706164e-02 1.080175834792236458e+02
3.069619251371244473e-02 1.021277247978915170e+02
3.173674141037782781e-02 9.829072194671643103e+01
3.277729030704321089e-02 9.559184708406905884e+01
3.381783920370859398e-02 9.249894796344653969e+01
3.485838810037397706e-02 8.974418853368912607e+01
3.589893699703936014e-02 8.900135862674477494e+01
3.693948589370474322e-02 8.757196303931898740e+01
3.798003479037012631e-02 8.575132006491990921e+01
3.902058368703550939e-02 8.573525347977036404e+01
4.006113258370089247e-02 8.700039965651168927e+01
4.110168148036627556e-02 8.880656573543555510e+01
4.214223037703165864e-02 9.064370669612330289e+01
4.318277927369704866e-02 9.352253337010282053e+01
4.422332817036243174e-02 9.893143790742298904e+01
4.526387706702781483e-02 1.034206674944390443e+02
4.630442596369319791e-02 1.097248050596365232e+02
4.734497486035858099e-02 1.181263194380264565e+02
4.838552375702396408e-02 1.287514179130248522e+02
4.942607265368934716e-02 1.436327873554405130e+02
5.046662155035473024e-02 1.657973473387526724e+02
5.150717044702011332e-02 1.978931879425782085e+02
5.254771934368549641e-02 2.458173453337074079e+02
5.358826824035087949e-02 3.294154111705221339e+02
5.462881713701626257e-02 4.644305595130593929e+02
5.566936603368164566e-02 6.536027890998491330e+02
5.670991493034702874e-02 9.033490109312987215e+02
5.775046382701241182e-02 1.136117508711099390e+03
5.879101272367779490e-02 1.235853324645328485e+03
5.983156162034317799e-02 1.181342600593816087e+03
6.087211051700856107e-02 1.044148536334354731e+03
6.191265941367394415e-02 8.776439913296005670e+02
6.295320831033933417e-02 7.145353960318415147e+02
6.399375720700471726e-02 5.721124279385562659e+02
6.503430610367010034e-02 4.562777393085878543e+02
6.607485500033548342e-02 3.647186918788228240e+02
6.711540389700086651e-02 2.899909879246437185e+02
6.815595279366624959e-02 2.286547366673247836e+02
6.919650169033163267e-02 1.792063723674319249e+02
7.023705058699701576e-02 1.362487024086870235e+02
7.127759948366239884e-02 1.030509362480770363e+02
7.231814838032778192e-02 7.800223010275065860e+01
7.335869727699316500e-02 5.920489803953530128e+01
7.439924617365854809e-02 4.518189458799673019e+01
7.543979507032393117e-02 3.452603687666335475e+01
7.648034396698931425e-02 2.747551374654595691e+01
7.752089286365469734e-02 2.283440799059962956e+01
7.856144176032008042e-02 1.957902127612724286e+01
7.960199065698546350e-02 1.702952760354317974e+01
8.064253955365084658e-02 1.539582714984430112e+01
8.168308845031622967e-02 1.358065230045327354e+01
8.272363734698161275e-02 1.308588020395200857e+01
8.376418624364699583e-02 1.261635694908115113e+01
8.480473514031239279e-02 1.241957298800542020e+01
8.584528403697777588e-02 1.300590601649356159e+01
8.688583293364315896e-02 1.353942584197281462e+01
8.792638183030854204e-02 1.492298163878468387e+01
8.896693072697392513e-02 1.737414985486323360e+01
9.000747962363930821e-02 2.025562718129243933e+01
9.104802852030469129e-02 2.394224031431551936e+01
9.208857741697007437e-02 3.048727983739208014e+01
9.312912631363545746e-02 4.082674765912689452e+01
9.416967521030084054e-02 5.113992539834815432e+01
9.521022410696622362e-02 5.834908670157842892e+01
9.625077300363160671e-02 6.029273603154189232e+01
9.729132190029698979e-02 6.032209147561371765e+01
9.833187079696237287e-02 5.832747976052675654e+01
9.937241969362775595e-02 5.540497945563858906e+01
1.004129685902931390e-01 5.278467216207859281e+01
1.014535174869585221e-01 5.016149876896929527e+01
1.024940663836239052e-01 4.750314840753463130e+01
1.035346152802892883e-01 4.555168179289238850e+01
1.045751641769546714e-01 4.421380182355076727e+01
1.056157130736200545e-01 4.342606412264818516e+01
1.066562619702854375e-01 4.397034253277834637e+01
1.076968108669508206e-01 4.642186063808345153e+01
1.087373597636162037e-01 5.059361648021109659e+01
1.097779086602815868e-01 5.687043721951066999e+01
1.108184575569469699e-01 6.058266890481237255e+01
1.118590064536123529e-01 6.109901742935380042e+01
1.128995553502777360e-01 5.980517971812257372e+01
1.139401042469431191e-01 5.723373307190271930e+01
1.149806531436085022e-01 5.435680970231364029e+01
1.160212020402738853e-01 4.999230417231356682e+01
1.170617509369392684e-01 4.459191293731569061e+01
1.181022998336046514e-01 3.883105320319747022e+01
1.191428487302700345e-01 3.404163076091720086e+01
1.201833976269354176e-01 2.941426865986462502e+01
1.212239465236008007e-01 2.499425253793395285e+01
1.222644954202661838e-01 2.111166023744107889e+01
1.233050443169315669e-01 1.795390771439940636e+01
1.243455932135969499e-01 1.553532239829438311e+01
1.253861421102623330e-01 1.296067369898377564e+01
1.264266910069277161e-01 1.101000473230281784e+01
1.274672399035930992e-01 9.325440208909355988e+00
1.285077888002584823e-01 7.787308832298492689e+00
1.295483376969238654e-01 6.422203295636414566e+00
1.305888865935892484e-01 5.504249540014725994e+00
1.316294354902546315e-01 4.921854661286857890e+00
1.326699843869200146e-01 4.331630213992397671e+00
1.337105332835853977e-01 4.116084742442900790e+00
1.347510821802507808e-01 3.933980406091521331e+00
1.357916310769161639e-01 4.010463328264847860e+00
1.368321799735815469e-01 3.856574774135282269e+00
1.378727288702469300e-01 3.807043334492348663e+00
1.389132777669123131e-01 4.284798067781053987e+00
1.399538266635776962e-01 4.086071922664721967e+00
1.409943755602430793e-01 4.539815290951295879e+00
1.420349244569084624e-01 4.833213675920056573e+00
1.430754733535738454e-01 5.450058955251655846e+00
1.441160222502392285e-01 6.561947043385842449e+00
1.451565711469046116e-01 7.882863628105631904e+00
1.461971200435699947e-01 9.128669500449952068e+00
1.472376689402353778e-01 1.048283635257565294e+01
1.482782178369007609e-01 1.156102570430530818e+01
1.493187667335661439e-01 1.201845421806860514e+01
1.503593156302315270e-01 1.206614056887879372e+01
1.513998645268969101e-01 1.125554606356192267e+01
1.524404134235622932e-01 1.044535734820086503e+01
1.534809623202276763e-01 1.006576712645661331e+01
1.545215112168930593e-01 1.042351392978785185e+01
1.555620601135584424e-01 9.835701137718835696e+00
1.566026090102238255e-01 9.408540064347519660e+00
1.576431579068892086e-01 8.856855373995529135e+00
1.586837068035545917e-01 8.441270763319828063e+00
1.597242557002199748e-01 8.066901778732528783e+00
1.607648045968853578e-01 7.678227317691110443e+00
1.618053534935507409e-01 7.767974299668786387e+00
1.628459023902161240e-01 7.554500246960557774e+00
1.638864512868815071e-01 7.464076108397996734e+00
1.649270001835468902e-01 7.139391902518674726e+00
1.659675490802122733e-01 6.531887320552506537e+00
1.670080979768776563e-01 6.344160004860967206e+00
1.680486468735430672e-01 5.904098572568990733e+00
1.690891957702084503e-01 5.880529525158209481e+00
1.701297446668738333e-01 5.606972240732083890e+00
1.711702935635392164e-01 5.384616266189404143e+00
1.722108424602045995e-01 5.171861160813250535e+00
1.732513913568699826e-01 4.861306036935822306e+00
1.742919402535353657e-01 4.597516381327203305e+00
1.753324891502007488e-01 4.348883183012006270e+00
1.763730380468661318e-01 4.084627353529022287e+00
1.774135869435315149e-01 4.023775197187283936e+00
1.784541358401968980e-01 3.361062221059675892e+00
1.794946847368622811e-01 3.241792901237921853e+00
1.805352336335276642e-01 2.904461781514100949e+00
1.815757825301930473e-01 2.775750021590937422e+00
1.826163314268584303e-01 2.273780606769960855e+00
1.836568803235238134e-01 2.360181223000019202e+00
1.846974292201891965e-01 2.562854794591942209e+00
1.857379781168545796e-01 2.260148993728790856e+00
1.867785270135199627e-01 2.233780074695310702e+00
1.878190759101853458e-01 1.955147105604886804e+00
1.888596248068507288e-01 1.812293780540748855e+00
1.899001737035161119e-01 1.897485891296710747e+00
1.909407226001814950e-01 1.515447981441070624e+00
1.919812714968468781e-01 1.948686034857168181e+00
1.930218203935122612e-01 2.249055283253024839e+00
1.940623692901776443e-01 2.072242245960985940e+00
1.951029181868430273e-01 2.082379368330144587e+00
1.961434670835084104e-01 2.099853584281781593e+00
1.971840159801737935e-01 2.302165760589907961e+00
1.982245648768391766e-01 2.371628321437341924e+00
1.992651137735045597e-01 2.356648581890972594e+00
2.003056626701699428e-01 2.255067405099623556e+00
2.013462115668353813e-01 2.138815742968340317e+00
2.023867604635007644e-01 2.317687523459809995e+00
2.034273093601661475e-01 2.626989765216645623e+00
2.044678582568315306e-01 2.556478525041473659e+00
2.055084071534969137e-01 2.728757832765769109e+00
2.065489560501622968e-01 2.730164425414816520e+00
2.075895049468276798e-01 2.493983735920522804e+00
2.086300538434930629e-01 2.400512507303560028e+00
2.096706027401584460e-01 2.380227426237407684e+00
2.107111516368238291e-01 2.223274215985153290e+00
2.117517005334892122e-01 2.292926765807269618e+00
2.127922494301545953e-01 2.274068065452219400e+00
2.138327983268199783e-01 2.281327197306389110e+00
2.148733472234853614e-01 2.273735915240898464e+00
2.159138961201507445e-01 2.126455682232705868e+00
2.169544450168161276e-01 2.393630177079906218e+00
2.179949939134815107e-01 2.294243662220953439e+00
2.190355428101468938e-01 2.242540269388513252e+00
2.200760917068122768e-01 2.093503830327648529e+00
2.211166406034776599e-01 1.900881819539343098e+00
2.221571895001430430e-01 1.830325888323830696e+00
2.231977383968084261e-01 2.173174715629922815e+00
2.242382872934738092e-01 2.164056012395306539e+00
2.252788361901391923e-01 2.215248314473200253e+00
2.263193850868045753e-01 1.996700263247134899e+00
2.273599339834699584e-01 1.825288318036857760e+00
2.284004828801353415e-01 1.536401879132142767e+00
2.294410317768007246e-01 1.435446121359412075e+00
2.304815806734661077e-01 1.418377786002473329e+00
2.315221295701314908e-01 1.256472510071880322e+00
2.325626784667968738e-01 1.254469277287867612e+00
2.336032273634622569e-01 7.947299947993116120e-01
2.346437762601276400e-01 8.726704403200074012e-01
2.356843251567930231e-01 9.500702830345382210e-01
2.367248740534584062e-01 1.010804877678737057e+00
2.377654229501237892e-01 9.652240062297643419e-01
2.388059718467891723e-01 7.032440992673016922e-01
2.398465207434545554e-01 8.502694493687350530e-01
2.408870696401199385e-01 6.175297580712317824e-01
2.419276185367853216e-01 9.176016480355890792e-01
2.429681674334507047e-01 1.194554159000031035e+00
2.440087163301160877e-01 1.105573103275894198e+00
2.450492652267814708e-01 8.877727128097347986e-01
2.460898141234468539e-01 6.353081583968176460e-01
2.471303630201122370e-01 4.588335292318355130e-01
2.481709119167776201e-01 6.875312127834760645e-01
2.492114608134430032e-01 1.529586761032859954e+00
2.502520097101083585e-01 1.276247520122797852e+00
2.512925586067737416e-01 8.037781389522038467e-01
2.523331075034391247e-01 1.091226605364649771e+00
2.533736564001045077e-01 1.441841159227429614e+00
2.544142052967698908e-01 1.206840106261818590e+00
2.554547541934352739e-01 1.016719476094731789e+00
2.564953030901006570e-01 1.070164639408375251e+00
2.575358519867660401e-01 9.177281043440750352e-01
2.585764008834314231e-01 8.729842853073606079e-01
2.596169497800968062e-01 8.540473730520581341e-01
2.606574986767621893e-01 9.794842921020396886e-01
2.616980475734275724e-01 9.681713245710525939e-01
2.627385964700929555e-01 8.897516161446290539e-01
2.637791453667583386e-01 9.424759299212759345e-01
2.648196942634237216e-01 8.770643867881027234e-01
2.658602431600891047e-01 1.081569450260577270e+00
2.669007920567544878e-01 9.632493027310893297e-01
2.679413409534198709e-01 8.970402818626688202e-01
2.689818898500852540e-01 5.686456663228973696e-01
2.700224387467506371e-01 5.956804452234223390e-01
2.710629876434160201e-01 8.152805826446218873e-01
2.721035365400814032e-01 9.506718022011035885e-01
2.731440854367467863e-01 1.055726024980302213e+00
2.741846343334121694e-01 1.056306493714075145e+00
2.752251832300775525e-01 1.040263507119455255e+00
2.762657321267429356e-01 7.166733010527259751e-01
2.773062810234083186e-01 8.254856400481536127e-01
2.783468299200737017e-01 9.400673475009249103e-01
2.793873788167390848e-01 4.415619897283100670e-01
2.804279277134044679e-01 5.270200576467694020e-01
2.814684766100698510e-01 7.288608741072408748e-01
2.825090255067352341e-01 7.241376500215253031e-01
2.835495744034006171e-01 8.921735414527738328e-01
2.845901233000660002e-01 8.911055720482004006e-01
2.856306721967313833e-01 7.721665194472500104e-01
2.866712210933967664e-01 6.688466295261257244e-01
2.877117699900621495e-01 7.057429103908674506e-01
2.887523188867275326e-01 5.249541525310341683e-01
2.897928677833929156e-01 4.594748418253118416e-01
2.908334166800582987e-01 3.928399584889277207e-01
2.918739655767236818e-01 4.563299801267071132e-01
2.929145144733890649e-01 5.247043339872305978e-01
2.939550633700544480e-01 6.497358764674423526e-01
2.949956122667198311e-01 6.467520197751213118e-01
2.960361611633852141e-01 7.038077503169866134e-01
2.970767100600505972e-01 4.995031316491953532e-01
2.981172589567159803e-01 4.898276347085968041e-01
2.991578078533813634e-01 4.654350655864547548e-01
3.001983567500468020e-01 4.587608605468105338e-01
3.012389056467121851e-01 6.256856407161173195e-01
3.022794545433775681e-01 7.940711237456667959e-01
3.033200034400429512e-01 7.775623311110599900e-01
3.043605523367083343e-01 7.503608020411078883e-01
3.054011012333737174e-01 6.797006305346044996e-01
3.064416501300391005e-01 7.724384747333346013e-01
3.074821990267044836e-01 7.299240485490727792e-01
3.085227479233698666e-01 5.015501076006430026e-01
3.095632968200352497e-01 4.619197445278828695e-01
3.106038457167006328e-01 4.423074300195359854e-01
3.116443946133660159e-01 2.993081536083685990e-01
3.126849435100313990e-01 3.757339662782044343e-01
3.137254924066967821e-01 4.400929937803574887e-01
3.147660413033621651e-01 3.610087892345141825e-01
3.158065902000275482e-01 4.157042433293760553e-01
3.168471390966929313e-01 5.330324896758824593e-01
3.178876879933583144e-01 2.581706644603087852e-01
3.189282368900236975e-01 4.332137354138154706e-01
3.199687857866890806e-01 5.302557869451902661e-01
3.210093346833544636e-01 5.299914201465618646e-01
3.220498835800198467e-01 5.803621034302999249e-01
3.230904324766852298e-01 2.998980088951341827e-01
3.241309813733506129e-01 4.536618576997923924e-01
3.251715302700159960e-01 4.097979506385449611e-01
3.262120791666813790e-01 3.994101300311214686e-01
3.272526280633467621e-01 3.314616346230714328e-01
3.282931769600121452e-01 2.633107755594039645e-01
3.293337258566775283e-01 0.000000000000000000e+00
3.303742747533429114e-01 3.894853758058438586e-01
3.314148236500082945e-01 5.070404712200620168e-01
3.324553725466736775e-01 5.097266230688113353e-01
3.334959214433390606e-01 4.855529089240349094e-01
3.345364703400044437e-01 3.976094570310273468e-01
3.355770192366698268e-01 4.561279194856879826e-01
3.366175681333352099e-01 2.562564402728320090e-01
3.376581170300005930e-01 2.995684208957030137e-01
3.386986659266659760e-01 1.316179602413996008e-01
3.397392148233313591e-01 2.088615219073197693e-01
3.407797637199967422e-01 4.641442989351993731e-01
3.418203126166621253e-01 4.103156469236353132e-01
3.428608615133275084e-01 2.683984751722867657e-01
3.439014104099928915e-01 3.276490934378628594e-01
3.449419593066582745e-01 3.179688183347764152e-01
3.459825082033236576e-01 2.098865708144082021e-01
3.470230570999890407e-01 2.227129522056650046e-01
3.480636059966544238e-01 4.567634970734673061e-01
3.491041548933198069e-01 4.605551109647727515e-01
3.501447037899851900e-01 3.176698689016355104e-01
3.511852526866505730e-01 2.263580793151014348e-01
3.522258015833159561e-01 2.414571008224299931e-01
3.532663504799813392e-01 3.793515310942936480e-01
3.543068993766467223e-01 4.343252928581726735e-01
3.553474482733121054e-01 4.732649268126252196e-01
3.563879971699774885e-01 4.348206202250928243e-01
3.574285460666428715e-01 4.463817168016959158e-01
3.584690949633082546e-01 5.527563661672374451e-01
3.595096438599736377e-01 4.136943630124498839e-01
3.605501927566390208e-01 3.017315852548563271e-01
3.615907416533044039e-01 3.025834946850807228e-01
3.626312905499697870e-01 2.334549368513627599e-01
3.636718394466351700e-01 3.827917287141247016e-02
3.647123883433005531e-01 1.478311077340954682e-01
3.657529372399659362e-01 4.462928565912207546e-01
3.667934861366313193e-01 3.475403423821639137e-01
3.678340350332967024e-01 3.171347385395932861e-01
3.688745839299620854e-01 3.439433742915163350e-01
3.699151328266274685e-01 1.816812081046599303e-01
3.709556817232928516e-01 3.095480072370051516e-01
3.719962306199582347e-01 2.686973245595254411e-01
3.730367795166236178e-01 3.380933792536922056e-01
3.740773284132890009e-01 3.048040451210596302e-01
3.751178773099543839e-01 4.234116334580555474e-01
3.761584262066197670e-01 2.181099422367260843e-01
3.771989751032851501e-01 3.927398016385943436e-01
3.782395239999505332e-01 4.227561157844732520e-01
3.792800728966159163e-01 3.188082577208852797e-01
3.803206217932812994e-01 4.337790186079075738e-01
3.813611706899466824e-01 4.923054949149587856e-01
3.824017195866120655e-01 4.253426753989444364e-01
3.834422684832774486e-01 1.423066630562743740e-01
3.844828173799428317e-01 2.933153617214472320e-01
3.855233662766082148e-01 4.314514069340589231e-01
3.865639151732735979e-01 3.836470307123072132e-01
3.876044640699389809e-01 3.053972242583355978e-01
3.886450129666043640e-01 1.917482682560276430e-01
3.896855618632697471e-01 3.109669374015773258e-01
3.907261107599351302e-01 3.477823213289710225e-01
3.917666596566005133e-01 3.519316177868034856e-01
3.928072085532658964e-01 4.068380635902144604e-01
3.938477574499312794e-01 6.245095482591977998e-02
3.948883063465966625e-01 3.038099582691842215e-01
3.959288552432620456e-01 4.343793341335668856e-01
3.969694041399274287e-01 3.753555456502510879e-01
3.980099530365928118e-01 2.733797872384897687e-01
3.990505019332581949e-01 2.585315479273617711e-01
4.000910508299235779e-01 4.041704093919307184e-01
4.011315997265889610e-01 3.308346781022777350e-01
4.021721486232543441e-01 3.933889935853898123e-01
4.032126975199197272e-01 6.143022972771170487e-01
4.042532464165851103e-01 3.423643765848325415e-01
4.052937953132504934e-01 2.783336490101433469e-01
4.063343442099158764e-01 2.502064117835018919e-01
4.073748931065812595e-01 1.298389105741613037e-01
4.084154420032466426e-01 2.074859223819949250e-01
4.094559908999120257e-01 2.272535612898458623e-01
4.104965397965774088e-01 3.911652231644602296e-01
4.115370886932427918e-01 5.088405620101106308e-01
4.125776375899081749e-01 4.019221416891909371e-01
4.136181864865735580e-01 1.935580897772233300e-01
4.146587353832389411e-01 1.032359848719615059e-01
4.156992842799043242e-01 3.082019244200218111e-01
4.167398331765697073e-01 3.135619799696662824e-01
4.177803820732350903e-01 4.113790463387800855e-01
4.188209309699004734e-01 3.095587852699992482e-01
4.198614798665658565e-01 3.387604158022092804e-01
4.209020287632312396e-01 3.618042723253260817e-01
4.219425776598966227e-01 4.966823487287044259e-01
4.229831265565620058e-01 4.531494228114887335e-01
4.240236754532273888e-01 3.619412442776699379e-01
4.250642243498927719e-01 4.584155466570400961e-01
4.261047732465581550e-01 4.650297161884147101e-01
4.271453221432235381e-01 3.288758006282321844e-01
4.281858710398889212e-01 2.828768897931261961e-01
4.292264199365543043e-01 3.859891399447334948e-01
4.302669688332196873e-01 2.446838772661941164e-01
4.313075177298850704e-01 2.794374377655266528e-01
4.323480666265504535e-01 2.986230856822658097e-01
4.333886155232158366e-01 2.905918665358306896e-01
4.344291644198812197e-01 3.081501254506875398e-01
