# q (1/Angstrom), Intensity (arb)
2.029070354705860696e-02 2.473992425321767428e+02
2.133125244372399004e-02 2.138074840417297935e+02
2.237180134038937659e-02 1.904636609262325351e+02
2.341235023705475968e-02 1.711484392380207566e+02
2.445289913372014276e-02 1.547622908658464667e+02
2.549344803038552584e-02 1.405105107916198222e+02
2.653399692705091240e-02 1.287191962562132233e+02
2.757454582371629548e-02 1.205573738516931854e+02
2.861509472038167856e-02 1.141162888218852061e+02
2.965564361704706164e-02 1.083408982845898549e+02
3.069619251371244473e-02 1.025842633164784985e+02
3.173674141037782781e-02 9.859486823898861019e+01
3.277729030704321089e-02 9.397454702821960382e+01
3.381783920370859398e-02 9.082742580150265610e+01
3.485838810037397706e-02 8.815854516491640425e+01
3.589893699703936014e-02 8.758632282908538969e+01
3.693948589370474322e-02 8.608644435527799033e+01
3.798003479037012631e-02 8.615917632042095420e+01
3.902058368703550939e-02 8.762243051096658064e+01
4.006113258370089247e-02 8.875352307866475599e+01
4.110168148036627556e-02 8.930822563448987239e+01
4.214223037703165864e-02 9.077344868746391171e+01
4.318277927369704866e-02 9.314201542683876767e+01
4.422332817036243174e-02 9.683022551063285732e+01
4.526387706702781483e-02 1.011061269327565242e+02
4.630442596369319791e-02 1.084315891845648139e+02
4.734497486035858099e-02 1.175534407248564435e+02
4.838552375702396408e-02 1.277446740189542140e+02
4.942607265368934716e-02 1.427139529723573332e+02
5.046662155035473024e-02 1.620204643128624014e+02
5.150717044702011332e-02 1.907814959830506893e+02
5.254771934368549641e-02 2.383637497668640890e+02
5.358826824035087949e-02 3.179294567903450570e+02
5.462881713701626257e-02 4.470174199435465425e+02
5.566936603368164566e-02 6.322096038688782755e+02
5.670991493034702874e-02 8.743785904875301185e+02
5.775046382701241182e-02 1.119067916463045776e+03
5.879101272367779490e-02 1.238894406821646726e+03
5.983156162034317799e-02 1.200383573133993195e+03
6.087211051700856107e-02 1.068274822145562894e+03
6.191265941367394415e-02 8.977366475489859567e+02
6.295320831033933417e-02 7.353484453341669678e+02
6.399375720700471726e-02 5.926169231636483801e+02
6.503430610367010034e-02 4.734022111806551720e+02
6.607485500033548342e-02 3.782966228143174590e+02
6.711540389700086651e-02 3.022334261065129226e+02
6.815595279366624959e-02 2.384547365931779268e+02
6.919650169033163267e-02 1.857513805713711008e+02
7.023705058699701576e-02 1.441694423631036557e+02
7.127759948366239884e-02 1.093198118347118850e+02
7.231814838032778192e-02 8.153369969641676107e+01
7.335869727699316500e-02 6.108184038564110807e+01
7.439924617365854809e-02 4.717528219425967961e+01
7.543979507032393117e-02 3.639592965255876322e+01
7.648034396698931425e-02 2.890635575833490378e+01
7.752089286365469734e-02 2.344429191796756129e+01
7.856144176032008042e-02 1.955188014594657631e+01
7.960199065698546350e-02 1.719035172355494723e+01
8.064253955365084658e-02 1.547123547271473143e+01
8.168308845031622967e-02 1.407947205141854852e+01
8.272363734698161275e-02 1.344174712778954728e+01
8.376418624364699583e-02 1.268156856228863916e+01
8.480473514031239279e-02 1.305223736955714742e+01
8.584528403697777588e-02 1.349066529867801734e+01
8.688583293364315896e-02 1.358253698821532396e+01
8.792638183030854204e-02 1.472912934282425113e+01
8.896693072697392513e-02 1.693315227270372958e+01
9.000747962363930821e-02 1.926160705078635971e+01
9.104802852030469129e-02 2.306537442800325977e+01
9.208857741697007437e-02 2.877217195053782461e+01
9.312912631363545746e-02 3.686982292862846577e+01
9.416967521030084054e-02 4.743096932564770185e+01
9.521022410696622362e-02 5.583875766611871683e+01
9.625077300363160671e-02 5.884422936186760467e+01
9.729132190029698979e-02 5.996606459142972056e+01
9.833187079696237287e-02 5.925014007001676930e+01
9.937241969362775595e-02 5.637851631419008669e+01
1.004129685902931390e-01 5.271498309643731517e+01
1.014535174869585221e-01 4.936298526843910395e+01
1.024940663836239052e-01 4.653630545291672860e+01
1.035346152802892883e-01 4.425468285285823100e+01
1.045751641769546714e-01 4.320568148366279360e+01
1.056157130736200545e-01 4.262457308689725721e+01
1.066562619702854375e-01 4.318175241243363160e+01
1.076968108669508206e-01 4.552126905905693377e+01
1.087373597636162037e-01 4.945696873458221177e+01
1.097779086602815868e-01 5.535265212947778224e+01
1.108184575569469699e-01 6.024409443814735710e+01
1.118590064536123529e-01 6.142711117533454512e+01
1.128995553502777360e-01 5.952743440933385699e+01
1.139401042469431191e-01 5.816041788984428962e+01
1.149806531436085022e-01 5.593966770307899594e+01
1.160212020402738853e-01 5.146311448946492106e+01
1.170617509369392684e-01 4.602040724233149405e+01
1.181022998336046514e-01 4.149228667066255838e+01
1.191428487302700345e-01 3.660602655997178800e+01
1.201833976269354176e-01 3.106512423924813504e+01
1.212239465236008007e-01 2.666046872469706130e+01
1.222644954202661838e-01 2.331636475728261360e+01
1.233050443169315669e-01 1.976679724718835018e+01
1.243455932135969499e-01 1.625800705565204396e+01
1.253861421102623330e-01 1.362032048719760979e+01
1.264266910069277161e-01 1.145338133255755508e+01
1.274672399035930992e-01 9.532138385806781855e+00
1.285077888002584823e-01 8.134453721558770667e+00
1.295483376969238654e-01 6.907104229584867028e+00
1.305888865935892484e-01 6.331762517690457059e+00
1.316294354902546315e-01 5.775650432705290882e+00
1.326699843869200146e-01 5.320690766493832768e+00
1.337105332835853977e-01 4.432485634987976653e+00
1.347510821802507808e-01 3.956865670572440763e+00
1.357916310769161639e-01 4.022424363453687590e+00
1.368321799735815469e-01 4.140689354505838082e+00
1.378727288702469300e-01 4.061606932273157611e+00
1.389132777669123131e-01 4.674058541027136471e+00
1.399538266635776962e-01 4.488894061161744276e+00
1.409943755602430793e-01 4.550270299067094015e+00
1.420349244569084624e-01 5.087352789419718135e+00
1.430754733535738454e-01 5.654502907834384473e+00
1.441160222502392285e-01 6.639061154277165144e+00
1.451565711469046116e-01 7.977447008415026630e+00
1.461971200435699947e-01 9.271854022579574917e+00
1.472376689402353778e-01 1.056089615075524790e+01
1.482782178369007609e-01 1.141411198292732365e+01
1.493187667335661439e-01 1.176065940422798661e+01
1.503593156302315270e-01 1.229302242461688621e+01
1.513998645268969101e-01 1.179866502671134754e+01
1.524404134235622932e-01 1.122740906666496841e+01
1.534809623202276763e-01 1.017509561274940211e+01
1.545215112168930593e-01 1.015406647212211766e+01
1.555620601135584424e-01 9.800506329987385357e+00
1.566026090102238255e-01 9.509560471064105514e+00
1.576431579068892086e-01 8.857047703210909617e+00
1.586837068035545917e-01 8.220260210618128838e+00
1.597242557002199748e-01 8.043918742367836217e+00
1.607648045968853578e-01 7.605753076758915654e+00
1.618053534935507409e-01 7.655150030388121252e+00
1.628459023902161240e-01 7.821100059360659884e+00
1.638864512868815071e-01 7.595228157302777561e+00
1.649270001835468902e-01 7.183618791633868739e+00
1.659675490802122733e-01 6.419737351509255063e+00
1.670080979768776563e-01 6.605748687125952756e+00
1.680486468735430672e-01 6.609282395232582985e+00
1.690891957702084503e-01 6.161463021798496698e+00
1.701297446668738333e-01 5.549039296689059597e+00
1.711702935635392164e-01 5.613147820260643073e+00
1.722108424602045995e-01 4.713699143066136799e+00
1.732513913568699826e-01 5.261405376012227464e+00
1.742919402535353657e-01 4.584659433577897403e+00
1.753324891502007488e-01 4.215129983187587470e+00
1.763730380468661318e-01 4.182207606384263698e+00
1.774135869435315149e-01 3.839229468996272487e+00
1.784541358401968980e-01 4.048474002262484106e+00
1.794946847368622811e-01 3.831645955353891964e+00
1.805352336335276642e-01 3.530638052151697792e+00
1.815757825301930473e-01 2.758969339042906199e+00
1.826163314268584303e-01 2.895849454331347772e+00
1.836568803235238134e-01 3.023493993437210037e+00
1.846974292201891965e-01 2.725829754844955488e+00
1.857379781168545796e-01 2.478617614627822263e+00
1.867785270135199627e-01 2.192877853377240172e+00
1.878190759101853458e-01 1.973691495521769923e+00
1.888596248068507288e-01 2.196015030271492918e+00
1.899001737035161119e-01 2.043118241104060928e+00
1.909407226001814950e-01 1.836948863748055771e+00
1.919812714968468781e-01 1.840128092662030923e+00
1.930218203935122612e-01 1.796986181786813574e+00
1.940623692901776443e-01 1.764281849300452620e+00
1.951029181868430273e-01 1.975138659453534729e+00
1.961434670835084104e-01 2.326251754931689675e+00
1.971840159801737935e-01 2.611586601647140071e+00
1.982245648768391766e-01 2.963077736595181477e+00
1.992651137735045597e-01 2.859855536942408349e+00
2.003056626701699428e-01 2.529942154222169393e+00
2.013462115668353813e-01 2.608313157451696895e+00
2.023867604635007644e-01 3.055009898226021647e+00
2.034273093601661475e-01 3.039962846037056465e+00
2.044678582568315306e-01 2.657153027941660639e+00
2.055084071534969137e-01 2.407650571026408670e+00
2.065489560501622968e-01 2.502581318620645590e+00
2.075895049468276798e-01 2.188533386283065596e+00
2.086300538434930629e-01 2.416801532651508211e+00
2.096706027401584460e-01 2.191120020335251439e+00
2.107111516368238291e-01 2.224770676148576598e+00
2.117517005334892122e-01 2.493851188563581900e+00
2.127922494301545953e-01 2.562646467024908503e+00
2.138327983268199783e-01 2.553477906405611009e+00
2.148733472234853614e-01 2.301331695253328036e+00
2.159138961201507445e-01 2.460807287814219535e+00
2.169544450168161276e-01 2.345231302499215076e+00
2.179949939134815107e-01 2.086205757225251034e+00
2.190355428101468938e-01 2.084667923829950809e+00
2.200760917068122768e-01 2.419445113532550096e+00
2.211166406034776599e-01 2.364687255381006992e+00
2.221571895001430430e-01 2.007212732702456037e+00
2.231977383968084261e-01 1.945455581510323384e+00
2.242382872934738092e-01 1.815002812476148364e+00
2.252788361901391923e-01 1.778013961877459082e+00
2.263193850868045753e-01 2.058834055257715789e+00
2.273599339834699584e-01 1.874110625780666339e+00
2.284004828801353415e-01 1.650331069646313153e+00
2.294410317768007246e-01 1.784480590707257619e+00
2.304815806734661077e-01 1.676988173516466674e+00
2.315221295701314908e-01 1.465990050681575951e+00
2.325626784667968738e-01 1.256984662374073025e+00
2.336032273634622569e-01 1.287180566331610265e+00
2.346437762601276400e-01 1.364629669180676075e+00
2.356843251567930231e-01 1.320029555080481032e+00
2.367248740534584062e-01 1.091391592873524274e+00
2.377654229501237892e-01 7.956004891390087153e-01
2.388059718467891723e-01 6.948557465259206367e-01
2.398465207434545554e-01 6.616721014434183701e-01
2.408870696401199385e-01 8.801245988164225764e-01
2.419276185367853216e-01 1.018659141634891796e+00
2.429681674334507047e-01 1.261413606564467216e+00
2.440087163301160877e-01 1.053135933167528293e+00
2.450492652267814708e-01 9.992195041206741735e-01
2.460898141234468539e-01 9.938771756635489396e-01
2.471303630201122370e-01 8.141913632915844801e-01
2.481709119167776201e-01 6.460496050218118569e-01
2.492114608134430032e-01 9.536549046748490355e-01
2.502520097101083585e-01 1.025061783783709046e+00
2.512925586067737416e-01 1.142490670018130317e+00
2.523331075034391247e-01 1.151117079975549018e+00
2.533736564001045077e-01 1.194644675751153073e+00
2.544142052967698908e-01 1.221253931706876017e+00
2.554547541934352739e-01 1.250020525683908090e+00
2.564953030901006570e-01 1.071574698346619670e+00
2.575358519867660401e-01 1.212995488134712474e+00
2.585764008834314231e-01 1.057095184092414542e+00
2.596169497800968062e-01 1.026995225608352769e+00
2.606574986767621893e-01 8.274372166850127996e-01
2.616980475734275724e-01 5.772427108761384318e-01
2.627385964700929555e-01 6.893303498475447100e-01
2.637791453667583386e-01 8.762530505693852945e-01
2.648196942634237216e-01 7.983544125111450285e-01
2.658602431600891047e-01 1.053969913214935161e+00
2.669007920567544878e-01 1.156606305580361038e+00
2.679413409534198709e-01 9.159132519542190209e-01
2.689818898500852540e-01 1.054232517192350116e+00
2.700224387467506371e-01 8.933867586998687216e-01
2.710629876434160201e-01 9.462333717974615865e-01
2.721035365400814032e-01 7.745421336741493690e-01
2.731440854367467863e-01 5.677301293926113601e-01
2.741846343334121694e-01 6.923349792425987914e-01
2.752251832300775525e-01 6.651810087013458883e-01
2.762657321267429356e-01 8.151613053447412938e-01
2.773062810234083186e-01 7.334872290940310791e-01
2.783468299200737017e-01 8.067696698410919964e-01
2.793873788167390848e-01 6.676238764955257921e-01
2.804279277134044679e-01 7.606993943449964490e-01
2.814684766100698510e-01 6.262657601260492868e-01
2.825090255067352341e-01 4.465396989961298857e-01
2.835495744034006171e-01 5.049059348015383364e-01
2.845901233000660002e-01 6.349865505378673447e-01
2.856306721967313833e-01 8.254684381404828741e-01
2.866712210933967664e-01 9.996554939137496376e-01
2.877117699900621495e-01 7.249850117876697198e-01
2.887523188867275326e-01 7.062509358106936475e-01
2.897928677833929156e-01 5.801196931424144054e-01
2.908334166800582987e-01 5.416936584137737043e-01
2.918739655767236818e-01 6.809293367707347500e-01
2.929145144733890649e-01 5.272519417992640456e-01
2.939550633700544480e-01 3.874068877449943216e-01
2.949956122667198311e-01 5.131291283599921371e-01
2.960361611633852141e-01 3.934650595533248918e-01
2.970767100600505972e-01 5.244494888731665583e-01
2.981172589567159803e-01 5.247380235689895756e-01
2.991578078533813634e-01 3.767867856855815489e-01
3.001983567500468020e-01 5.476330329328291668e-01
3.012389056467121851e-01 3.791368481902246401e-01
3.022794545433775681e-01 6.676816489957673184e-01
3.033200034400429512e-01 8.892854023271326014e-01
3.043605523367083343e-01 6.647293418855184655e-01
3.054011012333737174e-01 8.147115188684281861e-01
3.064416501300391005e-01 4.794615621169029396e-01
3.074821990267044836e-01 4.591047250468527352e-01
3.085227479233698666e-01 5.277924514875955708e-01
3.095632968200352497e-01 5.565093863107044569e-01
3.106038457167006328e-01 5.432141027218442275e-01
3.116443946133660159e-01 5.476673976525816556e-01
3.126849435100313990e-01 5.357301905049567381e-01
3.137254924066967821e-01 7.355824303848379486e-01
3.147660413033621651e-01 6.955290137552943008e-01
3.158065902000275482e-01 5.190022171356858394e-01
3.168471390966929313e-01 7.354858255724181504e-01
3.178876879933583144e-01 9.355325634988460592e-01
3.189282368900236975e-01 7.246350355124775433e-01
3.199687857866890806e-01 4.792979412399560601e-01
3.210093346833544636e-01 5.980654521768151710e-01
3.220498835800198467e-01 5.811394324307741499e-01
3.230904324766852298e-01 4.262607244676672735e-01
3.241309813733506129e-01 7.022800951798942037e-01
3.251715302700159960e-01 7.143565996040912580e-01
3.262120791666813790e-01 7.289575460534507556e-01
3.272526280633467621e-01 6.657601767681278204e-01
3.282931769600121452e-01 3.768614875926310503e-01
3.293337258566775283e-01 2.434949705751350280e-01
3.303742747533429114e-01 4.109817284115422353e-01
3.314148236500082945e-01 3.378108284690526375e-01
3.324553725466736775e-01 5.580923107256161586e-01
3.334959214433390606e-01 5.154521752863452377e-01
3.345364703400044437e-01 5.731815118788574637e-01
3.355770192366698268e-01 3.427633750181158234e-01
3.366175681333352099e-01 5.941049375283569134e-02
3.376581170300005930e-01 0.000000000000000000e+00
3.386986659266659760e-01 2.822219729870774074e-01
3.397392148233313591e-01 4.705210481162609426e-01
3.407797637199967422e-01 4.121114048368070826e-01
3.418203126166621253e-01 5.734484331039162441e-01
3.428608615133275084e-01 5.909950180987024737e-01
3.439014104099928915e-01 4.025903627695868181e-01
3.449419593066582745e-01 4.015181836221124456e-01
3.459825082033236576e-01 6.013029091909949386e-01
3.470230570999890407e-01 5.866387362756420032e-01
3.480636059966544238e-01 3.292458112644212065e-01
3.491041548933198069e-01 2.542834065130783472e-01
3.501447037899851900e-01 3.507145415793360144e-01
3.511852526866505730e-01 3.244160028437619303e-01
3.522258015833159561e-01 2.559325807202590397e-01
3.532663504799813392e-01 4.021984851979176767e-01
3.543068993766467223e-01 4.716098199694869209e-01
3.553474482733121054e-01 3.239802792929182829e-01
3.563879971699774885e-01 2.420778137980761358e-02
3.574285460666428715e-01 5.618746822173648070e-02
3.584690949633082546e-01 2.532048786103224813e-01
3.595096438599736377e-01 2.298892019978424628e-01
3.605501927566390208e-01 2.952641975307805922e-01
3.615907416533044039e-01 3.266530772742051170e-01
3.626312905499697870e-01 3.918162571870418276e-01
3.636718394466351700e-01 3.436478334168562299e-01
3.647123883433005531e-01 2.616610126778411427e-01
3.657529372399659362e-01 3.456664568636398371e-01
3.667934861366313193e-01 4.631619410537055614e-01
3.678340350332967024e-01 2.458115612794316007e-01
3.688745839299620854e-01 1.478959439997176162e-01
3.699151328266274685e-01 1.479680566629468785e-01
3.709556817232928516e-01 5.975552261660723730e-01
3.719962306199582347e-01 7.192811506473333338e-01
3.730367795166236178e-01 5.700431846924836066e-01
3.740773284132890009e-01 5.007199688636951862e-01
3.751178773099543839e-01 3.257597218943111272e-01
3.761584262066197670e-01 3.772019764081946391e-02
3.771989751032851501e-01 7.908601566735384836e-02
3.782395239999505332e-01 2.940261885683170817e-01
3.792800728966159163e-01 2.712250075974900199e-01
3.803206217932812994e-01 4.927378856388067163e-01
3.813611706899466824e-01 4.302175589672323497e-01
3.824017195866120655e-01 2.899662317006068690e-01
3.834422684832774486e-01 3.975532608367124965e-01
3.844828173799428317e-01 2.302718368265495030e-01
3.855233662766082148e-01 3.209001890802802848e-01
3.865639151732735979e-01 3.391753983053646948e-01
3.876044640699389809e-01 3.424455225674343239e-01
3.886450129666043640e-01 3.122450882545315665e-01
3.896855618632697471e-01 2.295993318815803264e-01
3.907261107599351302e-01 1.482876359639675456e-01
3.917666596566005133e-01 3.852833852462964614e-01
3.928072085532658964e-01 3.395351960578452122e-01
3.938477574499312794e-01 2.082657909610610147e-01
3.948883063465966625e-01 2.620307297479733677e-01
3.959288552432620456e-01 1.686809036584264732e-01
3.969694041399274287e-01 2.708634953648747512e-01
3.980099530365928118e-01 4.055424829679630250e-01
3.990505019332581949e-01 4.081550667478062167e-01
4.000910508299235779e-01 1.872632228091291040e-01
4.011315997265889610e-01 1.803660145855374708e-01
4.021721486232543441e-01 1.466918609881666669e-01
4.032126975199197272e-01 1.493293585086625797e-01
4.042532464165851103e-01 2.887665711830820214e-01
4.052937953132504934e-01 3.856610212703692753e-01
4.063343442099158764e-01 3.454999138162833106e-01
4.073748931065812595e-01 3.727875348059015437e-01
4.084154420032466426e-01 1.706701913536683435e-01
4.094559908999120257e-01 2.717786539859474715e-01
4.104965397965774088e-01 4.001412671723407755e-01
4.115370886932427918e-01 5.086214939073379071e-01
4.125776375899081749e-01 4.110055553477032220e-01
4.136181864865735580e-01 1.902410052008818298e-01
4.146587353832389411e-01 2.212969729101459393e-01
4.156992842799043242e-01 2.832616596215906668e-01
4.167398331765697073e-01 2.870523026452751481e-01
4.177803820732350903e-01 3.524179606808992560e-01
4.188209309699004734e-01 2.651273138697938236e-01
4.198614798665658565e-01 1.221515279990761371e-01
4.209020287632312396e-01 3.377468187808965183e-01
4.219425776598966227e-01 3.995061836779782993e-01
4.229831265565620058e-01 3.238225929052838126e-01
4.240236754532273888e-01 4.185606212239498802e-01
4.250642243498927719e-01 4.349811357976420823e-01
4.261047732465581550e-01 4.094719139700977451e-01
4.271453221432235381e-01 3.252725548484534102e-01
4.281858710398889212e-01 3.517950155054769823e-01
4.292264199365543043e-01 4.871814640227505322e-01
4.302669688332196873e-01 4.853888242229835726e-01
4.313075177298850704e-01 4.251337782944766275e-01
4.323480666265504535e-01 3.958207699349785003e-01
4.333886155232158366e-01 3.314074329133873675e-01
4.344291644198812197e-01 4.396467397394694387e-01
