# q (1/Angstrom), Intensity (arb)
2.029070354705860696e-02 2.297911070735470958e+02
2.133125244372399004e-02 2.021727839482161642e+02
2.237180134038937659e-02 1.806646765008875093e+02
2.341235023705475968e-02 1.604663806120246079e+02
2.445289913372014276e-02 1.433606319211517075e+02
2.549344803038552584e-02 1.318457975091046706e+02
2.653399692705091240e-02 1.212899762103655945e+02
2.757454582371629548e-02 1.130243963143378920e+02
2.861509472038167856e-02 1.073314441869510460e+02
2.965564361704706164e-02 1.007942374759444704e+02
3.069619251371244473e-02 9.628720751669088429e+01
3.173674141037782781e-02 9.119288482114689032e+01
3.277729030704321089e-02 8.830826266268515212e+01
3.381783920370859398e-02 8.724793779946801919e+01
3.485838810037397706e-02 8.436478272094828412e+01
3.589893699703936014e-02 8.232117408636167966e+01
3.693948589370474322e-02 8.089505507840040366e+01
3.798003479037012631e-02 8.093109057166698506e+01
3.902058368703550939e-02 8.051253149465688352e+01
4.006113258370089247e-02 8.012730830257739001e+01
4.110168148036627556e-02 8.118511778186288552e+01
4.214223037703165864e-02 8.281887092926108096e+01
4.318277927369704866e-02 8.406755912805832054e+01
4.422332817036243174e-02 8.703882583499944303e+01
4.526387706702781483e-02 9.195716310949539718e+01
4.630442596369319791e-02 9.610146089037067441e+01
4.734497486035858099e-02 1.012310452300717145e+02
4.838552375702396408e-02 1.101387302392992922e+02
4.942607265368934716e-02 1.225232915368041660e+02
5.046662155035473024e-02 1.366048881534498207e+02
5.150717044702011332e-02 1.585651643990922821e+02
5.254771934368549641e-02 1.898625403198794857e+02
5.358826824035087949e-02 2.419401741464637610e+02
5.462881713701626257e-02 3.287548267901713643e+02
5.566936603368164566e-02 4.608329551451126349e+02
5.670991493034702874e-02 6.455558427346313692e+02
5.775046382701241182e-02 8.780200186662377746e+02
5.879101272367779490e-02 1.087585013374242635e+03
5.983156162034317799e-02 1.161516276359195672e+03
6.087211051700856107e-02 1.102921406567139229e+03
6.191265941367394415e-02 9.750347482713667659e+02
6.295320831033933417e-02 8.214157345332702107e+02
6.399375720700471726e-02 6.708348284606718153e+02
6.503430610367010034e-02 5.428609132604231036e+02
6.607485500033548342e-02 4.368804806240970606e+02
6.711540389700086651e-02 3.522031007818409876e+02
6.815595279366624959e-02 2.830322196074747580e+02
6.919650169033163267e-02 2.243206587381818338e+02
7.023705058699701576e-02 1.752600809924587679e+02
7.127759948366239884e-02 1.354169277256798694e+02
7.231814838032778192e-02 1.024982471561613693e+02
7.335869727699316500e-02 7.758234905055076069e+01
7.439924617365854809e-02 5.934316282833411549e+01
7.543979507032393117e-02 4.454171332343570811e+01
7.648034396698931425e-02 3.416539300562874359e+01
7.752089286365469734e-02 2.748445823242985142e+01
7.856144176032008042e-02 2.282893986156061317e+01
7.960199065698546350e-02 1.915772754551530710e+01
8.064253955365084658e-02 1.591784715856729804e+01
8.168308845031622967e-02 1.441229775735505569e+01
8.272363734698161275e-02 1.354378238127182499e+01
8.376418624364699583e-02 1.269072185115266649e+01
8.480473514031239279e-02 1.208123279342340339e+01
8.584528403697777588e-02 1.171022463322810125e+01
8.688583293364315896e-02 1.190584840347739970e+01
8.792638183030854204e-02 1.264313721231468435e+01
8.896693072697392513e-02 1.380648761436751926e+01
9.000747962363930821e-02 1.506898157473096234e+01
9.104802852030469129e-02 1.672228764580045635e+01
9.208857741697007437e-02 1.967650933725048645e+01
9.312912631363545746e-02 2.416550641320392856e+01
9.416967521030084054e-02 3.115199403107619247e+01
9.521022410696622362e-02 4.052333532720052034e+01
9.625077300363160671e-02 4.811998311128283490e+01
9.729132190029698979e-02 5.158481684494119435e+01
9.833187079696237287e-02 5.236233877875132947e+01
9.937241969362775595e-02 5.254889616843257727e+01
1.004129685902931390e-01 5.120587178940373008e+01
1.014535174869585221e-01 4.860018261986610355e+01
1.024940663836239052e-01 4.639014461210636853e+01
1.035346152802892883e-01 4.385343291622146467e+01
1.045751641769546714e-01 4.124777984119103991e+01
1.056157130736200545e-01 4.014599757149192527e+01
1.066562619702854375e-01 3.964733175367589979e+01
1.076968108669508206e-01 3.950055943666694702e+01
1.087373597636162037e-01 4.086960757207587847e+01
1.097779086602815868e-01 4.388782665779909564e+01
1.108184575569469699e-01 4.930290970342183954e+01
1.118590064536123529e-01 5.380112847456183545e+01
1.128995553502777360e-01 5.656842970836911633e+01
1.139401042469431191e-01 5.710558005632679368e+01
1.149806531436085022e-01 5.532172943942705956e+01
1.160212020402738853e-01 5.331199011338016192e+01
1.170617509369392684e-01 5.038974030469633902e+01
1.181022998336046514e-01 4.576522345034262429e+01
1.191428487302700345e-01 4.143637925537645117e+01
1.201833976269354176e-01 3.698636582421659824e+01
1.212239465236008007e-01 3.220020926380491488e+01
1.222644954202661838e-01 2.770164153317711708e+01
1.233050443169315669e-01 2.379915220709082746e+01
1.243455932135969499e-01 2.069073524883651061e+01
1.253861421102623330e-01 1.767798263722661289e+01
1.264266910069277161e-01 1.483589104641681189e+01
1.274672399035930992e-01 1.292627725631577817e+01
1.285077888002584823e-01 1.053999719726247974e+01
1.295483376969238654e-01 8.839209616177036821e+00
1.305888865935892484e-01 7.753604046461980204e+00
1.316294354902546315e-01 6.912038623102560564e+00
1.326699843869200146e-01 6.280158716722091583e+00
1.337105332835853977e-01 5.353258218500521082e+00
1.347510821802507808e-01 5.170561649732590581e+00
1.357916310769161639e-01 4.956631155924029031e+00
1.368321799735815469e-01 4.214993118068910860e+00
1.378727288702469300e-01 3.815730944913966027e+00
1.389132777669123131e-01 3.986689730937477805e+00
1.399538266635776962e-01 4.082771975403332476e+00
1.409943755602430793e-01 3.767214135139489883e+00
1.420349244569084624e-01 4.088348551526785002e+00
1.430754733535738454e-01 4.313710719697134266e+00
1.441160222502392285e-01 4.553151617787889904e+00
1.451565711469046116e-01 5.095967318440209226e+00
1.461971200435699947e-01 5.992410100833652109e+00
1.472376689402353778e-01 6.979960203491451409e+00
1.482782178369007609e-01 8.270565140360311318e+00
1.493187667335661439e-01 9.009214118197249377e+00
1.503593156302315270e-01 1.017375753052132836e+01
1.513998645268969101e-01 1.102614231713670634e+01
1.524404134235622932e-01 1.075591113358876072e+01
1.534809623202276763e-01 1.083727746227735267e+01
1.545215112168930593e-01 1.048889712612881553e+01
1.555620601135584424e-01 9.694580326801908399e+00
1.566026090102238255e-01 8.984579878829933364e+00
1.576431579068892086e-01 8.843337540182737655e+00
1.586837068035545917e-01 8.565628579412830845e+00
1.597242557002199748e-01 8.292165217725585791e+00
1.607648045968853578e-01 7.479894584927112788e+00
1.618053534935507409e-01 7.504386587148182741e+00
1.628459023902161240e-01 7.487069748082436860e+00
1.638864512868815071e-01 7.174197506366379429e+00
1.649270001835468902e-01 7.031275720557776054e+00
1.659675490802122733e-01 7.256341142052963988e+00
1.670080979768776563e-01 7.358254973076903127e+00
1.680486468735430672e-01 6.879778979418027518e+00
1.690891957702084503e-01 6.231410040673182493e+00
1.701297446668738333e-01 6.149974898421817215e+00
1.711702935635392164e-01 6.282201164038131225e+00
1.722108424602045995e-01 5.846146054442005635e+00
1.732513913568699826e-01 5.965642847642108393e+00
1.742919402535353657e-01 5.444969653831691403e+00
1.753324891502007488e-01 5.301724248744967838e+00
1.763730380468661318e-01 4.954347099301404711e+00
1.774135869435315149e-01 4.238895675277255748e+00
1.784541358401968980e-01 4.225781696752434868e+00
1.794946847368622811e-01 4.020156890641324310e+00
1.805352336335276642e-01 3.813026776714096400e+00
1.815757825301930473e-01 3.676638352044090396e+00
1.826163314268584303e-01 3.329632136341807325e+00
1.836568803235238134e-01 3.032766769444787514e+00
1.846974292201891965e-01 2.955015955792699600e+00
1.857379781168545796e-01 2.831995382104196324e+00
1.867785270135199627e-01 2.818599836742663456e+00
1.878190759101853458e-01 2.522496872996565997e+00
1.888596248068507288e-01 2.375192510090013087e+00
1.899001737035161119e-01 2.050815834949933247e+00
1.909407226001814950e-01 1.406412088836223262e+00
1.919812714968468781e-01 1.555242983353352315e+00
1.930218203935122612e-01 1.845706789558828831e+00
1.940623692901776443e-01 2.010419100760557853e+00
1.951029181868430273e-01 1.782368333818329376e+00
1.961434670835084104e-01 1.725573161563168867e+00
1.971840159801737935e-01 1.649200227197450630e+00
1.982245648768391766e-01 1.984387051858181650e+00
1.992651137735045597e-01 2.122457553435843636e+00
2.003056626701699428e-01 2.494913877151958559e+00
2.013462115668353813e-01 2.614305653412607455e+00
2.023867604635007644e-01 2.366010411912608191e+00
2.034273093601661475e-01 2.428113306347455591e+00
2.044678582568315306e-01 2.467708551880431145e+00
2.055084071534969137e-01 2.489865522159025346e+00
2.065489560501622968e-01 2.644490438330105775e+00
2.075895049468276798e-01 2.521020946860314638e+00
2.086300538434930629e-01 2.288066212762092988e+00
2.096706027401584460e-01 2.289853764717978635e+00
2.107111516368238291e-01 2.254660841565470975e+00
2.117517005334892122e-01 2.131719026684116614e+00
2.127922494301545953e-01 1.929682385730988159e+00
2.138327983268199783e-01 2.248517041308694786e+00
2.148733472234853614e-01 2.534929004236918360e+00
2.159138961201507445e-01 2.297927712895603491e+00
2.169544450168161276e-01 2.097788177157077882e+00
2.179949939134815107e-01 2.391929328807776756e+00
2.190355428101468938e-01 2.191029827294602939e+00
2.200760917068122768e-01 2.006301718102292853e+00
2.211166406034776599e-01 1.993398750580460899e+00
2.221571895001430430e-01 1.959619975127974811e+00
2.231977383968084261e-01 1.904151793235755008e+00
2.242382872934738092e-01 1.494010507696195589e+00
2.252788361901391923e-01 1.500393835319403735e+00
2.263193850868045753e-01 1.821853468167880408e+00
2.273599339834699584e-01 1.949174291275244997e+00
2.284004828801353415e-01 1.710126724708857182e+00
2.294410317768007246e-01 1.662002766256907904e+00
2.304815806734661077e-01 1.629024568867080802e+00
2.315221295701314908e-01 1.605978538341148010e+00
2.325626784667968738e-01 1.799106081213359687e+00
2.336032273634622569e-01 1.526418107183744155e+00
2.346437762601276400e-01 1.658100181817303564e+00
2.356843251567930231e-01 1.641476698277365642e+00
2.367248740534584062e-01 1.422910551406289414e+00
2.377654229501237892e-01 1.213854363062438324e+00
2.388059718467891723e-01 1.131052680738115157e+00
2.398465207434545554e-01 1.243503357353084482e+00
2.408870696401199385e-01 1.467884503400266993e+00
2.419276185367853216e-01 1.391450133273856693e+00
2.429681674334507047e-01 1.004407224270327248e+00
2.440087163301160877e-01 1.032857605705046922e+00
2.450492652267814708e-01 1.142793399087686623e+00
2.460898141234468539e-01 1.234252280139589431e+00
2.471303630201122370e-01 1.174771743234661159e+00
2.481709119167776201e-01 9.592545522888933363e-01
2.492114608134430032e-01 7.249884382749236522e-01
2.502520097101083585e-01 6.939111567664184577e-01
2.512925586067737416e-01 7.847431632535304402e-01
2.523331075034391247e-01 1.033122633706494042e+00
2.533736564001045077e-01 8.616643817449691767e-01
2.544142052967698908e-01 6.886562022190112486e-01
2.554547541934352739e-01 1.035223961429998951e+00
2.564953030901006570e-01 9.763898968866584482e-01
2.575358519867660401e-01 1.242437470620274098e+00
2.585764008834314231e-01 1.267365714291194934e+00
2.596169497800968062e-01 8.495774716481356847e-01
2.606574986767621893e-01 9.605585944517045505e-01
2.616980475734275724e-01 9.024626498812828856e-01
2.627385964700929555e-01 7.997577554013730605e-01
2.637791453667583386e-01 1.014479392581439043e+00
2.648196942634237216e-01 8.688369654977812218e-01
2.658602431600891047e-01 7.642061208396810912e-01
2.669007920567544878e-01 8.888422874656924932e-01
2.679413409534198709e-01 8.394646579027664757e-01
2.689818898500852540e-01 8.568831614289109666e-01
2.700224387467506371e-01 8.080090527737411321e-01
2.710629876434160201e-01 8.592382527645909818e-01
2.721035365400814032e-01 8.364716212975764620e-01
2.731440854367467863e-01 7.386086903407402815e-01
2.741846343334121694e-01 9.770513892936776301e-01
2.752251832300775525e-01 1.128618786940172924e+00
2.762657321267429356e-01 1.021242055377154401e+00
2.773062810234083186e-01 8.486278941870963877e-01
2.783468299200737017e-01 6.047703435685995998e-01
2.793873788167390848e-01 8.140407252753618650e-01
2.804279277134044679e-01 7.840206946590164705e-01
2.814684766100698510e-01 7.666083524743747546e-01
2.825090255067352341e-01 7.793631438682666612e-01
2.835495744034006171e-01 1.064701265978637679e+00
2.845901233000660002e-01 1.063597093624164103e+00
2.856306721967313833e-01 8.724122608605924256e-01
2.866712210933967664e-01 3.078608578326296197e-01
2.877117699900621495e-01 6.709930553929730479e-01
2.887523188867275326e-01 8.369606240367630789e-01
2.897928677833929156e-01 6.453747566843688332e-01
2.908334166800582987e-01 4.227913717936822025e-01
2.918739655767236818e-01 6.043972826126449149e-01
2.929145144733890649e-01 8.203582856693216740e-01
2.939550633700544480e-01 5.807307750554073777e-01
2.949956122667198311e-01 7.515108585506169447e-01
2.960361611633852141e-01 7.351148612843125818e-01
2.970767100600505972e-01 6.988836302129790568e-01
2.981172589567159803e-01 3.939147517616845562e-01
2.991578078533813634e-01 5.466257902740743191e-01
3.001983567500468020e-01 5.064798174180680235e-01
3.012389056467121851e-01 5.846336071712876503e-01
3.022794545433775681e-01 7.855950991674625072e-01
3.033200034400429512e-01 6.566369228181905271e-01
3.043605523367083343e-01 4.146031092804385310e-01
3.054011012333737174e-01 6.638340973274523549e-01
3.064416501300391005e-01 6.405020216927894694e-01
3.074821990267044836e-01 4.292071693737860016e-01
3.085227479233698666e-01 4.056065861648647797e-01
3.095632968200352497e-01 7.164349362941138111e-01
3.106038457167006328e-01 4.686944786092013260e-01
3.116443946133660159e-01 3.942806472449831290e-01
3.126849435100313990e-01 6.342288064242609380e-01
3.137254924066967821e-01 5.349553718026278659e-01
3.147660413033621651e-01 4.781570364042799781e-01
3.158065902000275482e-01 6.205128695322592591e-01
3.168471390966929313e-01 8.214715789973290327e-01
3.178876879933583144e-01 6.438122907407795026e-01
3.189282368900236975e-01 4.119358678067186474e-01
3.199687857866890806e-01 3.133648938409479001e-01
3.210093346833544636e-01 4.117613625780585096e-01
3.220498835800198467e-01 5.938236874477382798e-01
3.230904324766852298e-01 5.056378857527370485e-01
3.241309813733506129e-01 4.490483850820190526e-01
3.251715302700159960e-01 5.446545834472722447e-01
3.262120791666813790e-01 2.558076235799937592e-01
3.272526280633467621e-01 3.684873196440285881e-01
3.282931769600121452e-01 6.334744691620741719e-01
3.293337258566775283e-01 5.121123903398867583e-01
3.303742747533429114e-01 3.540807863522630328e-01
3.314148236500082945e-01 3.768094998780142646e-01
3.324553725466736775e-01 3.100042075278217624e-01
3.334959214433390606e-01 4.882731897469732019e-01
3.345364703400044437e-01 4.374533371488027456e-01
3.355770192366698268e-01 4.470890757929346648e-01
3.366175681333352099e-01 5.741264679046480524e-01
3.376581170300005930e-01 2.251084062882213743e-01
3.386986659266659760e-01 5.679035010986801524e-01
3.397392148233313591e-01 4.583538614388658061e-01
3.407797637199967422e-01 4.116794424372400840e-01
3.418203126166621253e-01 4.703686753225433392e-01
3.428608615133275084e-01 4.438071384248694073e-01
3.439014104099928915e-01 3.841523544659217748e-01
3.449419593066582745e-01 5.576493455856770254e-01
3.459825082033236576e-01 3.816168486100117718e-01
3.470230570999890407e-01 2.325293907191934295e-01
3.480636059966544238e-01 3.297374329697575490e-01
3.491041548933198069e-01 2.799313998311774299e-01
3.501447037899851900e-01 3.792436027819796607e-01
3.511852526866505730e-01 3.403639485932252740e-01
3.522258015833159561e-01 3.812028382493117817e-01
3.532663504799813392e-01 4.470801615190715950e-01
3.543068993766467223e-01 3.533537111957407717e-01
3.553474482733121054e-01 3.149289527897742857e-01
3.563879971699774885e-01 3.611926111629983893e-01
3.574285460666428715e-01 4.849855598049011007e-01
3.584690949633082546e-01 4.036908617649608289e-01
3.595096438599736377e-01 3.189060795930878101e-01
3.605501927566390208e-01 2.805841530434456388e-01
3.615907416533044039e-01 3.461517036532448799e-01
3.626312905499697870e-01 3.635316263745842491e-01
3.636718394466351700e-01 5.319778186487873484e-01
3.647123883433005531e-01 5.155664132153248147e-01
3.657529372399659362e-01 4.690180354210191638e-01
3.667934861366313193e-01 5.675243017737798823e-01
3.678340350332967024e-01 3.485232196930390103e-01
3.688745839299620854e-01 1.108194585534967302e-01
3.699151328266274685e-01 1.915776771917201415e-01
3.709556817232928516e-01 3.870074743087315028e-01
3.719962306199582347e-01 4.966961372472802339e-01
3.730367795166236178e-01 4.977901685661834108e-01
3.740773284132890009e-01 4.980438831051827719e-01
3.751178773099543839e-01 3.617634874550716972e-01
3.761584262066197670e-01 2.419887667327387248e-01
3.771989751032851501e-01 2.266370445222953833e-01
3.782395239999505332e-01 2.948372939104118018e-01
3.792800728966159163e-01 3.694917522005916055e-01
3.803206217932812994e-01 2.516872816433171067e-01
3.813611706899466824e-01 3.302894831356262273e-01
3.824017195866120655e-01 4.100891168525926389e-01
3.834422684832774486e-01 2.725771450129244045e-01
3.844828173799428317e-01 2.006575970781838691e-01
3.855233662766082148e-01 2.672123460351798485e-01
3.865639151732735979e-01 2.305067702779162175e-01
3.876044640699389809e-01 1.827443710299903046e-01
3.886450129666043640e-01 2.554949890228392917e-01
3.896855618632697471e-01 4.073635889811235700e-01
3.907261107599351302e-01 4.325790057293623647e-01
3.917666596566005133e-01 3.250183682478784419e-01
3.928072085532658964e-01 3.519299104463620154e-01
3.938477574499312794e-01 2.736561212931682974e-01
3.948883063465966625e-01 2.410865732703655340e-01
3.959288552432620456e-01 3.695896943804086732e-01
3.969694041399274287e-01 6.514545115252801111e-02
3.980099530365928118e-01 4.992377277658732737e-02
3.990505019332581949e-01 8.794206967390749696e-03
4.000910508299235779e-01 3.835779438580644296e-02
4.011315997265889610e-01 1.796791178499290709e-01
4.021721486232543441e-01 6.231263812260934287e-01
4.032126975199197272e-01 3.655455363653423717e-01
4.042532464165851103e-01 2.177177095619455827e-01
4.052937953132504934e-01 3.562419857732663786e-01
4.063343442099158764e-01 3.690142924028165794e-01
4.073748931065812595e-01 2.249532751451006618e-01
4.084154420032466426e-01 3.785582297732545953e-01
4.094559908999120257e-01 2.673157960370993180e-01
4.104965397965774088e-01 2.984762406721905847e-01
4.115370886932427918e-01 5.260911483758690110e-01
4.125776375899081749e-01 4.199937373421001041e-01
4.136181864865735580e-01 2.085023183918970346e-01
4.146587353832389411e-01 1.852198291943132347e-01
4.156992842799043242e-01 2.316488331525121680e-01
4.167398331765697073e-01 2.527594729920288330e-01
4.177803820732350903e-01 1.076237522726017914e-01
4.188209309699004734e-01 2.669377859889010551e-01
4.198614798665658565e-01 4.276875548035654617e-01
4.209020287632312396e-01 3.097151179805130994e-01
4.219425776598966227e-01 2.102533105048252082e-01
4.229831265565620058e-01 3.015940060343851314e-01
4.240236754532273888e-01 4.154962551820950978e-01
4.250642243498927719e-01 4.820501143777597974e-01
4.261047732465581550e-01 3.936058242784952199e-01
4.271453221432235381e-01 4.130995975961795352e-01
4.281858710398889212e-01 2.382426117532965293e-01
4.292264199365543043e-01 1.892495317443732006e-01
4.302669688332196873e-01 2.413709484351329593e-01
4.313075177298850704e-01 3.369592706663198101e-01
4.323480666265504535e-01 5.508785371900408734e-01
4.333886155232158366e-01 5.252242441148524676e-01
4.344291644198812197e-01 5.386794169372741692e-01
