# q (1/Angstrom), Intensity (arb)
2.029070354705860696e-02 2.469963310086545221e+02
2.133125244372399004e-02 2.140442731700585739e+02
2.237180134038937659e-02 1.861954774484397603e+02
2.341235023705475968e-02 1.649118881098991096e+02
2.445289913372014276e-02 1.525730903848499622e+02
2.549344803038552584e-02 1.401118680206972158e+02
2.653399692705091240e-02 1.282578483596024910e+02
2.757454582371629548e-02 1.238495739716773585e+02
2.861509472038167856e-02 1.164923741022652308e+02
2.965564361704706164e-02 1.082555821942184764e+02
3.069619251371244473e-02 1.013441469702476780e+02
3.173674141037782781e-02 9.660574836821247402e+01
3.277729030704321089e-02 9.431016244422281147e+01
3.381783920370859398e-02 9.226483961710987103e+01
3.485838810037397706e-02 8.864634674898806566e+01
3.589893699703936014e-02 8.603362133098869435e+01
3.693948589370474322e-02 8.672215185824612149e+01
3.798003479037012631e-02 8.484883123011925932e+01
3.902058368703550939e-02 8.506791156172550927e+01
4.006113258370089247e-02 8.590081170217095519e+01
4.110168148036627556e-02 8.672176216152627148e+01
4.214223037703165864e-02 8.888078859279690391e+01
4.318277927369704866e-02 9.173869473054068635e+01
4.422332817036243174e-02 9.380497118231372156e+01
4.526387706702781483e-02 9.876246024704244064e+01
4.630442596369319791e-02 1.046791286931527765e+02
4.734497486035858099e-02 1.132590569825730427e+02
4.838552375702396408e-02 1.233964194879372940e+02
4.942607265368934716e-02 1.385653406448399778e+02
5.046662155035473024e-02 1.572212869732704519e+02
5.150717044702011332e-02 1.842509199095901238e+02
5.254771934368549641e-02 2.261969874795036333e+02
5.358826824035087949e-02 2.997848325491419814e+02
5.462881713701626257e-02 4.189239400549975585e+02
5.566936603368164566e-02 5.937525800299337106e+02
5.670991493034702874e-02 8.271946191528447798e+02
5.775046382701241182e-02 1.072921282934423743e+03
5.879101272367779490e-02 1.218484479206269725e+03
5.983156162034317799e-02 1.200322614219637671e+03
6.087211051700856107e-02 1.083745115552910647e+03
6.191265941367394415e-02 9.244633357932207218e+02
6.295320831033933417e-02 7.569077721571801476e+02
6.399375720700471726e-02 6.096736481842135618e+02
6.503430610367010034e-02 4.884599934317056409e+02
6.607485500033548342e-02 3.908864324830027499e+02
6.711540389700086651e-02 3.147273061793492843e+02
6.815595279366624959e-02 2.496955584741735095e+02
6.919650169033163267e-02 1.963846903302771523e+02
7.023705058699701576e-02 1.507533016433206967e+02
7.127759948366239884e-02 1.148266407505559243e+02
7.231814838032778192e-02 8.676688000853305027e+01
7.335869727699316500e-02 6.502662160790849555e+01
7.439924617365854809e-02 4.936347470112983871e+01
7.543979507032393117e-02 3.875267620058530582e+01
7.648034396698931425e-02 3.052792874697846770e+01
7.752089286365469734e-02 2.442101419569060994e+01
7.856144176032008042e-02 2.031751231484091846e+01
7.960199065698546350e-02 1.770078570267741469e+01
8.064253955365084658e-02 1.553626799821653037e+01
8.168308845031622967e-02 1.434656691018557240e+01
8.272363734698161275e-02 1.345361136360348553e+01
8.376418624364699583e-02 1.263955606338390680e+01
8.480473514031239279e-02 1.277960135099203143e+01
8.584528403697777588e-02 1.330573116223291663e+01
8.688583293364315896e-02 1.357758765238354215e+01
8.792638183030854204e-02 1.385537013096968195e+01
8.896693072697392513e-02 1.558203010538507272e+01
9.000747962363930821e-02 1.810024277310567697e+01
9.104802852030469129e-02 2.140178686988647172e+01
9.208857741697007437e-02 2.628372400538770393e+01
9.312912631363545746e-02 3.423029567965818387e+01
9.416967521030084054e-02 4.453894519452969547e+01
9.521022410696622362e-02 5.257702359084581900e+01
9.625077300363160671e-02 5.701491445084128173e+01
9.729132190029698979e-02 5.815439125415557697e+01
9.833187079696237287e-02 5.752222408137016885e+01
9.937241969362775595e-02 5.617377905973744134e+01
1.004129685902931390e-01 5.302443741619116224e+01
1.014535174869585221e-01 4.944286019473183558e+01
1.024940663836239052e-01 4.707925315322704307e+01
1.035346152802892883e-01 4.521561190991617707e+01
1.045751641769546714e-01 4.347435766940326118e+01
1.056157130736200545e-01 4.257597525734123423e+01
1.066562619702854375e-01 4.229512612782038872e+01
1.076968108669508206e-01 4.426454778073945562e+01
1.087373597636162037e-01 4.724699019261131383e+01
1.097779086602815868e-01 5.191825001041372900e+01
1.108184575569469699e-01 5.761620281103246555e+01
1.118590064536123529e-01 6.060806537775140157e+01
1.128995553502777360e-01 5.950495921800263943e+01
1.139401042469431191e-01 5.824905377728764932e+01
1.149806531436085022e-01 5.574855077165318562e+01
1.160212020402738853e-01 5.189205784645354669e+01
1.170617509369392684e-01 4.731956947759952925e+01
1.181022998336046514e-01 4.208219323864287276e+01
1.191428487302700345e-01 3.675784991513074118e+01
1.201833976269354176e-01 3.210669698820670703e+01
1.212239465236008007e-01 2.796191430512327969e+01
1.222644954202661838e-01 2.402827295422961384e+01
1.233050443169315669e-01 2.030817914257475110e+01
1.243455932135969499e-01 1.715294630107536022e+01
1.253861421102623330e-01 1.499264888546144903e+01
1.264266910069277161e-01 1.226939683852041441e+01
1.274672399035930992e-01 1.054428075986947988e+01
1.285077888002584823e-01 8.952505671072842119e+00
1.295483376969238654e-01 7.539808738821371037e+00
1.305888865935892484e-01 6.526080678947039360e+00
1.316294354902546315e-01 5.391356424132936809e+00
1.326699843869200146e-01 4.658351758807199872e+00
1.337105332835853977e-01 4.284390451681581169e+00
1.347510821802507808e-01 3.866488963659143963e+00
1.357916310769161639e-01 4.321926960931321560e+00
1.368321799735815469e-01 4.221087070948556175e+00
1.378727288702469300e-01 3.754035120141921311e+00
1.389132777669123131e-01 3.454720480128031568e+00
1.399538266635776962e-01 3.930278411058289123e+00
1.409943755602430793e-01 4.377832040509744616e+00
1.420349244569084624e-01 4.734858454947215023e+00
1.430754733535738454e-01 4.939174933513008625e+00
1.441160222502392285e-01 5.860898569613034681e+00
1.451565711469046116e-01 7.050767640265505065e+00
1.461971200435699947e-01 7.962948525170887137e+00
1.472376689402353778e-01 9.223857131007868304e+00
1.482782178369007609e-01 1.049069700320957566e+01
1.493187667335661439e-01 1.134739773540010077e+01
1.503593156302315270e-01 1.180100992235716006e+01
1.513998645268969101e-01 1.177371372898122104e+01
1.524404134235622932e-01 1.104696585705359979e+01
1.534809623202276763e-01 1.034451767082457962e+01
1.545215112168930593e-01 1.028357601088458750e+01
1.555620601135584424e-01 1.028041656579280527e+01
1.566026090102238255e-01 9.718638494561432140e+00
1.576431579068892086e-01 9.309767588286881335e+00
1.586837068035545917e-01 8.599655569561974744e+00
1.597242557002199748e-01 8.278358313396068979e+00
1.607648045968853578e-01 7.715693609359718153e+00
1.618053534935507409e-01 7.701459834052343467e+00
1.628459023902161240e-01 7.904880917042831356e+00
1.638864512868815071e-01 7.590610520181627408e+00
1.649270001835468902e-01 7.398503860337278581e+00
1.659675490802122733e-01 7.161956644369162461e+00
1.670080979768776563e-01 6.304131544813394328e+00
1.680486468735430672e-01 6.082277893974023186e+00
1.690891957702084503e-01 6.162484885126630729e+00
1.701297446668738333e-01 5.675609133198122436e+00
1.711702935635392164e-01 5.784111360399112556e+00
1.722108424602045995e-01 5.959335077079412457e+00
1.732513913568699826e-01 5.877111265167712872e+00
1.742919402535353657e-01 5.556391498029324083e+00
1.753324891502007488e-01 4.941479772176535334e+00
1.763730380468661318e-01 4.657141617660013111e+00
1.774135869435315149e-01 4.002864386418895748e+00
1.784541358401968980e-01 3.568622776645181460e+00
1.794946847368622811e-01 3.234919106215254914e+00
1.805352336335276642e-01 3.429360221904484973e+00
1.815757825301930473e-01 3.335425416870236859e+00
1.826163314268584303e-01 3.256426047694443326e+00
1.836568803235238134e-01 2.964092959916683867e+00
1.846974292201891965e-01 2.384785402056831316e+00
1.857379781168545796e-01 2.007695521532081528e+00
1.867785270135199627e-01 2.197219684288334918e+00
1.878190759101853458e-01 2.058560117176426729e+00
1.888596248068507288e-01 1.860668681877239550e+00
1.899001737035161119e-01 1.945132235238016705e+00
1.909407226001814950e-01 1.848079278460858177e+00
1.919812714968468781e-01 1.802918994699822974e+00
1.930218203935122612e-01 1.657694589156243126e+00
1.940623692901776443e-01 1.675755168094369196e+00
1.951029181868430273e-01 1.999894483895491959e+00
1.961434670835084104e-01 2.245131545170480081e+00
1.971840159801737935e-01 2.071858178496260194e+00
1.982245648768391766e-01 2.067120314790400926e+00
1.992651137735045597e-01 2.363076718257435260e+00
2.003056626701699428e-01 2.735077409187940845e+00
2.013462115668353813e-01 2.842108153423435368e+00
2.023867604635007644e-01 2.608345363619335444e+00
2.034273093601661475e-01 2.897571091285364275e+00
2.044678582568315306e-01 2.926149916959310815e+00
2.055084071534969137e-01 2.727555857238883164e+00
2.065489560501622968e-01 2.689125866619267669e+00
2.075895049468276798e-01 2.388179459309011321e+00
2.086300538434930629e-01 2.200784061024386062e+00
2.096706027401584460e-01 2.327173701235558667e+00
2.107111516368238291e-01 2.246821879423471557e+00
2.117517005334892122e-01 1.925345395566694151e+00
2.127922494301545953e-01 2.012508799476723453e+00
2.138327983268199783e-01 2.247296688660441077e+00
2.148733472234853614e-01 2.188062241572520605e+00
2.159138961201507445e-01 2.299449251268434580e+00
2.169544450168161276e-01 2.130121648679352830e+00
2.179949939134815107e-01 2.164121009405292284e+00
2.190355428101468938e-01 2.168259532277723167e+00
2.200760917068122768e-01 2.293869034536125895e+00
2.211166406034776599e-01 2.342915701232346493e+00
2.221571895001430430e-01 2.084397496962630214e+00
2.231977383968084261e-01 1.960460408890035922e+00
2.242382872934738092e-01 1.944773986855455661e+00
2.252788361901391923e-01 1.779263158945429524e+00
2.263193850868045753e-01 1.822504787631185508e+00
2.273599339834699584e-01 1.529918759629119052e+00
2.284004828801353415e-01 1.304003948434250049e+00
2.294410317768007246e-01 1.182174425350464020e+00
2.304815806734661077e-01 1.525336056597232925e+00
2.315221295701314908e-01 1.348594222767729889e+00
2.325626784667968738e-01 1.343234259747909221e+00
2.336032273634622569e-01 1.088799078732833436e+00
2.346437762601276400e-01 9.507488991543304735e-01
2.356843251567930231e-01 1.206497018990255299e+00
2.367248740534584062e-01 1.035614497333781969e+00
2.377654229501237892e-01 1.237714870478392015e+00
2.388059718467891723e-01 1.205613303438433093e+00
2.398465207434545554e-01 1.332646104505958107e+00
2.408870696401199385e-01 1.311428723795064144e+00
2.419276185367853216e-01 1.227179441748162958e+00
2.429681674334507047e-01 8.829074731015111865e-01
2.440087163301160877e-01 9.125498024565814603e-01
2.450492652267814708e-01 8.661297084124441881e-01
2.460898141234468539e-01 7.179249061351775651e-01
2.471303630201122370e-01 1.252157068401306361e+00
2.481709119167776201e-01 1.288397236393777234e+00
2.492114608134430032e-01 1.196378779698203942e+00
2.502520097101083585e-01 1.242465407283816603e+00
2.512925586067737416e-01 1.068032815409068803e+00
2.523331075034391247e-01 5.431087538338310594e-01
2.533736564001045077e-01 7.623600952206537329e-01
2.544142052967698908e-01 1.066465911368936759e+00
2.554547541934352739e-01 8.714371081590286394e-01
2.564953030901006570e-01 9.653933847240239174e-01
2.575358519867660401e-01 1.144681876843382184e+00
2.585764008834314231e-01 1.177268612113842039e+00
2.596169497800968062e-01 1.142531287233758519e+00
2.606574986767621893e-01 1.001031573513227357e+00
2.616980475734275724e-01 9.993072212127849241e-01
2.627385964700929555e-01 8.477317664215640036e-01
2.637791453667583386e-01 1.103864003648627801e+00
2.648196942634237216e-01 1.080900227776627531e+00
2.658602431600891047e-01 9.140799431738884095e-01
2.669007920567544878e-01 1.273762945043355188e+00
2.679413409534198709e-01 1.295409023400790005e+00
2.689818898500852540e-01 1.089282964469873605e+00
2.700224387467506371e-01 8.170699136550254593e-01
2.710629876434160201e-01 7.969443834246519032e-01
2.721035365400814032e-01 8.583399879508739616e-01
2.731440854367467863e-01 7.386697966107895752e-01
2.741846343334121694e-01 7.363830345480799622e-01
2.752251832300775525e-01 7.487779388373603240e-01
2.762657321267429356e-01 7.985484171511600948e-01
2.773062810234083186e-01 9.057917383592481997e-01
2.783468299200737017e-01 6.573686691774796031e-01
2.793873788167390848e-01 5.272328367924039583e-01
2.804279277134044679e-01 6.400413650566250112e-01
2.814684766100698510e-01 7.444292060125619059e-01
2.825090255067352341e-01 7.491268718359727075e-01
2.835495744034006171e-01 8.879431150322218969e-01
2.845901233000660002e-01 7.952473383417313357e-01
2.856306721967313833e-01 6.836903487682128855e-01
2.866712210933967664e-01 4.919500955634816819e-01
2.877117699900621495e-01 5.773950399767322494e-01
2.887523188867275326e-01 5.542798210726687103e-01
2.897928677833929156e-01 5.869743628144377112e-01
2.908334166800582987e-01 6.251200449576508333e-01
2.918739655767236818e-01 5.827461235186746080e-01
2.929145144733890649e-01 5.664086387887756757e-01
2.939550633700544480e-01 5.911733179389280224e-01
2.949956122667198311e-01 8.120954093479291203e-01
2.960361611633852141e-01 6.718628843738763123e-01
2.970767100600505972e-01 5.651833643186883194e-01
2.981172589567159803e-01 6.193179400624124753e-01
2.991578078533813634e-01 6.526713358696838441e-01
3.001983567500468020e-01 5.277674632801634402e-01
3.012389056467121851e-01 4.177578419561491785e-01
3.022794545433775681e-01 6.691200428248649246e-01
3.033200034400429512e-01 7.942562504208261487e-01
3.043605523367083343e-01 3.046578198108669255e-01
3.054011012333737174e-01 1.541547609617026637e-01
3.064416501300391005e-01 4.310085673198038592e-01
3.074821990267044836e-01 3.215901912599861134e-01
3.085227479233698666e-01 3.917375931385294052e-01
3.095632968200352497e-01 6.551196266830707771e-01
3.106038457167006328e-01 5.473196743254113983e-01
3.116443946133660159e-01 4.819598975409675745e-01
3.126849435100313990e-01 6.552093181352880435e-01
3.137254924066967821e-01 6.049659396513682452e-01
3.147660413033621651e-01 4.931376450660636124e-01
3.158065902000275482e-01 4.636736002412575886e-01
3.168471390966929313e-01 6.920052077736080776e-01
3.178876879933583144e-01 1.015703835636525554e+00
3.189282368900236975e-01 4.415315040854679296e-01
3.199687857866890806e-01 3.500713713107543867e-01
3.210093346833544636e-01 6.054405136389071629e-01
3.220498835800198467e-01 3.982469298949276038e-01
3.230904324766852298e-01 2.455227886367055135e-01
3.241309813733506129e-01 4.772944152026639131e-01
3.251715302700159960e-01 4.097893077571761467e-01
3.262120791666813790e-01 3.421209456759335410e-01
3.272526280633467621e-01 5.364882424869819033e-01
3.282931769600121452e-01 6.489514596447847339e-01
3.293337258566775283e-01 5.308501509953948982e-01
3.303742747533429114e-01 4.342844017419693614e-01
3.314148236500082945e-01 3.594925107429070010e-01
3.324553725466736775e-01 1.972699299874669521e-01
3.334959214433390606e-01 3.639831133706188382e-01
3.345364703400044437e-01 4.005788343161640341e-01
3.355770192366698268e-01 4.549170040603591758e-01
3.366175681333352099e-01 4.129300397945634415e-01
3.376581170300005930e-01 5.658851501148696173e-01
3.386986659266659760e-01 5.583843174745837246e-01
3.397392148233313591e-01 4.299848957846954534e-01
3.407797637199967422e-01 4.087075006456153403e-01
3.418203126166621253e-01 4.011942278761857494e-01
3.428608615133275084e-01 4.108543598661142937e-01
3.439014104099928915e-01 3.814715126364944808e-01
3.449419593066582745e-01 4.224487774403122842e-01
3.459825082033236576e-01 2.984351721164699711e-01
3.470230570999890407e-01 4.177314996126391122e-01
3.480636059966544238e-01 3.516669767613755937e-01
3.491041548933198069e-01 2.835798212565343590e-01
3.501447037899851900e-01 3.480362548853044302e-01
3.511852526866505730e-01 4.490248413744915013e-01
3.522258015833159561e-01 4.442837583257954748e-01
3.532663504799813392e-01 3.847708979709629773e-01
3.543068993766467223e-01 3.799899535561408470e-01
3.553474482733121054e-01 1.773286087600034477e-01
3.563879971699774885e-01 9.249901849698716205e-02
3.574285460666428715e-01 2.386898979982099434e-01
3.584690949633082546e-01 3.233047339067418591e-01
3.595096438599736377e-01 3.937703179388947206e-01
3.605501927566390208e-01 4.234565676104260490e-01
3.615907416533044039e-01 4.164864298155031008e-01
3.626312905499697870e-01 3.447434216058233858e-01
3.636718394466351700e-01 1.402589930715691935e-01
3.647123883433005531e-01 2.970387335888702296e-02
3.657529372399659362e-01 4.382435246744265100e-01
3.667934861366313193e-01 4.071054644360501129e-01
3.678340350332967024e-01 2.801787648392988217e-01
3.688745839299620854e-01 3.065437059631079819e-01
3.699151328266274685e-01 2.928991765705184491e-01
3.709556817232928516e-01 1.386554847532401880e-01
3.719962306199582347e-01 2.036799938118605269e-02
3.730367795166236178e-01 2.891693094515304097e-01
3.740773284132890009e-01 2.344156858794477216e-01
3.751178773099543839e-01 3.340344386975822033e-01
3.761584262066197670e-01 3.813944212583493254e-01
3.771989751032851501e-01 2.867630346619414183e-01
3.782395239999505332e-01 2.109007857584295209e-01
3.792800728966159163e-01 1.510725757305451111e-01
3.803206217932812994e-01 2.220645969049925839e-01
3.813611706899466824e-01 2.415040759692956840e-01
3.824017195866120655e-01 3.035472688053708623e-01
3.834422684832774486e-01 4.575342765904366615e-01
3.844828173799428317e-01 3.482717101359327216e-01
3.855233662766082148e-01 2.873524893064605124e-01
3.865639151732735979e-01 2.363710488807413412e-01
3.876044640699389809e-01 3.925893175819297198e-01
3.886450129666043640e-01 4.815790890073365915e-01
3.896855618632697471e-01 4.620655826869537464e-01
3.907261107599351302e-01 6.027282854875402052e-01
3.917666596566005133e-01 1.356135540302041420e-01
3.928072085532658964e-01 1.946812934940638229e-01
3.938477574499312794e-01 1.452083408074038573e-01
3.948883063465966625e-01 3.864623773200932533e-01
3.959288552432620456e-01 3.414512939531668678e-01
3.969694041399274287e-01 1.757775080852965743e-01
3.980099530365928118e-01 2.541657623547592948e-01
3.990505019332581949e-01 3.334184871549865647e-01
4.000910508299235779e-01 2.120164717839863044e-01
4.011315997265889610e-01 1.407310915419444086e-01
4.021721486232543441e-01 1.860544910463453050e-01
4.032126975199197272e-01 2.788460022838563646e-01
4.042532464165851103e-01 2.400796297708325255e-01
4.052937953132504934e-01 2.656743137904484797e-01
4.063343442099158764e-01 2.626144929009726070e-01
4.073748931065812595e-01 2.956887053800834053e-01
4.084154420032466426e-01 2.471096313009404355e-01
4.094559908999120257e-01 2.259645078378049732e-01
4.104965397965774088e-01 1.566558234871955335e-01
4.115370886932427918e-01 2.294496903841718449e-01
4.125776375899081749e-01 3.866681615211184919e-01
4.136181864865735580e-01 3.651606886272169561e-01
4.146587353832389411e-01 1.873474045596132953e-01
4.156992842799043242e-01 6.980843913939693834e-02
4.167398331765697073e-01 3.164367142208774908e-01
4.177803820732350903e-01 4.192358232445165811e-01
4.188209309699004734e-01 3.231299744348312686e-01
4.198614798665658565e-01 3.321480235902072309e-01
4.209020287632312396e-01 1.310009846324007299e-01
4.219425776598966227e-01 1.286937446043801003e-01
4.229831265565620058e-01 1.624446035438396052e-01
4.240236754532273888e-01 1.489011609300021632e-01
4.250642243498927719e-01 1.980795022723427223e-01
4.261047732465581550e-01 1.505136096350838670e-01
4.271453221432235381e-01 1.894695459207476063e-01
4.281858710398889212e-01 7.469303470395516342e-02
4.292264199365543043e-01 9.831967987040712842e-02
4.302669688332196873e-01 6.345013068114013777e-02
4.313075177298850704e-01 9.255390202403290800e-02
4.323480666265504535e-01 3.668909121198424828e-01
4.333886155232158366e-01 2.858732426693038065e-01
4.344291644198812197e-01 3.385314713503220219e-01
