# q (1/Angstrom), Intensity (arb)
2.029070354705860696e-02 2.513683989681675826e+02
2.133125244372399004e-02 2.179300359393261886e+02
2.237180134038937659e-02 1.909473192376853490e+02
2.341235023705475968e-02 1.734276774461894490e+02
2.445289913372014276e-02 1.581478535596429822e+02
2.549344803038552584e-02 1.432237326836421119e+02
2.653399692705091240e-02 1.342242020085511172e+02
2.757454582371629548e-02 1.242601559611375848e+02
2.861509472038167856e-02 1.155097239173724546e+02
2.965564361704706164e-02 1.065045316400058653e+02
3.069619251371244473e-02 1.025593190354101267e+02
3.173674141037782781e-02 9.906063025204801420e+01
3.277729030704321089e-02 9.697338382105975541e+01
3.381783920370859398e-02 9.547013830151252023e+01
3.485838810037397706e-02 9.139269254107365725e+01
3.589893699703936014e-02 9.122119377598971823e+01
3.693948589370474322e-02 9.000150907494823116e+01
3.798003479037012631e-02 8.770811833702559568e+01
3.902058368703550939e-02 8.778431468231849522e+01
4.006113258370089247e-02 8.926277913224596716e+01
4.110168148036627556e-02 8.973282191077498737e+01
4.214223037703165864e-02 9.206556554251298508e+01
4.318277927369704866e-02 9.576976793064639537e+01
4.422332817036243174e-02 9.853630553207398179e+01
4.526387706702781483e-02 1.027266005985399886e+02
4.630442596369319791e-02 1.101641281500462242e+02
4.734497486035858099e-02 1.193015933982283769e+02
4.838552375702396408e-02 1.305199704567183971e+02
4.942607265368934716e-02 1.445355894915988983e+02
5.046662155035473024e-02 1.649659599538581460e+02
5.150717044702011332e-02 1.958455356121121724e+02
5.254771934368549641e-02 2.464220072341218213e+02
5.358826824035087949e-02 3.312368411937337100e+02
5.462881713701626257e-02 4.662768572355044512e+02
5.566936603368164566e-02 6.570954985688219949e+02
5.670991493034702874e-02 9.051535021526015043e+02
5.775046382701241182e-02 1.136745098160256475e+03
5.879101272367779490e-02 1.238774751498939168e+03
5.983156162034317799e-02 1.190895170539587753e+03
6.087211051700856107e-02 1.051513979842637127e+03
6.191265941367394415e-02 8.841184487635763389e+02
6.295320831033933417e-02 7.206285236714876419e+02
6.399375720700471726e-02 5.759882382716403981e+02
6.503430610367010034e-02 4.608646896410093063e+02
6.607485500033548342e-02 3.687700693317553942e+02
6.711540389700086651e-02 2.939229811864127555e+02
6.815595279366624959e-02 2.317980352777782400e+02
6.919650169033163267e-02 1.795455098372285647e+02
7.023705058699701576e-02 1.373319152908138108e+02
7.127759948366239884e-02 1.025666312032141150e+02
7.231814838032778192e-02 7.775420719132752367e+01
7.335869727699316500e-02 5.916563560076733808e+01
7.439924617365854809e-02 4.574819676017030901e+01
7.543979507032393117e-02 3.452690349320926089e+01
7.648034396698931425e-02 2.672009761282647133e+01
7.752089286365469734e-02 2.280227166840592190e+01
7.856144176032008042e-02 1.945829505096934042e+01
7.960199065698546350e-02 1.674705238598100010e+01
8.064253955365084658e-02 1.482752996206974672e+01
8.168308845031622967e-02 1.346015277638805685e+01
8.272363734698161275e-02 1.231747008220919071e+01
8.376418624364699583e-02 1.307473140566806080e+01
8.480473514031239279e-02 1.272505504043326141e+01
8.584528403697777588e-02 1.294687083915017212e+01
8.688583293364315896e-02 1.417272284060040022e+01
8.792638183030854204e-02 1.514488540117684323e+01
8.896693072697392513e-02 1.618964702070346817e+01
9.000747962363930821e-02 1.904332066086040953e+01
9.104802852030469129e-02 2.356452752956487018e+01
9.208857741697007437e-02 3.038116311016970172e+01
9.312912631363545746e-02 4.023167396638709903e+01
9.416967521030084054e-02 5.019234076198700478e+01
9.521022410696622362e-02 5.717601125919571814e+01
9.625077300363160671e-02 5.972483513802193755e+01
9.729132190029698979e-02 6.037702772148164598e+01
9.833187079696237287e-02 5.941309019180788198e+01
9.937241969362775595e-02 5.622809227073865657e+01
1.004129685902931390e-01 5.294707444793198192e+01
1.014535174869585221e-01 4.948054887867192519e+01
1.024940663836239052e-01 4.763078404012107825e+01
1.035346152802892883e-01 4.572510471042920699e+01
1.045751641769546714e-01 4.311598858847255400e+01
1.056157130736200545e-01 4.176168712457531029e+01
1.066562619702854375e-01 4.346433370270693786e+01
1.076968108669508206e-01 4.663249177922285327e+01
1.087373597636162037e-01 5.136402550393207633e+01
1.097779086602815868e-01 5.711448512814850176e+01
1.108184575569469699e-01 6.134275414483364841e+01
1.118590064536123529e-01 6.217814366922777936e+01
1.128995553502777360e-01 6.035131383929930138e+01
1.139401042469431191e-01 5.771382924539722836e+01
1.149806531436085022e-01 5.462446483871919156e+01
1.160212020402738853e-01 4.993667234145615197e+01
1.170617509369392684e-01 4.500086904507660535e+01
1.181022998336046514e-01 3.950946143185327486e+01
1.191428487302700345e-01 3.427729808472606976e+01
1.201833976269354176e-01 2.957203232325394993e+01
1.212239465236008007e-01 2.574703101683509487e+01
1.222644954202661838e-01 2.173412890048142998e+01
1.233050443169315669e-01 1.866870434340837193e+01
1.243455932135969499e-01 1.603242220890667369e+01
1.253861421102623330e-01 1.316797548842898635e+01
1.264266910069277161e-01 1.121547354978878985e+01
1.274672399035930992e-01 9.181937978735504657e+00
1.285077888002584823e-01 7.755696989555531218e+00
1.295483376969238654e-01 7.108990879800835216e+00
1.305888865935892484e-01 6.194675472040977127e+00
1.316294354902546315e-01 5.310065209788817242e+00
1.326699843869200146e-01 5.346017052676124592e+00
1.337105332835853977e-01 4.877913339334547516e+00
1.347510821802507808e-01 4.232013105602213443e+00
1.357916310769161639e-01 4.143058590186242895e+00
1.368321799735815469e-01 3.915786270911937095e+00
1.378727288702469300e-01 4.162025826462105726e+00
1.389132777669123131e-01 4.211644454196772358e+00
1.399538266635776962e-01 4.591434746898009678e+00
1.409943755602430793e-01 4.506009077154416786e+00
1.420349244569084624e-01 4.620569399330932470e+00
1.430754733535738454e-01 5.009112410359499279e+00
1.441160222502392285e-01 6.867998279447824928e+00
1.451565711469046116e-01 8.008312245097577886e+00
1.461971200435699947e-01 8.894493981383419623e+00
1.472376689402353778e-01 1.017004456873004870e+01
1.482782178369007609e-01 1.136598843777610313e+01
1.493187667335661439e-01 1.178158771740929467e+01
1.503593156302315270e-01 1.214321906119573669e+01
1.513998645268969101e-01 1.199852722180248321e+01
1.524404134235622932e-01 1.126494370094577135e+01
1.534809623202276763e-01 1.027364133989210870e+01
1.545215112168930593e-01 1.037384081802887437e+01
1.555620601135584424e-01 1.004033872561901575e+01
1.566026090102238255e-01 9.232421219485374309e+00
1.576431579068892086e-01 8.530751510561586315e+00
1.586837068035545917e-01 8.017356418883103686e+00
1.597242557002199748e-01 8.125470495433667395e+00
1.607648045968853578e-01 7.789008158886915112e+00
1.618053534935507409e-01 7.463316066288541606e+00
1.628459023902161240e-01 7.403355973939270029e+00
1.638864512868815071e-01 7.323559530612541835e+00
1.649270001835468902e-01 7.150212026480005534e+00
1.659675490802122733e-01 6.931489789336716001e+00
1.670080979768776563e-01 6.580794575061233331e+00
1.680486468735430672e-01 6.134071586844960677e+00
1.690891957702084503e-01 5.627280664838295365e+00
1.701297446668738333e-01 5.369315571376702678e+00
1.711702935635392164e-01 5.434248439258681174e+00
1.722108424602045995e-01 5.637932061117879812e+00
1.732513913568699826e-01 5.328213519659925623e+00
1.742919402535353657e-01 5.129192861859330321e+00
1.753324891502007488e-01 4.320333782088397356e+00
1.763730380468661318e-01 4.221071926979703903e+00
1.774135869435315149e-01 3.967205231895448492e+00
1.784541358401968980e-01 3.719387581882301674e+00
1.794946847368622811e-01 3.630856078224944383e+00
1.805352336335276642e-01 3.323409326905185424e+00
1.815757825301930473e-01 2.877765977635192485e+00
1.826163314268584303e-01 2.569728696751603536e+00
1.836568803235238134e-01 2.581479761677329066e+00
1.846974292201891965e-01 2.566308382705962288e+00
1.857379781168545796e-01 2.208306393188138372e+00
1.867785270135199627e-01 2.162045049104584393e+00
1.878190759101853458e-01 2.035953202463765876e+00
1.888596248068507288e-01 2.086177464589631825e+00
1.899001737035161119e-01 2.100286726118632430e+00
1.909407226001814950e-01 2.132357040225564049e+00
1.919812714968468781e-01 2.129627769618533506e+00
1.930218203935122612e-01 2.007500331078979627e+00
1.940623692901776443e-01 1.805887494762835388e+00
1.951029181868430273e-01 2.042634424925260817e+00
1.961434670835084104e-01 2.089088097697420210e+00
1.971840159801737935e-01 2.139454942090985412e+00
1.982245648768391766e-01 2.674979453808006724e+00
1.992651137735045597e-01 2.781682794686982874e+00
2.003056626701699428e-01 2.642939875483563128e+00
2.013462115668353813e-01 2.541789170639688678e+00
2.023867604635007644e-01 2.400613561255255490e+00
2.034273093601661475e-01 2.376212714543136428e+00
2.044678582568315306e-01 2.455838652574033887e+00
2.055084071534969137e-01 2.296200668830213232e+00
2.065489560501622968e-01 2.306710192469516585e+00
2.075895049468276798e-01 2.292400202411542409e+00
2.086300538434930629e-01 2.385558877038736370e+00
2.096706027401584460e-01 2.346012019241175750e+00
2.107111516368238291e-01 2.698785321668552228e+00
2.117517005334892122e-01 2.717115123384182596e+00
2.127922494301545953e-01 2.531603527470913662e+00
2.138327983268199783e-01 2.503527353737574401e+00
2.148733472234853614e-01 2.199227182845735484e+00
2.159138961201507445e-01 1.918629445125489497e+00
2.169544450168161276e-01 2.092827175484970326e+00
2.179949939134815107e-01 2.433719543533488405e+00
2.190355428101468938e-01 1.994632893114996364e+00
2.200760917068122768e-01 2.028421529198169537e+00
2.211166406034776599e-01 2.138233209751749797e+00
2.221571895001430430e-01 2.090441344917316258e+00
2.231977383968084261e-01 1.958618732481891556e+00
2.242382872934738092e-01 2.029205950344511677e+00
2.252788361901391923e-01 1.953619286048166259e+00
2.263193850868045753e-01 1.759656222162146122e+00
2.273599339834699584e-01 1.601754840569022065e+00
2.284004828801353415e-01 1.539530673539061922e+00
2.294410317768007246e-01 1.867566438013696484e+00
2.304815806734661077e-01 1.442808296051897088e+00
2.315221295701314908e-01 1.558227814068104067e+00
2.325626784667968738e-01 1.317221141352366232e+00
2.336032273634622569e-01 1.325828052101392984e+00
2.346437762601276400e-01 1.525388033281306122e+00
2.356843251567930231e-01 1.667225992513138522e+00
2.367248740534584062e-01 1.417710673149279899e+00
2.377654229501237892e-01 9.968501201948107848e-01
2.388059718467891723e-01 8.828055941481736113e-01
2.398465207434545554e-01 9.169032044329057385e-01
2.408870696401199385e-01 8.029225549946445994e-01
2.419276185367853216e-01 7.383659029474110014e-01
2.429681674334507047e-01 1.068810846640005252e+00
2.440087163301160877e-01 1.174210366266652983e+00
2.450492652267814708e-01 1.015675976711538198e+00
2.460898141234468539e-01 1.029173039304911441e+00
2.471303630201122370e-01 8.879016409912843244e-01
2.481709119167776201e-01 7.342563288820009859e-01
2.492114608134430032e-01 6.380835546311836026e-01
2.502520097101083585e-01 1.082036583703963828e+00
2.512925586067737416e-01 1.051104589815690105e+00
2.523331075034391247e-01 1.166372325094489071e+00
2.533736564001045077e-01 9.951430679797361734e-01
2.544142052967698908e-01 7.230450735077234015e-01
2.554547541934352739e-01 1.156475879475934221e+00
2.564953030901006570e-01 9.291124047633054772e-01
2.575358519867660401e-01 6.730606789356947672e-01
2.585764008834314231e-01 8.933371494056530082e-01
2.596169497800968062e-01 1.027844875063866681e+00
2.606574986767621893e-01 9.975050045633935270e-01
2.616980475734275724e-01 8.643711852473749957e-01
2.627385964700929555e-01 7.356312794183317294e-01
2.637791453667583386e-01 8.461008948818289355e-01
2.648196942634237216e-01 1.110266255522340373e+00
2.658602431600891047e-01 9.468869860653903459e-01
2.669007920567544878e-01 1.047009332867066433e+00
2.679413409534198709e-01 7.842002581464448951e-01
2.689818898500852540e-01 6.915125404619999472e-01
2.700224387467506371e-01 5.602900311560006230e-01
2.710629876434160201e-01 6.810339363393431711e-01
2.721035365400814032e-01 1.032736198368127134e+00
2.731440854367467863e-01 1.015443194089080237e+00
2.741846343334121694e-01 1.032161717802392076e+00
2.752251832300775525e-01 1.126070760727607478e+00
2.762657321267429356e-01 9.799636799935562692e-01
2.773062810234083186e-01 6.794792695053288867e-01
2.783468299200737017e-01 6.734532706728231233e-01
2.793873788167390848e-01 7.023451059308030153e-01
2.804279277134044679e-01 4.628655345325505266e-01
2.814684766100698510e-01 4.644645577478563325e-01
2.825090255067352341e-01 7.003618352882874376e-01
2.835495744034006171e-01 5.508693795209680388e-01
2.845901233000660002e-01 4.789909103705198845e-01
2.856306721967313833e-01 4.970693626619571148e-01
2.866712210933967664e-01 5.100909438403462559e-01
2.877117699900621495e-01 5.230391046172400138e-01
2.887523188867275326e-01 7.616175782826175578e-01
2.897928677833929156e-01 6.521021613483242163e-01
2.908334166800582987e-01 6.088703305400073873e-01
2.918739655767236818e-01 5.860412866794426634e-01
2.929145144733890649e-01 4.451473179945750758e-01
2.939550633700544480e-01 1.516894836221851506e-01
2.949956122667198311e-01 3.261391879291117846e-01
2.960361611633852141e-01 2.766987375113387770e-01
2.970767100600505972e-01 4.512805768310244048e-01
2.981172589567159803e-01 7.284738016454817000e-01
2.991578078533813634e-01 6.755200100559122234e-01
3.001983567500468020e-01 6.096205180079437014e-01
3.012389056467121851e-01 5.716080018379336991e-01
3.022794545433775681e-01 6.113344489018821548e-01
3.033200034400429512e-01 3.905074679645288427e-01
3.043605523367083343e-01 5.241844898881957704e-01
3.054011012333737174e-01 6.209604739318272948e-01
3.064416501300391005e-01 7.679635148059666960e-01
3.074821990267044836e-01 6.295766844745713797e-01
3.085227479233698666e-01 2.840112408368149488e-01
3.095632968200352497e-01 1.305919756714502000e-01
3.106038457167006328e-01 3.675630603719994838e-01
3.116443946133660159e-01 4.751532331728078873e-01
3.126849435100313990e-01 4.914230563482533398e-01
3.137254924066967821e-01 5.184828921672028912e-01
3.147660413033621651e-01 5.297376697254527755e-01
3.158065902000275482e-01 4.197021230890527477e-01
3.168471390966929313e-01 6.257453002527242347e-01
3.178876879933583144e-01 5.144470807546852598e-01
3.189282368900236975e-01 3.089474458950149938e-01
3.199687857866890806e-01 3.940706182339930308e-01
3.210093346833544636e-01 7.347577250959922424e-01
3.220498835800198467e-01 6.384141221865498039e-01
3.230904324766852298e-01 5.180608217096001056e-01
3.241309813733506129e-01 4.370980166889921747e-01
3.251715302700159960e-01 2.531053215645471255e-01
3.262120791666813790e-01 3.309909907325767620e-01
3.272526280633467621e-01 2.831653357680323779e-01
3.282931769600121452e-01 2.811608929545954538e-01
3.293337258566775283e-01 1.597844313663294713e-01
3.303742747533429114e-01 1.369839767855012269e-01
3.314148236500082945e-01 4.805852483943731102e-01
3.324553725466736775e-01 4.305486600542529629e-01
3.334959214433390606e-01 5.707642393564533734e-01
3.345364703400044437e-01 4.690372830357389944e-01
3.355770192366698268e-01 2.341950490970177157e-01
3.366175681333352099e-01 2.013636113965198149e-01
3.376581170300005930e-01 3.811784986252817475e-01
3.386986659266659760e-01 3.419127054609596428e-01
3.397392148233313591e-01 3.202346370655924090e-01
3.407797637199967422e-01 6.930196942049207109e-01
3.418203126166621253e-01 7.136705260793974048e-01
3.428608615133275084e-01 4.447811594664976553e-01
3.439014104099928915e-01 3.885255936926057529e-01
3.449419593066582745e-01 3.298818450593685725e-01
3.459825082033236576e-01 4.463153316418555505e-03
3.470230570999890407e-01 2.791295717404196353e-01
3.480636059966544238e-01 2.344967095174830263e-01
3.491041548933198069e-01 2.582051248691641376e-01
3.501447037899851900e-01 3.323467278352367771e-01
3.511852526866505730e-01 1.994553198705091290e-01
3.522258015833159561e-01 4.869578432887742281e-01
3.532663504799813392e-01 4.286047879306842390e-01
3.543068993766467223e-01 2.236624419937456310e-01
3.553474482733121054e-01 3.245244452922797507e-01
3.563879971699774885e-01 2.966130174676102627e-01
3.574285460666428715e-01 3.421080353385015371e-01
3.584690949633082546e-01 2.667755222802377091e-01
3.595096438599736377e-01 2.415379530931538454e-01
3.605501927566390208e-01 3.315882486709682553e-01
3.615907416533044039e-01 1.276813676977113232e-01
3.626312905499697870e-01 2.090745758776293428e-01
3.636718394466351700e-01 2.646694210321776097e-01
3.647123883433005531e-01 2.611229449255176860e-01
3.657529372399659362e-01 2.227716784382103299e-01
3.667934861366313193e-01 2.223128069709794374e-01
3.678340350332967024e-01 2.395292746380874860e-01
3.688745839299620854e-01 2.243972606412683035e-01
3.699151328266274685e-01 2.586583312804009438e-01
3.709556817232928516e-01 1.825559327735994941e-01
3.719962306199582347e-01 1.044049059508189714e-01
3.730367795166236178e-01 1.475051661782202927e-01
3.740773284132890009e-01 2.380269946781936596e-01
3.751178773099543839e-01 1.437826669474837615e-01
3.761584262066197670e-01 1.468017122208458147e-01
3.771989751032851501e-01 2.703252305776580044e-01
3.782395239999505332e-01 1.065546048557344250e-01
3.792800728966159163e-01 2.088137053814840272e-01
3.803206217932812994e-01 2.921850735967694845e-01
3.813611706899466824e-01 3.941452411770676179e-01
3.824017195866120655e-01 3.038195404800205779e-01
3.834422684832774486e-01 3.971907516851373998e-01
3.844828173799428317e-01 3.905404969088159817e-01
3.855233662766082148e-01 2.788438998223732312e-01
3.865639151732735979e-01 3.527761534238607055e-01
3.876044640699389809e-01 4.434128472683589450e-01
3.886450129666043640e-01 4.061706068495780642e-01
3.896855618632697471e-01 3.902623079068270329e-01
3.907261107599351302e-01 3.330706952598134762e-01
3.917666596566005133e-01 2.205607291057312125e-01
3.928072085532658964e-01 2.315302293393770583e-01
3.938477574499312794e-01 1.013974108838091581e-01
3.948883063465966625e-01 1.766902686289562041e-01
3.959288552432620456e-01 3.334616713499727325e-01
3.969694041399274287e-01 2.275883684188499956e-01
3.980099530365928118e-01 1.967142779830552968e-01
3.990505019332581949e-01 1.015757076921879332e-01
4.000910508299235779e-01 1.666948223227180392e-01
4.011315997265889610e-01 4.550853354547186314e-01
4.021721486232543441e-01 2.682423469684813711e-01
4.032126975199197272e-01 0.000000000000000000e+00
4.042532464165851103e-01 2.707445579826988080e-01
4.052937953132504934e-01 3.633188859339746557e-01
4.063343442099158764e-01 3.839577625304109176e-01
4.073748931065812595e-01 2.014484426129072858e-01
4.084154420032466426e-01 2.105049575644315496e-01
4.094559908999120257e-01 2.816772150477966363e-01
4.104965397965774088e-01 3.448015790204266295e-01
4.115370886932427918e-01 3.571876542267027332e-01
4.125776375899081749e-01 3.330626242346177435e-01
4.136181864865735580e-01 1.098996707753983060e-01
4.146587353832389411e-01 1.442090119040209117e-01
4.156992842799043242e-01 1.386930447924115128e-01
4.167398331765697073e-01 2.113650452853619299e-01
4.177803820732350903e-01 3.536673923902888816e-01
4.188209309699004734e-01 1.009906991780411545e-01
4.198614798665658565e-01 2.127800302355957740e-01
4.209020287632312396e-01 2.562066248347534270e-01
4.219425776598966227e-01 1.962353218595893622e-01
4.229831265565620058e-01 2.222255016036847053e-01
4.240236754532273888e-01 1.865608302168517696e-01
4.250642243498927719e-01 2.487775137485925825e-01
4.261047732465581550e-01 2.372211045269416729e-01
4.271453221432235381e-01 1.925283584098735901e-01
4.281858710398889212e-01 3.260728508001164982e-02
4.292264199365543043e-01 1.167608862381541712e-01
4.302669688332196873e-01 4.064894753375654091e-01
4.313075177298850704e-01 4.276296095853062695e-01
4.323480666265504535e-01 3.312353215979371157e-01
4.333886155232158366e-01 1.275330959164691080e-01
4.344291644198812197e-01 1.634778218986099318e-01
