# q (1/Angstrom), Intensity (arb)
2.029070354705860696e-02 2.502688496370332132e+02
2.133125244372399004e-02 2.174288257166981282e+02
2.237180134038937659e-02 1.899874009808382880e+02
2.341235023705475968e-02 1.715097195064268476e+02
2.445289913372014276e-02 1.570874623446035514e+02
2.549344803038552584e-02 1.433867222828061188e+02
2.653399692705091240e-02 1.308760319594054522e+02
2.757454582371629548e-02 1.198404842206116001e+02
2.861509472038167856e-02 1.122608901666287693e+02
2.965564361704706164e-02 1.072057488845985631e+02
3.069619251371244473e-02 1.021454857078506961e+02
3.173674141037782781e-02 9.843924630422837652e+01
3.277729030704321089e-02 9.650151829431563044e+01
3.381783920370859398e-02 9.391177631991844521e+01
3.485838810037397706e-02 9.050617392012594564e+01
3.589893699703936014e-02 8.694263840527833054e+01
3.693948589370474322e-02 8.639310468108102725e+01
3.798003479037012631e-02 8.804211012285783511e+01
3.902058368703550939e-02 8.809870061770152461e+01
4.006113258370089247e-02 8.935052527958885094e+01
4.110168148036627556e-02 8.908478707345837222e+01
4.214223037703165864e-02 9.134643357560256050e+01
4.318277927369704866e-02 9.465642822293243341e+01
4.422332817036243174e-02 9.696745704445834235e+01
4.526387706702781483e-02 1.026404590493172861e+02
4.630442596369319791e-02 1.093026677304823409e+02
4.734497486035858099e-02 1.166808139882538171e+02
4.838552375702396408e-02 1.291801052334591589e+02
4.942607265368934716e-02 1.446977273111840248e+02
5.046662155035473024e-02 1.630832173524149766e+02
5.150717044702011332e-02 1.949203580440528185e+02
5.254771934368549641e-02 2.433129850091775666e+02
5.358826824035087949e-02 3.259814293593337879e+02
5.462881713701626257e-02 4.594531936634798512e+02
5.566936603368164566e-02 6.476174479890376006e+02
5.670991493034702874e-02 8.939068596406613096e+02
5.775046382701241182e-02 1.130577413679545771e+03
5.879101272367779490e-02 1.237631305351476840e+03
5.983156162034317799e-02 1.190476398016574649e+03
6.087211051700856107e-02 1.053341381756793908e+03
6.191265941367394415e-02 8.849265513769960307e+02
6.295320831033933417e-02 7.201798337188175765e+02
6.399375720700471726e-02 5.771923913435492750e+02
6.503430610367010034e-02 4.611045484041035820e+02
6.607485500033548342e-02 3.690218866506329505e+02
6.711540389700086651e-02 2.946840090059127988e+02
6.815595279366624959e-02 2.329981238470393237e+02
6.919650169033163267e-02 1.811847439247372620e+02
7.023705058699701576e-02 1.381505967613758514e+02
7.127759948366239884e-02 1.042074041913585916e+02
7.231814838032778192e-02 7.778733257767476061e+01
7.335869727699316500e-02 5.877175365387242323e+01
7.439924617365854809e-02 4.516835479590461944e+01
7.543979507032393117e-02 3.533587961373168440e+01
7.648034396698931425e-02 2.819575891796113609e+01
7.752089286365469734e-02 2.366076403719323906e+01
7.856144176032008042e-02 2.033456434464865481e+01
7.960199065698546350e-02 1.708844011300164567e+01
8.064253955365084658e-02 1.518258004391184102e+01
8.168308845031622967e-02 1.392938876177171892e+01
8.272363734698161275e-02 1.331026239503656683e+01
8.376418624364699583e-02 1.334237110925185732e+01
8.480473514031239279e-02 1.260756931757565269e+01
8.584528403697777588e-02 1.299506547759489195e+01
8.688583293364315896e-02 1.325490935887258104e+01
8.792638183030854204e-02 1.458686427121177331e+01
8.896693072697392513e-02 1.639815129857196041e+01
9.000747962363930821e-02 1.912106020805442341e+01
9.104802852030469129e-02 2.311918737187593109e+01
9.208857741697007437e-02 3.028382114401250647e+01
9.312912631363545746e-02 3.874901410824634951e+01
9.416967521030084054e-02 4.867615747558252792e+01
9.521022410696622362e-02 5.614876651229362636e+01
9.625077300363160671e-02 5.893152715852063750e+01
9.729132190029698979e-02 6.004038082716306235e+01
9.833187079696237287e-02 5.887801223213415369e+01
9.937241969362775595e-02 5.625534316341935437e+01
1.004129685902931390e-01 5.311308220510674261e+01
1.014535174869585221e-01 5.014093413969886370e+01
1.024940663836239052e-01 4.731275005224395613e+01
1.035346152802892883e-01 4.512573815612284278e+01
1.045751641769546714e-01 4.344661799568247318e+01
1.056157130736200545e-01 4.291494486987604517e+01
1.066562619702854375e-01 4.398196571849985048e+01
1.076968108669508206e-01 4.593888793516291713e+01
1.087373597636162037e-01 5.038165254270821691e+01
1.097779086602815868e-01 5.631967085728091149e+01
1.108184575569469699e-01 6.031095293262263368e+01
1.118590064536123529e-01 6.077783937938840353e+01
1.128995553502777360e-01 5.901272892402065651e+01
1.139401042469431191e-01 5.754793571392513485e+01
1.149806531436085022e-01 5.477295760673275282e+01
1.160212020402738853e-01 5.053666172318641259e+01
1.170617509369392684e-01 4.553226728092131737e+01
1.181022998336046514e-01 4.029980201365297887e+01
1.191428487302700345e-01 3.482465275626258006e+01
1.201833976269354176e-01 3.070556480811520572e+01
1.212239465236008007e-01 2.638188553385987944e+01
1.222644954202661838e-01 2.271773269174187249e+01
1.233050443169315669e-01 1.887818101879990706e+01
1.243455932135969499e-01 1.539076080532602475e+01
1.253861421102623330e-01 1.292473363698836408e+01
1.264266910069277161e-01 1.039620653017367147e+01
1.274672399035930992e-01 9.012708300923428340e+00
1.285077888002584823e-01 7.907377707504835485e+00
1.295483376969238654e-01 6.933953398172526761e+00
1.305888865935892484e-01 6.254928447435261774e+00
1.316294354902546315e-01 5.341459928749671349e+00
1.326699843869200146e-01 4.901806646751602159e+00
1.337105332835853977e-01 4.276588872020234078e+00
1.347510821802507808e-01 4.258402549424964434e+00
1.357916310769161639e-01 4.282332078728735780e+00
1.368321799735815469e-01 3.960645318045230567e+00
1.378727288702469300e-01 3.668571199681039730e+00
1.389132777669123131e-01 3.315923526133936150e+00
1.399538266635776962e-01 3.547665301754101108e+00
1.409943755602430793e-01 4.093962081706031597e+00
1.420349244569084624e-01 4.732432587734109575e+00
1.430754733535738454e-01 5.765986588480998876e+00
1.441160222502392285e-01 6.652957719024087169e+00
1.451565711469046116e-01 7.957256492947799131e+00
1.461971200435699947e-01 9.357112192380334648e+00
1.472376689402353778e-01 1.038635955658406118e+01
1.482782178369007609e-01 1.167599560253448487e+01
1.493187667335661439e-01 1.170365845989225306e+01
1.503593156302315270e-01 1.158538654681286317e+01
1.513998645268969101e-01 1.154939185958319570e+01
1.524404134235622932e-01 1.100393907240707136e+01
1.534809623202276763e-01 1.054766254720031071e+01
1.545215112168930593e-01 1.016618842092811548e+01
1.555620601135584424e-01 9.857265679279379356e+00
1.566026090102238255e-01 9.287217576274720443e+00
1.576431579068892086e-01 8.944631803407823156e+00
1.586837068035545917e-01 8.464235709192848844e+00
1.597242557002199748e-01 8.289055549571294534e+00
1.607648045968853578e-01 7.823328891259954787e+00
1.618053534935507409e-01 7.609240469315722066e+00
1.628459023902161240e-01 7.825395656619171803e+00
1.638864512868815071e-01 7.927136474828856194e+00
1.649270001835468902e-01 7.633322912058908116e+00
1.659675490802122733e-01 6.618567037080389071e+00
1.670080979768776563e-01 6.551070490115741052e+00
1.680486468735430672e-01 6.619609025827806192e+00
1.690891957702084503e-01 6.199591095832005294e+00
1.701297446668738333e-01 5.861104456410060948e+00
1.711702935635392164e-01 5.841152718181845671e+00
1.722108424602045995e-01 5.653808700453588187e+00
1.732513913568699826e-01 5.173637605300960729e+00
1.742919402535353657e-01 4.828751142405721453e+00
1.753324891502007488e-01 4.507646676742446346e+00
1.763730380468661318e-01 4.029439786249938038e+00
1.774135869435315149e-01 3.918836015957928964e+00
1.784541358401968980e-01 3.677617740113909406e+00
1.794946847368622811e-01 3.328697591792110444e+00
1.805352336335276642e-01 3.167741450902305189e+00
1.815757825301930473e-01 3.283839541467287404e+00
1.826163314268584303e-01 3.215112295133405240e+00
1.836568803235238134e-01 2.620762550672353086e+00
1.846974292201891965e-01 2.402512806517080435e+00
1.857379781168545796e-01 2.448615659370940278e+00
1.867785270135199627e-01 1.778245754194244910e+00
1.878190759101853458e-01 1.474920251251930381e+00
1.888596248068507288e-01 1.841791166101849342e+00
1.899001737035161119e-01 1.903889990938850474e+00
1.909407226001814950e-01 1.868191542543421235e+00
1.919812714968468781e-01 1.946847342657306967e+00
1.930218203935122612e-01 1.986953110833344027e+00
1.940623692901776443e-01 2.192287246775208587e+00
1.951029181868430273e-01 2.194977941261750942e+00
1.961434670835084104e-01 2.470614813168264590e+00
1.971840159801737935e-01 2.743418861391322849e+00
1.982245648768391766e-01 2.825540213407091272e+00
1.992651137735045597e-01 2.854349704277939992e+00
2.003056626701699428e-01 3.021743801506019622e+00
2.013462115668353813e-01 2.911729858968460150e+00
2.023867604635007644e-01 2.790908294605806361e+00
2.034273093601661475e-01 2.540315385367058809e+00
2.044678582568315306e-01 2.364944536490668270e+00
2.055084071534969137e-01 2.246438659169079699e+00
2.065489560501622968e-01 2.186340923497471778e+00
2.075895049468276798e-01 2.247507936419246732e+00
2.086300538434930629e-01 2.322430568376432802e+00
2.096706027401584460e-01 2.449507949738137569e+00
2.107111516368238291e-01 2.451195630010481352e+00
2.117517005334892122e-01 2.215335591890724487e+00
2.127922494301545953e-01 2.129769977904821587e+00
2.138327983268199783e-01 2.176329752779803783e+00
2.148733472234853614e-01 2.182071289068829856e+00
2.159138961201507445e-01 1.941209807125172659e+00
2.169544450168161276e-01 1.809816286915548744e+00
2.179949939134815107e-01 1.694581450904287578e+00
2.190355428101468938e-01 1.898785661880133091e+00
2.200760917068122768e-01 2.023560808435203029e+00
2.211166406034776599e-01 2.032884014562654329e+00
2.221571895001430430e-01 2.091593790746841819e+00
2.231977383968084261e-01 1.813897034018573606e+00
2.242382872934738092e-01 1.955446678028142315e+00
2.252788361901391923e-01 1.798470900212819856e+00
2.263193850868045753e-01 1.765974760771033658e+00
2.273599339834699584e-01 1.991640566960708014e+00
2.284004828801353415e-01 1.871114203354434125e+00
2.294410317768007246e-01 1.470948357606935986e+00
2.304815806734661077e-01 1.612613638381237280e+00
2.315221295701314908e-01 1.568657486421567882e+00
2.325626784667968738e-01 1.511491109350870943e+00
2.336032273634622569e-01 1.280695980301320702e+00
2.346437762601276400e-01 1.011237462465025772e+00
2.356843251567930231e-01 1.127955729213091729e+00
2.367248740534584062e-01 1.134419576167982058e+00
2.377654229501237892e-01 1.166036253723621741e+00
2.388059718467891723e-01 9.944063584324958072e-01
2.398465207434545554e-01 1.184016588043366625e+00
2.408870696401199385e-01 1.182625108749579823e+00
2.419276185367853216e-01 1.256420578329837667e+00
2.429681674334507047e-01 1.154408667547770051e+00
2.440087163301160877e-01 9.366904330345739993e-01
2.450492652267814708e-01 8.141577777766002555e-01
2.460898141234468539e-01 1.130403185279007516e+00
2.471303630201122370e-01 1.022746079012616605e+00
2.481709119167776201e-01 1.010570834663521822e+00
2.492114608134430032e-01 1.062346621684714165e+00
2.502520097101083585e-01 9.649019887752032787e-01
2.512925586067737416e-01 8.569490062449141021e-01
2.523331075034391247e-01 1.189622894363658645e+00
2.533736564001045077e-01 1.202631701392959940e+00
2.544142052967698908e-01 8.907969305428089513e-01
2.554547541934352739e-01 9.078346306964384382e-01
2.564953030901006570e-01 1.207478523709472285e+00
2.575358519867660401e-01 1.358198688875802418e+00
2.585764008834314231e-01 1.141290689265762381e+00
2.596169497800968062e-01 1.122512928964081169e+00
2.606574986767621893e-01 1.095530806664307022e+00
2.616980475734275724e-01 9.879426912139059880e-01
2.627385964700929555e-01 1.141911508842778034e+00
2.637791453667583386e-01 1.090267051361959005e+00
2.648196942634237216e-01 9.111226193705554977e-01
2.658602431600891047e-01 6.746517602078583309e-01
2.669007920567544878e-01 6.338733967107401668e-01
2.679413409534198709e-01 7.112838123930167455e-01
2.689818898500852540e-01 6.419126358968014756e-01
2.700224387467506371e-01 8.267488826073652319e-01
2.710629876434160201e-01 7.767024513051623558e-01
2.721035365400814032e-01 7.912672735032906246e-01
2.731440854367467863e-01 6.671779872077294726e-01
2.741846343334121694e-01 4.639711750398625156e-01
2.752251832300775525e-01 6.350520414913845002e-01
2.762657321267429356e-01 5.255696667789599985e-01
2.773062810234083186e-01 3.590684864880095972e-01
2.783468299200737017e-01 6.510333030362289719e-01
2.793873788167390848e-01 4.592379118995282283e-01
2.804279277134044679e-01 4.861306689207331999e-01
2.814684766100698510e-01 9.096745776144885554e-01
2.825090255067352341e-01 9.744465468209320136e-01
2.835495744034006171e-01 7.428323493245798659e-01
2.845901233000660002e-01 7.076131122754460989e-01
2.856306721967313833e-01 6.353323356669058342e-01
2.866712210933967664e-01 4.339483999266349201e-01
2.877117699900621495e-01 3.972001323595932831e-01
2.887523188867275326e-01 5.168689887566166874e-01
2.897928677833929156e-01 5.552692229900735299e-01
2.908334166800582987e-01 5.060082210303207262e-01
2.918739655767236818e-01 4.481672603685531442e-01
2.929145144733890649e-01 4.179377493624940598e-01
2.939550633700544480e-01 5.967017466357056321e-01
2.949956122667198311e-01 7.898120964960035906e-01
2.960361611633852141e-01 6.790231178972341297e-01
2.970767100600505972e-01 4.644882261987000049e-01
2.981172589567159803e-01 5.846065727398510603e-01
2.991578078533813634e-01 5.170560458952913052e-01
3.001983567500468020e-01 3.517669477890024154e-01
3.012389056467121851e-01 3.466127431794454594e-01
3.022794545433775681e-01 4.084786179002755091e-01
3.033200034400429512e-01 3.555506761055724496e-01
3.043605523367083343e-01 3.933076618635560351e-01
3.054011012333737174e-01 3.150446863301930023e-01
3.064416501300391005e-01 4.332076933276205466e-01
3.074821990267044836e-01 4.098635546044313571e-01
3.085227479233698666e-01 4.343341982661783618e-01
3.095632968200352497e-01 5.202898561481248407e-01
3.106038457167006328e-01 5.711932039138147843e-01
3.116443946133660159e-01 6.684537799226717425e-01
3.126849435100313990e-01 5.532287981485666251e-01
3.137254924066967821e-01 5.340448042328240774e-01
3.147660413033621651e-01 7.234286568135992468e-01
3.158065902000275482e-01 4.695266425979198743e-01
3.168471390966929313e-01 5.111518911486960803e-01
3.178876879933583144e-01 7.902859838148579286e-01
3.189282368900236975e-01 9.135897336997835794e-01
3.199687857866890806e-01 7.137191593603198214e-01
3.210093346833544636e-01 6.895712751433471510e-01
3.220498835800198467e-01 5.982810119718813269e-01
3.230904324766852298e-01 3.598892167586420499e-01
3.241309813733506129e-01 5.587359352078564712e-01
3.251715302700159960e-01 4.438500495169535043e-01
3.262120791666813790e-01 4.411321000707317808e-01
3.272526280633467621e-01 3.825558761781451267e-01
3.282931769600121452e-01 4.734714753411282118e-01
3.293337258566775283e-01 5.239452025774262722e-01
3.303742747533429114e-01 3.990162686746394627e-01
3.314148236500082945e-01 3.275762209345849385e-01
3.324553725466736775e-01 5.054688005519203386e-01
3.334959214433390606e-01 8.348846794770601321e-01
3.345364703400044437e-01 5.835609447168224051e-01
3.355770192366698268e-01 3.173771011182715540e-01
3.366175681333352099e-01 4.149971621458625748e-01
3.376581170300005930e-01 4.601435448094761682e-01
3.386986659266659760e-01 4.781446899401942119e-01
3.397392148233313591e-01 3.187934180547422613e-01
3.407797637199967422e-01 3.552986468961947253e-01
3.418203126166621253e-01 4.771135318758403798e-01
3.428608615133275084e-01 4.687895927375684835e-01
3.439014104099928915e-01 3.828843376118626907e-01
3.449419593066582745e-01 3.281738267792171371e-01
3.459825082033236576e-01 1.673519290534670745e-01
3.470230570999890407e-01 3.297346319516876179e-01
3.480636059966544238e-01 3.340775631429764303e-01
3.491041548933198069e-01 1.552669386029954524e-01
3.501447037899851900e-01 2.404583368589854331e-01
3.511852526866505730e-01 9.916133271217830725e-02
3.522258015833159561e-01 2.933148120268569414e-01
3.532663504799813392e-01 3.866071783686528818e-01
3.543068993766467223e-01 4.052231892272573077e-02
3.553474482733121054e-01 1.330018955396106151e-01
3.563879971699774885e-01 4.488802825989743894e-01
3.574285460666428715e-01 3.266905934967176961e-01
3.584690949633082546e-01 2.125201313317539586e-01
3.595096438599736377e-01 2.049386479524635263e-01
3.605501927566390208e-01 3.486311408669919842e-01
3.615907416533044039e-01 3.370973632280680476e-01
3.626312905499697870e-01 7.346670147816780627e-02
3.636718394466351700e-01 1.590432283136493652e-01
3.647123883433005531e-01 0.000000000000000000e+00
3.657529372399659362e-01 1.516044623396552993e-01
3.667934861366313193e-01 2.753322484516367297e-01
3.678340350332967024e-01 2.660638522179645804e-01
3.688745839299620854e-01 2.084902487301398821e-01
3.699151328266274685e-01 3.094379063587773260e-01
3.709556817232928516e-01 1.847692619458101149e-01
3.719962306199582347e-01 3.015871944512618086e-01
3.730367795166236178e-01 4.980955331564445032e-01
3.740773284132890009e-01 4.022137848201907673e-01
3.751178773099543839e-01 2.425493262994535826e-01
3.761584262066197670e-01 4.634369859916418477e-01
3.771989751032851501e-01 4.170078103958303473e-01
3.782395239999505332e-01 3.757181325325049670e-01
3.792800728966159163e-01 2.020076448768008959e-01
3.803206217932812994e-01 2.664136361484032989e-01
3.813611706899466824e-01 7.075089660639477529e-02
3.824017195866120655e-01 1.841092247990481212e-01
3.834422684832774486e-01 3.704146606266398578e-01
3.844828173799428317e-01 4.857548237180431272e-01
3.855233662766082148e-01 3.856489566801641899e-01
3.865639151732735979e-01 2.340325847956741256e-01
3.876044640699389809e-01 3.350134234920361109e-01
3.886450129666043640e-01 2.240551503888887908e-01
3.896855618632697471e-01 2.650226791904053414e-01
3.907261107599351302e-01 3.175937992057349391e-01
3.917666596566005133e-01 3.108789086090766318e-01
3.928072085532658964e-01 4.598603624070456419e-01
3.938477574499312794e-01 3.437439852037051935e-01
3.948883063465966625e-01 3.323721327968236494e-01
3.959288552432620456e-01 3.413434673942994380e-01
3.969694041399274287e-01 3.538546426104396403e-01
3.980099530365928118e-01 2.690085486494240286e-01
3.990505019332581949e-01 2.310566894705559093e-01
4.000910508299235779e-01 2.878872833830143918e-01
4.011315997265889610e-01 4.140460251666304714e-01
4.021721486232543441e-01 3.894992575606863738e-01
4.032126975199197272e-01 3.174271187448098885e-01
4.042532464165851103e-01 2.524589751701569185e-01
4.052937953132504934e-01 4.326367854801098645e-01
4.063343442099158764e-01 3.095688570866848011e-01
4.073748931065812595e-01 3.207362460456657516e-01
4.084154420032466426e-01 3.312845785715019531e-01
4.094559908999120257e-01 1.759649569769017319e-01
4.104965397965774088e-01 2.281340048953914845e-01
4.115370886932427918e-01 3.857298854494040086e-01
4.125776375899081749e-01 3.652466718789497691e-01
4.136181864865735580e-01 3.982240401049033096e-01
4.146587353832389411e-01 1.466488872656093179e-01
4.156992842799043242e-01 6.203667555248770782e-02
4.167398331765697073e-01 2.156204369961933764e-01
4.177803820732350903e-01 2.330445911525060865e-01
4.188209309699004734e-01 1.894697750162279704e-01
4.198614798665658565e-01 2.405130380479292285e-01
4.209020287632312396e-01 2.284586179273375706e-01
4.219425776598966227e-01 1.648828083750082385e-01
4.229831265565620058e-01 1.498205799069083355e-01
4.240236754532273888e-01 2.828379627016275322e-02
4.250642243498927719e-01 2.856891000535100034e-02
4.261047732465581550e-01 3.704729044719137221e-01
4.271453221432235381e-01 4.345095295954628511e-01
4.281858710398889212e-01 2.397455974554247859e-01
4.292264199365543043e-01 3.282901859925182464e-01
4.302669688332196873e-01 5.447283199000345633e-01
4.313075177298850704e-01 3.646655704849308677e-01
4.323480666265504535e-01 2.771692807880903331e-01
4.333886155232158366e-01 3.614003947175952192e-01
4.344291644198812197e-01 2.263220374137517865e-01
