# q (1/Angstrom), Intensity (arb)
2.029070354705860696e-02 2.265440447341636059e+02
2.133125244372399004e-02 1.952693680886263792e+02
2.237180134038937659e-02 1.699248171977984896e+02
2.341235023705475968e-02 1.517832384257285128e+02
2.445289913372014276e-02 1.381526916219878842e+02
2.549344803038552584e-02 1.277952916954777862e+02
2.653399692705091240e-02 1.188401962784508612e+02
2.757454582371629548e-02 1.099923510718025312e+02
2.861509472038167856e-02 1.027959008658532269e+02
2.965564361704706164e-02 9.485052192158212847e+01
3.069619251371244473e-02 9.054411878164891903e+01
3.173674141037782781e-02 8.711548150898769904e+01
3.277729030704321089e-02 8.291736352916740316e+01
3.381783920370859398e-02 8.036232764251820981e+01
3.485838810037397706e-02 7.909247615329678638e+01
3.589893699703936014e-02 7.685302937212657071e+01
3.693948589370474322e-02 7.558294561571588588e+01
3.798003479037012631e-02 7.482650329574163095e+01
3.902058368703550939e-02 7.561195580832529117e+01
4.006113258370089247e-02 7.557329969363610189e+01
4.110168148036627556e-02 7.586703827059056948e+01
4.214223037703165864e-02 7.737167729800833627e+01
4.318277927369704866e-02 7.863111799325314166e+01
4.422332817036243174e-02 8.144952123105518638e+01
4.526387706702781483e-02 8.389750847864746675e+01
4.630442596369319791e-02 8.837174698493021197e+01
4.734497486035858099e-02 9.363243332063561297e+01
4.838552375702396408e-02 1.003228115490672110e+02
4.942607265368934716e-02 1.100783904982872059e+02
5.046662155035473024e-02 1.233536470474525970e+02
5.150717044702011332e-02 1.403205782376340096e+02
5.254771934368549641e-02 1.637507720356593950e+02
5.358826824035087949e-02 2.020964068197150141e+02
5.462881713701626257e-02 2.657489593999940212e+02
5.566936603368164566e-02 3.688682823918225040e+02
5.670991493034702874e-02 5.178954890855987969e+02
5.775046382701241182e-02 7.172459410534710287e+02
5.879101272367779490e-02 9.418177699343023050e+02
5.983156162034317799e-02 1.088279547103064033e+03
6.087211051700856107e-02 1.095259028891322941e+03
6.191265941367394415e-02 1.008361406675074136e+03
6.295320831033933417e-02 8.733788610671098240e+02
6.399375720700471726e-02 7.265474835573348855e+02
6.503430610367010034e-02 5.938584128123012533e+02
6.607485500033548342e-02 4.810059000016269124e+02
6.711540389700086651e-02 3.900713008874853358e+02
6.815595279366624959e-02 3.147966761917696772e+02
6.919650169033163267e-02 2.514467399714110911e+02
7.023705058699701576e-02 1.996470176186336118e+02
7.127759948366239884e-02 1.551549370723303696e+02
7.231814838032778192e-02 1.203260034231520166e+02
7.335869727699316500e-02 9.193567540183570941e+01
7.439924617365854809e-02 6.928326485746231356e+01
7.543979507032393117e-02 5.203172356845092850e+01
7.648034396698931425e-02 4.029813174579935264e+01
7.752089286365469734e-02 3.132600640379438772e+01
7.856144176032008042e-02 2.497834555677537338e+01
7.960199065698546350e-02 2.104635317360772717e+01
8.064253955365084658e-02 1.784286014054124792e+01
8.168308845031622967e-02 1.550580472054486592e+01
8.272363734698161275e-02 1.406721566943078727e+01
8.376418624364699583e-02 1.288341848478312102e+01
8.480473514031239279e-02 1.205999547269038885e+01
8.584528403697777588e-02 1.115866904835888107e+01
8.688583293364315896e-02 1.118955279061657393e+01
8.792638183030854204e-02 1.174982203332014308e+01
8.896693072697392513e-02 1.208236671148965513e+01
9.000747962363930821e-02 1.227225683761418651e+01
9.104802852030469129e-02 1.365100164789984660e+01
9.208857741697007437e-02 1.597495156194017341e+01
9.312912631363545746e-02 1.970227008102301625e+01
9.416967521030084054e-02 2.445172670903518508e+01
9.521022410696622362e-02 3.116413183571255274e+01
9.625077300363160671e-02 3.913671734518599266e+01
9.729132190029698979e-02 4.612300260646048145e+01
9.833187079696237287e-02 4.919880980384624536e+01
9.937241969362775595e-02 5.056493447776578165e+01
1.004129685902931390e-01 4.975302475631348642e+01
1.014535174869585221e-01 4.798334725533787548e+01
1.024940663836239052e-01 4.625883754132732406e+01
1.035346152802892883e-01 4.397737213183297911e+01
1.045751641769546714e-01 4.154052719624931456e+01
1.056157130736200545e-01 3.911029095106961506e+01
1.066562619702854375e-01 3.769237032509295204e+01
1.076968108669508206e-01 3.718897275941814229e+01
1.087373597636162037e-01 3.693198209553208500e+01
1.097779086602815868e-01 3.831388283497537373e+01
1.108184575569469699e-01 4.183264806892125165e+01
1.118590064536123529e-01 4.639357442964654155e+01
1.128995553502777360e-01 5.119098655999575698e+01
1.139401042469431191e-01 5.434853237868679798e+01
1.149806531436085022e-01 5.412123473506837001e+01
1.160212020402738853e-01 5.300719966218741774e+01
1.170617509369392684e-01 5.108988041521676848e+01
1.181022998336046514e-01 4.807161385533672870e+01
1.191428487302700345e-01 4.477785549152204680e+01
1.201833976269354176e-01 4.023724942868169308e+01
1.212239465236008007e-01 3.504973995423507205e+01
1.222644954202661838e-01 3.088209977444264354e+01
1.233050443169315669e-01 2.683643101270725140e+01
1.243455932135969499e-01 2.354286066859888393e+01
1.253861421102623330e-01 2.033745683583417474e+01
1.264266910069277161e-01 1.706028688480840572e+01
1.274672399035930992e-01 1.440610526407765235e+01
1.285077888002584823e-01 1.282610205831046812e+01
1.295483376969238654e-01 1.101765619282843289e+01
1.305888865935892484e-01 8.854483418517844484e+00
1.316294354902546315e-01 7.868561318740411537e+00
1.326699843869200146e-01 7.044888047949477539e+00
1.337105332835853977e-01 5.864716760082352209e+00
1.347510821802507808e-01 5.217178741271808917e+00
1.357916310769161639e-01 5.248646373276514510e+00
1.368321799735815469e-01 4.572734963141286357e+00
1.378727288702469300e-01 3.808989984474017376e+00
1.389132777669123131e-01 3.538815162612408471e+00
1.399538266635776962e-01 2.910487621600118757e+00
1.409943755602430793e-01 3.492658114845525574e+00
1.420349244569084624e-01 3.813891222997170871e+00
1.430754733535738454e-01 3.796862603750021492e+00
1.441160222502392285e-01 3.710979277845865454e+00
1.451565711469046116e-01 3.827279345560576473e+00
1.461971200435699947e-01 4.256862883767659866e+00
1.472376689402353778e-01 5.102125202618289279e+00
1.482782178369007609e-01 6.200597820940487281e+00
1.493187667335661439e-01 7.961479911340390458e+00
1.503593156302315270e-01 9.339311473868662006e+00
1.513998645268969101e-01 9.614630575044444072e+00
1.524404134235622932e-01 9.833399123395103913e+00
1.534809623202276763e-01 1.036399450865214433e+01
1.545215112168930593e-01 1.012983364158042576e+01
1.555620601135584424e-01 9.476893086209727812e+00
1.566026090102238255e-01 9.065303960267364403e+00
1.576431579068892086e-01 8.487892515260469395e+00
1.586837068035545917e-01 8.537428533270343678e+00
1.597242557002199748e-01 8.243270867357626486e+00
1.607648045968853578e-01 8.142511479845389033e+00
1.618053534935507409e-01 7.712382368451152104e+00
1.628459023902161240e-01 7.003942820458647134e+00
1.638864512868815071e-01 6.954568920687517419e+00
1.649270001835468902e-01 7.088094511636775508e+00
1.659675490802122733e-01 6.969732512964945670e+00
1.670080979768776563e-01 7.033572642677583531e+00
1.680486468735430672e-01 6.562619069163524443e+00
1.690891957702084503e-01 6.356893576681819980e+00
1.701297446668738333e-01 6.185968786967144695e+00
1.711702935635392164e-01 5.955466707988406938e+00
1.722108424602045995e-01 5.754419370759976005e+00
1.732513913568699826e-01 5.496476501141614790e+00
1.742919402535353657e-01 5.646085658681624153e+00
1.753324891502007488e-01 5.501335927975198103e+00
1.763730380468661318e-01 5.040115215859437114e+00
1.774135869435315149e-01 5.117259407950811578e+00
1.784541358401968980e-01 4.581160894670070149e+00
1.794946847368622811e-01 4.198422566709922421e+00
1.805352336335276642e-01 4.014643901939678017e+00
1.815757825301930473e-01 3.737057904000639752e+00
1.826163314268584303e-01 3.097764922510418018e+00
1.836568803235238134e-01 2.962489046745414356e+00
1.846974292201891965e-01 2.545626310517601354e+00
1.857379781168545796e-01 2.494129393176322651e+00
1.867785270135199627e-01 2.433206743650330850e+00
1.878190759101853458e-01 2.710087544598867026e+00
1.888596248068507288e-01 2.417501479684531773e+00
1.899001737035161119e-01 2.338246529308452892e+00
1.909407226001814950e-01 2.143644357020647817e+00
1.919812714968468781e-01 1.781345383720633890e+00
1.930218203935122612e-01 1.646753158335453548e+00
1.940623692901776443e-01 1.772234911274203739e+00
1.951029181868430273e-01 1.727383418834200768e+00
1.961434670835084104e-01 1.765836341740360638e+00
1.971840159801737935e-01 2.050051670470093512e+00
1.982245648768391766e-01 1.936611638482606423e+00
1.992651137735045597e-01 1.852998397570125633e+00
2.003056626701699428e-01 1.908551078342782148e+00
2.013462115668353813e-01 2.180292055021446629e+00
2.023867604635007644e-01 2.509971054373437482e+00
2.034273093601661475e-01 2.309983888552885389e+00
2.044678582568315306e-01 2.012106669128158387e+00
2.055084071534969137e-01 2.395990530159238574e+00
2.065489560501622968e-01 2.556411260772698313e+00
2.075895049468276798e-01 2.445910873737705771e+00
2.086300538434930629e-01 2.011949004100006988e+00
2.096706027401584460e-01 2.149610730435181694e+00
2.107111516368238291e-01 2.191192029779291062e+00
2.117517005334892122e-01 2.178510903435284973e+00
2.127922494301545953e-01 2.126641719755497206e+00
2.138327983268199783e-01 2.311827152243562722e+00
2.148733472234853614e-01 2.227141183463622554e+00
2.159138961201507445e-01 2.127091741461214269e+00
2.169544450168161276e-01 1.911137779154294947e+00
2.179949939134815107e-01 1.897890013775796803e+00
2.190355428101468938e-01 2.050630956374142499e+00
2.200760917068122768e-01 2.104982041969069684e+00
2.211166406034776599e-01 2.298242221851470646e+00
2.221571895001430430e-01 2.141212158045000535e+00
2.231977383968084261e-01 2.241372000033798884e+00
2.242382872934738092e-01 2.091625399961323239e+00
2.252788361901391923e-01 1.950494301193938185e+00
2.263193850868045753e-01 2.062612861850638524e+00
2.273599339834699584e-01 1.867688816056176648e+00
2.284004828801353415e-01 1.643034582696902390e+00
2.294410317768007246e-01 1.471767954902922781e+00
2.304815806734661077e-01 1.282390478172704462e+00
2.315221295701314908e-01 1.287464680462232280e+00
2.325626784667968738e-01 1.544771687950895256e+00
2.336032273634622569e-01 1.725716029175313082e+00
2.346437762601276400e-01 1.527957630263539812e+00
2.356843251567930231e-01 1.208721115389259637e+00
2.367248740534584062e-01 1.151301452549233773e+00
2.377654229501237892e-01 1.365680547648178589e+00
2.388059718467891723e-01 1.257383588460605495e+00
2.398465207434545554e-01 1.114291057158609988e+00
2.408870696401199385e-01 1.076909851538719209e+00
2.419276185367853216e-01 1.286592332320953602e+00
2.429681674334507047e-01 1.205809449240344833e+00
2.440087163301160877e-01 8.357750792369635917e-01
2.450492652267814708e-01 8.290392177229186643e-01
2.460898141234468539e-01 1.138435346966478079e+00
2.471303630201122370e-01 1.071719104987618465e+00
2.481709119167776201e-01 1.022750335154167800e+00
2.492114608134430032e-01 7.599041680802578469e-01
2.502520097101083585e-01 7.735985862097081167e-01
2.512925586067737416e-01 8.820014095414023814e-01
2.523331075034391247e-01 1.135294303040303987e+00
2.533736564001045077e-01 1.178655412666831381e+00
2.544142052967698908e-01 8.692542811564472061e-01
2.554547541934352739e-01 6.904153742492518120e-01
2.564953030901006570e-01 1.027094125448055451e+00
2.575358519867660401e-01 7.297737589816613024e-01
2.585764008834314231e-01 6.153282200272620628e-01
2.596169497800968062e-01 8.591874238886205717e-01
2.606574986767621893e-01 8.288570575766662785e-01
2.616980475734275724e-01 8.659922138569946526e-01
2.627385964700929555e-01 9.634507444845255009e-01
2.637791453667583386e-01 9.585525374704282342e-01
2.648196942634237216e-01 1.076668792175361489e+00
2.658602431600891047e-01 1.128997077975096630e+00
2.669007920567544878e-01 9.537313112786023339e-01
2.679413409534198709e-01 8.072099112008004340e-01
2.689818898500852540e-01 1.095862799726120329e+00
2.700224387467506371e-01 1.078111216430411190e+00
2.710629876434160201e-01 9.949729994826341795e-01
2.721035365400814032e-01 8.056017584565751122e-01
2.731440854367467863e-01 6.453830110954221766e-01
2.741846343334121694e-01 8.257669109978564848e-01
2.752251832300775525e-01 8.558662453556777905e-01
2.762657321267429356e-01 7.089824918583254032e-01
2.773062810234083186e-01 8.856464651977944413e-01
2.783468299200737017e-01 9.179861884268696315e-01
2.793873788167390848e-01 1.001782770883231422e+00
2.804279277134044679e-01 8.113352278583505495e-01
2.814684766100698510e-01 9.942724455948557249e-01
2.825090255067352341e-01 8.306389451029758675e-01
2.835495744034006171e-01 7.470321956457226520e-01
2.845901233000660002e-01 7.204873776007154618e-01
2.856306721967313833e-01 5.920007680132357564e-01
2.866712210933967664e-01 3.560706316820088091e-01
2.877117699900621495e-01 7.756520979285284056e-01
2.887523188867275326e-01 8.783569867503899786e-01
2.897928677833929156e-01 9.031248356606447203e-01
2.908334166800582987e-01 8.428710992986729877e-01
2.918739655767236818e-01 8.525632306378625458e-01
2.929145144733890649e-01 7.755619148329593315e-01
2.939550633700544480e-01 5.182154778178826859e-01
2.949956122667198311e-01 5.677590505660390363e-01
2.960361611633852141e-01 6.383729103143060968e-01
2.970767100600505972e-01 5.332594457394215226e-01
2.981172589567159803e-01 6.667788507831708955e-01
2.991578078533813634e-01 7.127231841697394543e-01
3.001983567500468020e-01 6.037012007100699407e-01
3.012389056467121851e-01 5.563060185246797573e-01
3.022794545433775681e-01 4.418438745563300074e-01
3.033200034400429512e-01 6.977074484825642742e-01
3.043605523367083343e-01 8.001181568095354635e-01
3.054011012333737174e-01 6.919935817027464964e-01
3.064416501300391005e-01 7.231950853725912509e-01
3.074821990267044836e-01 6.148077139001664193e-01
3.085227479233698666e-01 4.559177969585554990e-01
3.095632968200352497e-01 5.745752188061423738e-01
3.106038457167006328e-01 4.698305527690109784e-01
3.116443946133660159e-01 2.520346362021967934e-01
3.126849435100313990e-01 3.443614666664736035e-01
3.137254924066967821e-01 4.580023416021070659e-01
3.147660413033621651e-01 6.134231037629618299e-01
3.158065902000275482e-01 7.378098443187255384e-01
3.168471390966929313e-01 5.944752315170269696e-01
3.178876879933583144e-01 4.846016709137970224e-01
3.189282368900236975e-01 3.649026279204505840e-01
3.199687857866890806e-01 5.341885483858632711e-01
3.210093346833544636e-01 4.010913894417882375e-01
3.220498835800198467e-01 2.238833374853150815e-01
3.230904324766852298e-01 4.076663843564674039e-01
3.241309813733506129e-01 4.433734155008721700e-01
3.251715302700159960e-01 4.480962412407158979e-01
3.262120791666813790e-01 3.806267230031856741e-01
3.272526280633467621e-01 5.426675421090010332e-01
3.282931769600121452e-01 4.941629210029638841e-01
3.293337258566775283e-01 4.823917932573174028e-01
3.303742747533429114e-01 5.219635687498360710e-01
3.314148236500082945e-01 3.658744734603338600e-01
3.324553725466736775e-01 5.436753135318319607e-01
3.334959214433390606e-01 2.655379151806194216e-01
3.345364703400044437e-01 4.338410938039558573e-01
3.355770192366698268e-01 5.324527025711240924e-01
3.366175681333352099e-01 6.007014504292378376e-01
3.376581170300005930e-01 5.530775903409086425e-01
3.386986659266659760e-01 3.841379124678283574e-01
3.397392148233313591e-01 3.898027430428818718e-01
3.407797637199967422e-01 3.682332901896110400e-01
3.418203126166621253e-01 5.009321778843656148e-01
3.428608615133275084e-01 4.455163332629510364e-01
3.439014104099928915e-01 4.762336365635384539e-01
3.449419593066582745e-01 4.308125483758971086e-01
3.459825082033236576e-01 4.393981932744637220e-01
3.470230570999890407e-01 3.544028901550682065e-01
3.480636059966544238e-01 2.900396479056013277e-01
3.491041548933198069e-01 4.551320768931930161e-01
3.501447037899851900e-01 3.109420843800805301e-01
3.511852526866505730e-01 3.484726635955297525e-01
3.522258015833159561e-01 2.775083522071852826e-01
3.532663504799813392e-01 3.511842687121884410e-01
3.543068993766467223e-01 6.050863014889387159e-01
3.553474482733121054e-01 4.064036448059944462e-01
3.563879971699774885e-01 2.750926055994078467e-01
3.574285460666428715e-01 2.358284254715314887e-01
3.584690949633082546e-01 3.229091421763534697e-01
3.595096438599736377e-01 3.594861308902395081e-01
3.605501927566390208e-01 3.281245792072162715e-01
3.615907416533044039e-01 6.112783917204964723e-01
3.626312905499697870e-01 2.782595531579339365e-01
3.636718394466351700e-01 0.000000000000000000e+00
3.647123883433005531e-01 2.320018917902366695e-01
3.657529372399659362e-01 3.315378756831783846e-01
3.667934861366313193e-01 3.569122376532476437e-01
3.678340350332967024e-01 2.251831573300115963e-01
3.688745839299620854e-01 2.776242400268884580e-01
3.699151328266274685e-01 4.041699536417802108e-01
3.709556817232928516e-01 5.393244242615189421e-01
3.719962306199582347e-01 1.502406457328007150e-01
3.730367795166236178e-01 2.750729879895139618e-01
3.740773284132890009e-01 3.864150335492837485e-01
3.751178773099543839e-01 2.812139364158028343e-01
3.761584262066197670e-01 1.976265998107145094e-01
3.771989751032851501e-01 2.357913064228327471e-01
3.782395239999505332e-01 1.219618121890562179e-01
3.792800728966159163e-01 3.237700348693977048e-01
3.803206217932812994e-01 3.405602261370361816e-01
3.813611706899466824e-01 1.714419316527688864e-01
3.824017195866120655e-01 1.121226607527958663e-01
3.834422684832774486e-01 1.054472250342932682e-01
3.844828173799428317e-01 3.782553490514999339e-01
3.855233662766082148e-01 3.064132339271452565e-01
3.865639151732735979e-01 3.253219371072866295e-01
3.876044640699389809e-01 3.122128873081280176e-01
3.886450129666043640e-01 4.167052882178055029e-01
3.896855618632697471e-01 2.385695241617220574e-01
3.907261107599351302e-01 2.360698580485269815e-01
3.917666596566005133e-01 3.054044898917496198e-01
3.928072085532658964e-01 4.209209349919760257e-01
3.938477574499312794e-01 5.774347511751471984e-01
3.948883063465966625e-01 4.486994692959385134e-01
3.959288552432620456e-01 4.658557442898114687e-01
3.969694041399274287e-01 4.345481006962046422e-01
3.980099530365928118e-01 4.512036971842086075e-01
3.990505019332581949e-01 3.454763845583741499e-01
4.000910508299235779e-01 3.159747119274527449e-01
4.011315997265889610e-01 2.753532895981685158e-01
4.021721486232543441e-01 2.134063828323640166e-01
4.032126975199197272e-01 1.734282074081967551e-01
4.042532464165851103e-01 1.687256699150125883e-01
4.052937953132504934e-01 3.880421590612712635e-01
4.063343442099158764e-01 5.171066057813362704e-01
4.073748931065812595e-01 5.027721663465172242e-01
4.084154420032466426e-01 3.577783962978848820e-01
4.094559908999120257e-01 3.174617533497396948e-01
4.104965397965774088e-01 2.823449541713500821e-01
4.115370886932427918e-01 2.414378896989894940e-01
4.125776375899081749e-01 4.775315498008794179e-01
4.136181864865735580e-01 4.720089734694674632e-01
4.146587353832389411e-01 3.779858141315095565e-01
4.156992842799043242e-01 3.056468666699743153e-01
4.167398331765697073e-01 3.194701468546163881e-01
4.177803820732350903e-01 3.981876239000001760e-01
4.188209309699004734e-01 3.717765168069675497e-01
4.198614798665658565e-01 4.791594393174243294e-01
4.209020287632312396e-01 3.915908602208979516e-01
4.219425776598966227e-01 4.111378800471818806e-01
4.229831265565620058e-01 4.237841668597610578e-01
4.240236754532273888e-01 1.890311318734845258e-01
4.250642243498927719e-01 2.945025827981631039e-01
4.261047732465581550e-01 3.007072050390533491e-01
4.271453221432235381e-01 1.757590266123187916e-01
4.281858710398889212e-01 4.579217377483146834e-02
4.292264199365543043e-01 1.243450329485717987e-01
4.302669688332196873e-01 2.486026530540037527e-01
4.313075177298850704e-01 3.836214507569621901e-01
4.323480666265504535e-01 3.007510256594301268e-01
4.333886155232158366e-01 3.815080599354523372e-01
4.344291644198812197e-01 3.525170942257460638e-01
