# q (1/Angstrom), Intensity (arb)
2.029070354705860696e-02 2.461121731100922148e+02
2.133125244372399004e-02 2.135265608516812108e+02
2.237180134038937659e-02 1.884009801251302463e+02
2.341235023705475968e-02 1.697943780656540582e+02
2.445289913372014276e-02 1.556336866937733134e+02
2.549344803038552584e-02 1.428889223678851863e+02
2.653399692705091240e-02 1.315921484662016496e+02
2.757454582371629548e-02 1.200665278579778885e+02
2.861509472038167856e-02 1.125080029862353257e+02
2.965564361704706164e-02 1.064445116368892741e+02
3.069619251371244473e-02 1.020730136073680683e+02
3.173674141037782781e-02 9.905582032337198939e+01
3.277729030704321089e-02 9.349697158701928856e+01
3.381783920370859398e-02 9.154565628031174640e+01
3.485838810037397706e-02 8.967193826791873335e+01
3.589893699703936014e-02 8.844467335013388265e+01
3.693948589370474322e-02 8.809091086245607016e+01
3.798003479037012631e-02 8.790682515465411484e+01
3.902058368703550939e-02 8.723648405487392665e+01
4.006113258370089247e-02 8.805248465399648694e+01
4.110168148036627556e-02 8.902538538829985271e+01
4.214223037703165864e-02 9.018852619227308764e+01
4.318277927369704866e-02 9.256316510972696676e+01
4.422332817036243174e-02 9.636135046443713748e+01
4.526387706702781483e-02 1.009740159840523575e+02
4.630442596369319791e-02 1.085246725871297144e+02
4.734497486035858099e-02 1.172497255080661773e+02
4.838552375702396408e-02 1.265069260120888259e+02
4.942607265368934716e-02 1.396855767841526017e+02
5.046662155035473024e-02 1.602252468073436376e+02
5.150717044702011332e-02 1.905421986097217655e+02
5.254771934368549641e-02 2.366326167977828732e+02
5.358826824035087949e-02 3.169580300519366460e+02
5.462881713701626257e-02 4.443814808925747002e+02
5.566936603368164566e-02 6.253760007542291532e+02
5.670991493034702874e-02 8.692291718922754171e+02
5.775046382701241182e-02 1.113808454741849573e+03
5.879101272367779490e-02 1.238930536369040055e+03
5.983156162034317799e-02 1.206050308764993360e+03
6.087211051700856107e-02 1.081003244134288025e+03
6.191265941367394415e-02 9.127699140729325791e+02
6.295320831033933417e-02 7.458692911845855633e+02
6.399375720700471726e-02 5.989180689378107445e+02
6.503430610367010034e-02 4.783978610053798093e+02
6.607485500033548342e-02 3.839270242116678560e+02
6.711540389700086651e-02 3.072054335608492579e+02
6.815595279366624959e-02 2.426309737870454910e+02
6.919650169033163267e-02 1.886353204590397468e+02
7.023705058699701576e-02 1.454161117457523176e+02
7.127759948366239884e-02 1.102259918728249488e+02
7.231814838032778192e-02 8.312231156893314221e+01
7.335869727699316500e-02 6.240838204668686728e+01
7.439924617365854809e-02 4.803448251931013857e+01
7.543979507032393117e-02 3.757912415193541733e+01
7.648034396698931425e-02 2.964051431775818912e+01
7.752089286365469734e-02 2.382704476688510198e+01
7.856144176032008042e-02 1.971258828755897241e+01
7.960199065698546350e-02 1.690452326840894415e+01
8.064253955365084658e-02 1.553777388912074287e+01
8.168308845031622967e-02 1.431555583101312124e+01
8.272363734698161275e-02 1.359950818438822751e+01
8.376418624364699583e-02 1.303650388541524308e+01
8.480473514031239279e-02 1.291497355520406387e+01
8.584528403697777588e-02 1.299896565937430637e+01
8.688583293364315896e-02 1.369268577111842689e+01
8.792638183030854204e-02 1.464726304672894486e+01
8.896693072697392513e-02 1.656723168912406408e+01
9.000747962363930821e-02 1.901120170800398057e+01
9.104802852030469129e-02 2.195962695178632629e+01
9.208857741697007437e-02 2.779674138011247919e+01
9.312912631363545746e-02 3.636920557238057938e+01
9.416967521030084054e-02 4.637891264433181959e+01
9.521022410696622362e-02 5.461061849648021393e+01
9.625077300363160671e-02 5.758531869965190708e+01
9.729132190029698979e-02 5.879367168837314495e+01
9.833187079696237287e-02 5.876908281176294224e+01
9.937241969362775595e-02 5.590288446220759511e+01
1.004129685902931390e-01 5.355405694446309184e+01
1.014535174869585221e-01 5.063481811647851316e+01
1.024940663836239052e-01 4.728509808557906524e+01
1.035346152802892883e-01 4.500545389944561947e+01
1.045751641769546714e-01 4.323909951169051880e+01
1.056157130736200545e-01 4.243366276593871333e+01
1.066562619702854375e-01 4.308920376259448659e+01
1.076968108669508206e-01 4.555409525836476092e+01
1.087373597636162037e-01 4.941326359576046201e+01
1.097779086602815868e-01 5.587831167975222968e+01
1.108184575569469699e-01 6.140038679740658267e+01
1.118590064536123529e-01 6.258810671345342769e+01
1.128995553502777360e-01 6.107067638505187546e+01
1.139401042469431191e-01 5.861643775541413959e+01
1.149806531436085022e-01 5.569529798541524457e+01
1.160212020402738853e-01 5.195887812239799786e+01
1.170617509369392684e-01 4.673327811218687344e+01
1.181022998336046514e-01 4.079739623169209040e+01
1.191428487302700345e-01 3.588797345989306820e+01
1.201833976269354176e-01 3.151903356958454339e+01
1.212239465236008007e-01 2.707076479020265936e+01
1.222644954202661838e-01 2.385342491068241344e+01
1.233050443169315669e-01 2.002841318605518950e+01
1.243455932135969499e-01 1.687377848054619989e+01
1.253861421102623330e-01 1.362348126293069583e+01
1.264266910069277161e-01 1.173187002880530372e+01
1.274672399035930992e-01 1.002802840828876185e+01
1.285077888002584823e-01 8.311511450426145586e+00
1.295483376969238654e-01 6.543591847993027955e+00
1.305888865935892484e-01 6.090468152302157989e+00
1.316294354902546315e-01 5.869710565778056832e+00
1.326699843869200146e-01 5.171367231975537493e+00
1.337105332835853977e-01 4.528572558139778437e+00
1.347510821802507808e-01 3.964115356940666857e+00
1.357916310769161639e-01 4.001849931361469714e+00
1.368321799735815469e-01 3.824518818579598189e+00
1.378727288702469300e-01 3.816025126136906920e+00
1.389132777669123131e-01 4.354791409853454809e+00
1.399538266635776962e-01 4.253046687596814479e+00
1.409943755602430793e-01 4.404456628891480818e+00
1.420349244569084624e-01 4.901877844730854861e+00
1.430754733535738454e-01 5.780839966706096789e+00
1.441160222502392285e-01 6.629006289746214975e+00
1.451565711469046116e-01 7.538344537166224768e+00
1.461971200435699947e-01 8.925783857015559875e+00
1.472376689402353778e-01 1.058783369068664371e+01
1.482782178369007609e-01 1.134313374049776257e+01
1.493187667335661439e-01 1.180044208987976617e+01
1.503593156302315270e-01 1.180502950002416185e+01
1.513998645268969101e-01 1.180279194031867718e+01
1.524404134235622932e-01 1.146599869300362684e+01
1.534809623202276763e-01 1.060423543001453339e+01
1.545215112168930593e-01 1.010794050763061591e+01
1.555620601135584424e-01 9.833579012711126666e+00
1.566026090102238255e-01 9.586406016639543282e+00
1.576431579068892086e-01 8.857330184343950918e+00
1.586837068035545917e-01 8.265290667270200231e+00
1.597242557002199748e-01 8.143216675409917116e+00
1.607648045968853578e-01 8.021374993712598211e+00
1.618053534935507409e-01 7.623594120961023179e+00
1.628459023902161240e-01 7.923759717803818603e+00
1.638864512868815071e-01 7.676350088545625283e+00
1.649270001835468902e-01 7.538428205445526942e+00
1.659675490802122733e-01 6.884433252989758500e+00
1.670080979768776563e-01 6.660316866289825555e+00
1.680486468735430672e-01 6.678531066842833042e+00
1.690891957702084503e-01 6.085698617882144390e+00
1.701297446668738333e-01 5.485676577857333314e+00
1.711702935635392164e-01 5.529292715534566582e+00
1.722108424602045995e-01 4.867382165509376080e+00
1.732513913568699826e-01 5.465899601500112226e+00
1.742919402535353657e-01 4.911441519943089418e+00
1.753324891502007488e-01 4.178019985153802907e+00
1.763730380468661318e-01 4.181083554786606982e+00
1.774135869435315149e-01 4.241017242576841539e+00
1.784541358401968980e-01 4.136944120407065384e+00
1.794946847368622811e-01 3.687625697430078731e+00
1.805352336335276642e-01 3.356333841486112135e+00
1.815757825301930473e-01 2.852456985287453506e+00
1.826163314268584303e-01 3.077698422315020110e+00
1.836568803235238134e-01 3.048617803806756399e+00
1.846974292201891965e-01 2.725743756287144492e+00
1.857379781168545796e-01 2.449498889973256155e+00
1.867785270135199627e-01 2.167729020492568992e+00
1.878190759101853458e-01 2.137483780593292693e+00
1.888596248068507288e-01 2.100019135921577629e+00
1.899001737035161119e-01 1.916318921056426205e+00
1.909407226001814950e-01 1.862244451907390186e+00
1.919812714968468781e-01 1.725384610749014058e+00
1.930218203935122612e-01 1.760457874611425666e+00
1.940623692901776443e-01 1.967560114751236711e+00
1.951029181868430273e-01 2.067606841708762744e+00
1.961434670835084104e-01 2.377097199087749857e+00
1.971840159801737935e-01 2.490405443233843386e+00
1.982245648768391766e-01 2.567249630309959230e+00
1.992651137735045597e-01 2.648052882954551990e+00
2.003056626701699428e-01 2.602245688712503835e+00
2.013462115668353813e-01 2.576873289627819474e+00
2.023867604635007644e-01 2.673802450588823376e+00
2.034273093601661475e-01 2.536717100146329784e+00
2.044678582568315306e-01 2.547142459719772489e+00
2.055084071534969137e-01 2.535162961609099597e+00
2.065489560501622968e-01 2.367024468886274491e+00
2.075895049468276798e-01 2.217263829449603207e+00
2.086300538434930629e-01 2.255280832474710451e+00
2.096706027401584460e-01 2.040269910953622201e+00
2.107111516368238291e-01 2.266286231306832377e+00
2.117517005334892122e-01 2.377629579667665638e+00
2.127922494301545953e-01 2.646570704239127991e+00
2.138327983268199783e-01 2.533423070066337601e+00
2.148733472234853614e-01 2.310476072853219875e+00
2.159138961201507445e-01 2.298553346822828303e+00
2.169544450168161276e-01 2.322722924494630803e+00
2.179949939134815107e-01 2.340348016339554249e+00
2.190355428101468938e-01 2.131110944559750919e+00
2.200760917068122768e-01 2.305559671712810399e+00
2.211166406034776599e-01 2.131686704014001066e+00
2.221571895001430430e-01 1.670807858108343424e+00
2.231977383968084261e-01 1.718492859973380860e+00
2.242382872934738092e-01 1.581121042770433860e+00
2.252788361901391923e-01 1.620315625834809481e+00
2.263193850868045753e-01 1.854006594668138774e+00
2.273599339834699584e-01 1.403825073543224278e+00
2.284004828801353415e-01 1.367857492595671687e+00
2.294410317768007246e-01 1.672522460646423070e+00
2.304815806734661077e-01 1.624010867182292372e+00
2.315221295701314908e-01 1.348822419303910891e+00
2.325626784667968738e-01 1.228723457262066887e+00
2.336032273634622569e-01 1.190012654828134231e+00
2.346437762601276400e-01 9.903396105981485675e-01
2.356843251567930231e-01 8.197971176309515329e-01
2.367248740534584062e-01 8.362628522534159003e-01
2.377654229501237892e-01 1.091642493714164885e+00
2.388059718467891723e-01 1.007111327370953546e+00
2.398465207434545554e-01 6.923644506610528992e-01
2.408870696401199385e-01 8.791292767520459961e-01
2.419276185367853216e-01 9.750733211626076979e-01
2.429681674334507047e-01 1.154423244601535004e+00
2.440087163301160877e-01 9.808053594949619480e-01
2.450492652267814708e-01 1.055613505235360350e+00
2.460898141234468539e-01 9.509253337581746734e-01
2.471303630201122370e-01 7.392256147388422960e-01
2.481709119167776201e-01 6.829433996530838158e-01
2.492114608134430032e-01 9.240492113238403249e-01
2.502520097101083585e-01 1.154934469159687893e+00
2.512925586067737416e-01 1.153329549024643796e+00
2.523331075034391247e-01 1.021032123543825776e+00
2.533736564001045077e-01 1.031832508259782344e+00
2.544142052967698908e-01 1.072109889480937994e+00
2.554547541934352739e-01 1.184312300586146449e+00
2.564953030901006570e-01 1.185798794986570925e+00
2.575358519867660401e-01 1.292009098962857649e+00
2.585764008834314231e-01 1.249942351239525351e+00
2.596169497800968062e-01 1.018681095442012463e+00
2.606574986767621893e-01 9.066767212021069611e-01
2.616980475734275724e-01 6.511853628234440805e-01
2.627385964700929555e-01 7.951704399468972895e-01
2.637791453667583386e-01 9.426220534787503880e-01
2.648196942634237216e-01 1.130522292933285655e+00
2.658602431600891047e-01 1.149126036373427695e+00
2.669007920567544878e-01 1.021419296938219645e+00
2.679413409534198709e-01 7.152225380663921328e-01
2.689818898500852540e-01 9.128662712757282804e-01
2.700224387467506371e-01 8.998160384592708283e-01
2.710629876434160201e-01 8.712283545124464013e-01
2.721035365400814032e-01 7.227124857984996709e-01
2.731440854367467863e-01 7.293965103245909631e-01
2.741846343334121694e-01 5.945756643561921351e-01
2.752251832300775525e-01 6.661376081108834057e-01
2.762657321267429356e-01 8.732894314879082742e-01
2.773062810234083186e-01 7.417215227860864957e-01
2.783468299200737017e-01 4.448274510533956061e-01
2.793873788167390848e-01 3.894650768702376809e-01
2.804279277134044679e-01 8.313569574293175890e-01
2.814684766100698510e-01 6.919650199122280299e-01
2.825090255067352341e-01 5.183200599029262889e-01
2.835495744034006171e-01 7.565667517643710482e-01
2.845901233000660002e-01 6.685189545562906233e-01
2.856306721967313833e-01 5.554936078974250790e-01
2.866712210933967664e-01 6.625287227728051676e-01
2.877117699900621495e-01 6.020639974586181609e-01
2.887523188867275326e-01 6.403695685906356516e-01
2.897928677833929156e-01 5.874218801580397553e-01
2.908334166800582987e-01 5.921933682904167995e-01
2.918739655767236818e-01 5.944989145532488806e-01
2.929145144733890649e-01 5.552599932898836244e-01
2.939550633700544480e-01 6.568977155038453475e-01
2.949956122667198311e-01 4.104166080118005766e-01
2.960361611633852141e-01 4.401335075094365834e-01
2.970767100600505972e-01 5.309544996984705278e-01
2.981172589567159803e-01 4.904439447235660055e-01
2.991578078533813634e-01 2.837805551215488720e-01
3.001983567500468020e-01 5.346966487244735333e-01
3.012389056467121851e-01 4.580711491212809960e-01
3.022794545433775681e-01 3.133831692739263985e-01
3.033200034400429512e-01 6.156713440594536735e-01
3.043605523367083343e-01 5.042621263478572757e-01
3.054011012333737174e-01 5.560919906809829172e-01
3.064416501300391005e-01 4.394096915948644266e-01
3.074821990267044836e-01 1.347289425012014874e-01
3.085227479233698666e-01 1.567604065025562932e-01
3.095632968200352497e-01 4.732788527477822527e-01
3.106038457167006328e-01 3.997765080318060882e-01
3.116443946133660159e-01 4.174972498852618230e-01
3.126849435100313990e-01 5.311825660706119834e-01
3.137254924066967821e-01 7.548889235586351276e-01
3.147660413033621651e-01 5.253274448632190285e-01
3.158065902000275482e-01 7.266572273976805718e-01
3.168471390966929313e-01 9.082388666996976667e-01
3.178876879933583144e-01 7.460691036947082466e-01
3.189282368900236975e-01 5.698733289451105577e-01
3.199687857866890806e-01 2.265323474231273337e-01
3.210093346833544636e-01 2.089341190531968095e-01
3.220498835800198467e-01 2.284218385173666377e-01
3.230904324766852298e-01 2.061048674575509665e-01
3.241309813733506129e-01 5.072608074625470920e-01
3.251715302700159960e-01 5.164275743669115570e-01
3.262120791666813790e-01 3.242933909714800222e-01
3.272526280633467621e-01 3.922245166251663306e-01
3.282931769600121452e-01 1.828772287185138623e-01
3.293337258566775283e-01 1.873461047174487248e-01
3.303742747533429114e-01 1.936124431473587038e-01
3.314148236500082945e-01 3.206087643825767941e-01
3.324553725466736775e-01 5.310077713302199243e-01
3.334959214433390606e-01 6.688230747324013237e-01
3.345364703400044437e-01 5.630554467548627429e-01
3.355770192366698268e-01 2.604335754567905781e-01
3.366175681333352099e-01 2.006448259269255630e-01
3.376581170300005930e-01 2.441784603301684342e-01
3.386986659266659760e-01 3.339311863513927392e-01
3.397392148233313591e-01 4.381499560936852333e-01
3.407797637199967422e-01 2.866524584310816692e-01
3.418203126166621253e-01 3.421024673127419646e-01
3.428608615133275084e-01 4.025797703738973610e-01
3.439014104099928915e-01 2.355544575628130133e-01
3.449419593066582745e-01 3.586498290430455427e-01
3.459825082033236576e-01 3.302859489874130361e-01
3.470230570999890407e-01 3.953839829313885446e-01
3.480636059966544238e-01 2.532968375203488165e-01
3.491041548933198069e-01 2.858059687919869418e-01
3.501447037899851900e-01 3.486505362556577836e-01
3.511852526866505730e-01 3.563461096140940754e-01
3.522258015833159561e-01 2.569232224550148658e-01
3.532663504799813392e-01 3.051763645266483138e-01
3.543068993766467223e-01 3.100537214217951032e-01
3.553474482733121054e-01 3.093573914471434705e-01
3.563879971699774885e-01 1.045410439576492934e-01
3.574285460666428715e-01 2.702219910730612185e-01
3.584690949633082546e-01 4.152900143768860630e-01
3.595096438599736377e-01 4.455140193022053552e-01
3.605501927566390208e-01 3.105906444738302241e-01
3.615907416533044039e-01 1.912441974236038789e-01
3.626312905499697870e-01 1.350561877030358460e-01
3.636718394466351700e-01 2.313259191188201669e-01
3.647123883433005531e-01 1.036478260161786125e-01
3.657529372399659362e-01 2.521381036880327997e-01
3.667934861366313193e-01 5.125356693278639852e-01
3.678340350332967024e-01 4.036240978191294460e-01
3.688745839299620854e-01 1.554147066715216852e-01
3.699151328266274685e-01 2.573604750383644557e-01
3.709556817232928516e-01 5.034017134544193084e-01
3.719962306199582347e-01 5.372595496525676140e-01
3.730367795166236178e-01 5.200119665028672955e-01
3.740773284132890009e-01 4.787138420203156386e-01
3.751178773099543839e-01 3.539985699599412783e-01
3.761584262066197670e-01 2.726186068583515976e-01
3.771989751032851501e-01 2.826511098399464572e-01
3.782395239999505332e-01 5.402017672091687928e-01
3.792800728966159163e-01 5.150248774184440492e-01
3.803206217932812994e-01 3.274853596243723075e-01
3.813611706899466824e-01 4.169401726623789273e-01
3.824017195866120655e-01 1.899344338427937373e-01
3.834422684832774486e-01 3.606490282522294422e-01
3.844828173799428317e-01 3.034483732925288280e-01
3.855233662766082148e-01 3.901294748537118551e-01
3.865639151732735979e-01 3.672565472831230693e-01
3.876044640699389809e-01 3.992379376962489346e-01
3.886450129666043640e-01 3.031361041976978754e-01
3.896855618632697471e-01 2.877143737991758599e-01
3.907261107599351302e-01 2.484837953495961926e-01
3.917666596566005133e-01 3.116527536111739494e-01
3.928072085532658964e-01 2.851375105034676949e-01
3.938477574499312794e-01 1.572636387934842617e-01
3.948883063465966625e-01 1.164476621271148815e-01
3.959288552432620456e-01 1.082046389154953658e-01
3.969694041399274287e-01 1.580986166831870321e-01
3.980099530365928118e-01 2.303359511435161266e-01
3.990505019332581949e-01 3.124911042945761608e-01
4.000910508299235779e-01 2.606979931775832426e-01
4.011315997265889610e-01 2.110829022331159877e-01
4.021721486232543441e-01 1.312674209430717553e-01
4.032126975199197272e-01 8.462037093799779086e-03
4.042532464165851103e-01 4.379053681240918650e-03
4.052937953132504934e-01 2.179094648515444987e-01
4.063343442099158764e-01 2.666933175674124357e-01
4.073748931065812595e-01 2.648638968927023996e-01
4.084154420032466426e-01 1.071987526603166430e-01
4.094559908999120257e-01 1.756378639036881850e-01
4.104965397965774088e-01 4.610138644994421497e-01
4.115370886932427918e-01 3.397208722771196676e-01
4.125776375899081749e-01 3.996436781409329342e-02
4.136181864865735580e-01 0.000000000000000000e+00
4.146587353832389411e-01 1.675404678426026805e-01
4.156992842799043242e-01 1.923637952678269869e-01
4.167398331765697073e-01 3.232271932761996425e-01
4.177803820732350903e-01 4.383677223708275505e-01
4.188209309699004734e-01 4.705164876104355187e-01
4.198614798665658565e-01 3.556198148501970024e-01
4.209020287632312396e-01 3.714198028821478204e-01
4.219425776598966227e-01 2.066420309981040759e-01
4.229831265565620058e-01 2.007320979438134145e-01
4.240236754532273888e-01 4.046189840787484115e-01
4.250642243498927719e-01 3.216043415919926929e-01
4.261047732465581550e-01 3.520524409057621540e-01
4.271453221432235381e-01 3.398881871111854025e-01
4.281858710398889212e-01 2.031234005471098669e-01
4.292264199365543043e-01 3.238167927767428012e-01
4.302669688332196873e-01 3.676617665865791196e-01
4.313075177298850704e-01 2.248706661505330828e-01
4.323480666265504535e-01 1.716698617253804571e-01
4.333886155232158366e-01 1.260411977934374761e-01
4.344291644198812197e-01 4.035566399013106320e-01
