# q (1/Angstrom), Intensity (arb)
2.029070354705860696e-02 2.481035825902126817e+02
2.133125244372399004e-02 2.161659300862534963e+02
2.237180134038937659e-02 1.907912978777188471e+02
2.341235023705475968e-02 1.730084021664416980e+02
2.445289913372014276e-02 1.585343144623374769e+02
2.549344803038552584e-02 1.427448167211288421e+02
2.653399692705091240e-02 1.313734613841284329e+02
2.757454582371629548e-02 1.216972841799752416e+02
2.861509472038167856e-02 1.137161367526328632e+02
2.965564361704706164e-02 1.088301717256878760e+02
3.069619251371244473e-02 1.026861662618100723e+02
3.173674141037782781e-02 9.924675938147281329e+01
3.277729030704321089e-02 9.620420253426101453e+01
3.381783920370859398e-02 9.384595281827260749e+01
3.485838810037397706e-02 9.072258152352520710e+01
3.589893699703936014e-02 8.862035521478560440e+01
3.693948589370474322e-02 8.790865536205490116e+01
3.798003479037012631e-02 8.794561916972915583e+01
3.902058368703550939e-02 8.994845217252861858e+01
4.006113258370089247e-02 8.878237870503907914e+01
4.110168148036627556e-02 8.826343616633155875e+01
4.214223037703165864e-02 9.169167253403061579e+01
4.318277927369704866e-02 9.554356699514710272e+01
4.422332817036243174e-02 9.968669970953160941e+01
4.526387706702781483e-02 1.045857607749660474e+02
4.630442596369319791e-02 1.100033011112297459e+02
4.734497486035858099e-02 1.177022777278566252e+02
4.838552375702396408e-02 1.305215079437243446e+02
4.942607265368934716e-02 1.460497501149428672e+02
5.046662155035473024e-02 1.666609691697174185e+02
5.150717044702011332e-02 1.970906508149479919e+02
5.254771934368549641e-02 2.460225590992161244e+02
5.358826824035087949e-02 3.297935796112398634e+02
5.462881713701626257e-02 4.645412592643020275e+02
5.566936603368164566e-02 6.523185993808614285e+02
5.670991493034702874e-02 9.012214604101367286e+02
5.775046382701241182e-02 1.135164914383034329e+03
5.879101272367779490e-02 1.233629303094688794e+03
5.983156162034317799e-02 1.178578078359847950e+03
6.087211051700856107e-02 1.041611161284043419e+03
6.191265941367394415e-02 8.762400876227764002e+02
6.295320831033933417e-02 7.128185602698754337e+02
6.399375720700471726e-02 5.698824642476130293e+02
6.503430610367010034e-02 4.568629265013047416e+02
6.607485500033548342e-02 3.645943974154066041e+02
6.711540389700086651e-02 2.896166551881076430e+02
6.815595279366624959e-02 2.273605093128977046e+02
6.919650169033163267e-02 1.771790364558181636e+02
7.023705058699701576e-02 1.368837382687951845e+02
7.127759948366239884e-02 1.033727965679353673e+02
7.231814838032778192e-02 7.771493088093286872e+01
7.335869727699316500e-02 5.867069872310026568e+01
7.439924617365854809e-02 4.484731393385465736e+01
7.543979507032393117e-02 3.449812998556911481e+01
7.648034396698931425e-02 2.775032432156485385e+01
7.752089286365469734e-02 2.315955551470728579e+01
7.856144176032008042e-02 1.936907915925513635e+01
7.960199065698546350e-02 1.618872786945926379e+01
8.064253955365084658e-02 1.492372539148553301e+01
8.168308845031622967e-02 1.394387840163225434e+01
8.272363734698161275e-02 1.295904548117929522e+01
8.376418624364699583e-02 1.253486869682019744e+01
8.480473514031239279e-02 1.194516997038918049e+01
8.584528403697777588e-02 1.253346226482047143e+01
8.688583293364315896e-02 1.405480379991306705e+01
8.792638183030854204e-02 1.604065975891330709e+01
8.896693072697392513e-02 1.699677143084449682e+01
9.000747962363930821e-02 1.958490545899253732e+01
9.104802852030469129e-02 2.401865281811222275e+01
9.208857741697007437e-02 3.093894716257774746e+01
9.312912631363545746e-02 4.046137008286932257e+01
9.416967521030084054e-02 5.066687711021379670e+01
9.521022410696622362e-02 5.755746753207263566e+01
9.625077300363160671e-02 5.961072858370231131e+01
9.729132190029698979e-02 6.020353549085519518e+01
9.833187079696237287e-02 5.878391987166394017e+01
9.937241969362775595e-02 5.653414170130351835e+01
1.004129685902931390e-01 5.350593456623028032e+01
1.014535174869585221e-01 5.069617927929030543e+01
1.024940663836239052e-01 4.776146174700158298e+01
1.035346152802892883e-01 4.473405046846706767e+01
1.045751641769546714e-01 4.294575157752384342e+01
1.056157130736200545e-01 4.244214904461167492e+01
1.066562619702854375e-01 4.399602160905880766e+01
1.076968108669508206e-01 4.594763363706178438e+01
1.087373597636162037e-01 5.041065050116518620e+01
1.097779086602815868e-01 5.686426560121032026e+01
1.108184575569469699e-01 6.164022876571974763e+01
1.118590064536123529e-01 6.179882724573093356e+01
1.128995553502777360e-01 5.941905092400861577e+01
1.139401042469431191e-01 5.712935726498853484e+01
1.149806531436085022e-01 5.435933041373280616e+01
1.160212020402738853e-01 5.005450967609962731e+01
1.170617509369392684e-01 4.462998515429704582e+01
1.181022998336046514e-01 3.889845819656157744e+01
1.191428487302700345e-01 3.436380361114311199e+01
1.201833976269354176e-01 2.978740622690494888e+01
1.212239465236008007e-01 2.581148971333804809e+01
1.222644954202661838e-01 2.173608842935556851e+01
1.233050443169315669e-01 1.812889008277456071e+01
1.243455932135969499e-01 1.499788549994586617e+01
1.253861421102623330e-01 1.308771278697516038e+01
1.264266910069277161e-01 1.133691453174142083e+01
1.274672399035930992e-01 9.189635975099903931e+00
1.285077888002584823e-01 7.441748059690084460e+00
1.295483376969238654e-01 6.273605824046740054e+00
1.305888865935892484e-01 5.666643279347830742e+00
1.316294354902546315e-01 5.170017160688530566e+00
1.326699843869200146e-01 4.675129659701113383e+00
1.337105332835853977e-01 4.301038697303127378e+00
1.347510821802507808e-01 3.775251162888700662e+00
1.357916310769161639e-01 3.775576097281003740e+00
1.368321799735815469e-01 4.017098744222060702e+00
1.378727288702469300e-01 4.005808801603365055e+00
1.389132777669123131e-01 4.349583652649734233e+00
1.399538266635776962e-01 4.098888109296062510e+00
1.409943755602430793e-01 4.699525440753035355e+00
1.420349244569084624e-01 4.841100208136396077e+00
1.430754733535738454e-01 5.531182052091843104e+00
1.441160222502392285e-01 6.502252070937799999e+00
1.451565711469046116e-01 7.920137887695410939e+00
1.461971200435699947e-01 9.738542720492986859e+00
1.472376689402353778e-01 1.069583311112523205e+01
1.482782178369007609e-01 1.200098105516678970e+01
1.493187667335661439e-01 1.260298338511105953e+01
1.503593156302315270e-01 1.202391618430571896e+01
1.513998645268969101e-01 1.142841474204737295e+01
1.524404134235622932e-01 1.060831490029206492e+01
1.534809623202276763e-01 1.037993747759353624e+01
1.545215112168930593e-01 1.019236063920656932e+01
1.555620601135584424e-01 9.684063537637413788e+00
1.566026090102238255e-01 9.428645045137749037e+00
1.576431579068892086e-01 8.312950120685194122e+00
1.586837068035545917e-01 7.944575830417093698e+00
1.597242557002199748e-01 8.280774908443142124e+00
1.607648045968853578e-01 8.017450395402669017e+00
1.618053534935507409e-01 7.436690674792245659e+00
1.628459023902161240e-01 7.565881844896452435e+00
1.638864512868815071e-01 7.710606170063563525e+00
1.649270001835468902e-01 6.900607760439768867e+00
1.659675490802122733e-01 6.390119413960476891e+00
1.670080979768776563e-01 6.390326892486974941e+00
1.680486468735430672e-01 6.043643003651403944e+00
1.690891957702084503e-01 5.898393133763327967e+00
1.701297446668738333e-01 5.499789363072601134e+00
1.711702935635392164e-01 5.545905112587043106e+00
1.722108424602045995e-01 5.283709346510789828e+00
1.732513913568699826e-01 4.958237518501931618e+00
1.742919402535353657e-01 4.829199375189425325e+00
1.753324891502007488e-01 4.568976792720384594e+00
1.763730380468661318e-01 4.588932809402777480e+00
1.774135869435315149e-01 3.995052900140770191e+00
1.784541358401968980e-01 3.959015331502413915e+00
1.794946847368622811e-01 3.721537871701855238e+00
1.805352336335276642e-01 3.122791499373924751e+00
1.815757825301930473e-01 2.578552171707990226e+00
1.826163314268584303e-01 2.827590395950707602e+00
1.836568803235238134e-01 2.611091874011279401e+00
1.846974292201891965e-01 2.052223932529287254e+00
1.857379781168545796e-01 1.898681116216721421e+00
1.867785270135199627e-01 1.943334688396085141e+00
1.878190759101853458e-01 1.991227279651319293e+00
1.888596248068507288e-01 1.935284972631322375e+00
1.899001737035161119e-01 1.795840565247267762e+00
1.909407226001814950e-01 1.664528378198049552e+00
1.919812714968468781e-01 1.784799181214580699e+00
1.930218203935122612e-01 1.940277729969757559e+00
1.940623692901776443e-01 1.932974375664706201e+00
1.951029181868430273e-01 2.116871940499677862e+00
1.961434670835084104e-01 2.400018763124386112e+00
1.971840159801737935e-01 2.866576267533169187e+00
1.982245648768391766e-01 2.672143748702254129e+00
1.992651137735045597e-01 2.525768336220217236e+00
2.003056626701699428e-01 2.794599632373994780e+00
2.013462115668353813e-01 3.043281061145265198e+00
2.023867604635007644e-01 2.905971126522533865e+00
2.034273093601661475e-01 2.658661982620781572e+00
2.044678582568315306e-01 2.868712273851450334e+00
2.055084071534969137e-01 2.609050106367018174e+00
2.065489560501622968e-01 2.568067159478360395e+00
2.075895049468276798e-01 2.298624595131563808e+00
2.086300538434930629e-01 2.486434127121732729e+00
2.096706027401584460e-01 2.464529051247353664e+00
2.107111516368238291e-01 2.501984258213433066e+00
2.117517005334892122e-01 2.655556771670894989e+00
2.127922494301545953e-01 2.407922059459703945e+00
2.138327983268199783e-01 2.231211634823427659e+00
2.148733472234853614e-01 2.317756816009499232e+00
2.159138961201507445e-01 2.157359200773928620e+00
2.169544450168161276e-01 2.488220139534433883e+00
2.179949939134815107e-01 2.587555561880659383e+00
2.190355428101468938e-01 2.325563064040803596e+00
2.200760917068122768e-01 2.062791006249387493e+00
2.211166406034776599e-01 2.106127171547477417e+00
2.221571895001430430e-01 1.753296647993945356e+00
2.231977383968084261e-01 1.500634545353111804e+00
2.242382872934738092e-01 1.496452651412045753e+00
2.252788361901391923e-01 1.752167318101118809e+00
2.263193850868045753e-01 1.828001432718533437e+00
2.273599339834699584e-01 1.731216908969997803e+00
2.284004828801353415e-01 1.600370728244193685e+00
2.294410317768007246e-01 1.591990139963431972e+00
2.304815806734661077e-01 1.251812995498152503e+00
2.315221295701314908e-01 1.178995928246603597e+00
2.325626784667968738e-01 1.192489227165154375e+00
2.336032273634622569e-01 1.256718682024374090e+00
2.346437762601276400e-01 1.322010359495106258e+00
2.356843251567930231e-01 1.412122472826517594e+00
2.367248740534584062e-01 1.147031695187930467e+00
2.377654229501237892e-01 1.010501473234008074e+00
2.388059718467891723e-01 1.061740229431197946e+00
2.398465207434545554e-01 1.063653697849606061e+00
2.408870696401199385e-01 8.886116020241630054e-01
2.419276185367853216e-01 1.089487174430615823e+00
2.429681674334507047e-01 1.153899579553051780e+00
2.440087163301160877e-01 1.125489589013110248e+00
2.450492652267814708e-01 1.346402501264471141e+00
2.460898141234468539e-01 1.206579966771865742e+00
2.471303630201122370e-01 1.029093861901227314e+00
2.481709119167776201e-01 9.766746781572948066e-01
2.492114608134430032e-01 1.122759378691728926e+00
2.502520097101083585e-01 1.048202283492866371e+00
2.512925586067737416e-01 1.071701512768491682e+00
2.523331075034391247e-01 1.217711613644318902e+00
2.533736564001045077e-01 1.075078529100021996e+00
2.544142052967698908e-01 8.515920223596431526e-01
2.554547541934352739e-01 1.080341909758963936e+00
2.564953030901006570e-01 1.333563180969758122e+00
2.575358519867660401e-01 1.119057210234323918e+00
2.585764008834314231e-01 9.393967957554671955e-01
2.596169497800968062e-01 1.278728724902912006e+00
2.606574986767621893e-01 1.226889556715782703e+00
2.616980475734275724e-01 1.158669005233797122e+00
2.627385964700929555e-01 8.751136927227456397e-01
2.637791453667583386e-01 8.133334699243235377e-01
2.648196942634237216e-01 8.308982418846859730e-01
2.658602431600891047e-01 9.528696691794991125e-01
2.669007920567544878e-01 1.074819173876054634e+00
2.679413409534198709e-01 1.004010164493379875e+00
2.689818898500852540e-01 1.344150697616793622e+00
2.700224387467506371e-01 2.000362381865382844e+00
2.710629876434160201e-01 1.253944384343050444e+00
2.721035365400814032e-01 8.597218887737128057e-01
2.731440854367467863e-01 8.404583999166064245e-01
2.741846343334121694e-01 7.684947099710477403e-01
2.752251832300775525e-01 9.619805020267975237e-01
2.762657321267429356e-01 8.561011827251725492e-01
2.773062810234083186e-01 1.123287066619415242e+00
2.783468299200737017e-01 1.014412791637465006e+00
2.793873788167390848e-01 7.563911498062267924e-01
2.804279277134044679e-01 7.856612198187100660e-01
2.814684766100698510e-01 7.406533963235624185e-01
2.825090255067352341e-01 5.544509001646495960e-01
2.835495744034006171e-01 7.699384836224574258e-01
2.845901233000660002e-01 7.501190508406345714e-01
2.856306721967313833e-01 6.188598442288899548e-01
2.866712210933967664e-01 5.198811794112110363e-01
2.877117699900621495e-01 5.130319437686594597e-01
2.887523188867275326e-01 3.896084151773138160e-01
2.897928677833929156e-01 5.245404021617865453e-01
2.908334166800582987e-01 7.180189844605493477e-01
2.918739655767236818e-01 6.211003297427701852e-01
2.929145144733890649e-01 7.140247373495469674e-01
2.939550633700544480e-01 6.891201114441827258e-01
2.949956122667198311e-01 6.181925828138723489e-01
2.960361611633852141e-01 6.560942554577806618e-01
2.970767100600505972e-01 5.764633771362568382e-01
2.981172589567159803e-01 4.865164254596550109e-01
2.991578078533813634e-01 5.939891491095536935e-01
3.001983567500468020e-01 5.057044372411638733e-01
3.012389056467121851e-01 4.590259247142576271e-01
3.022794545433775681e-01 5.781973120263543819e-01
3.033200034400429512e-01 6.872046289883115833e-01
3.043605523367083343e-01 5.195760446581445535e-01
3.054011012333737174e-01 5.546405934801654780e-01
3.064416501300391005e-01 4.279494348368118040e-01
3.074821990267044836e-01 6.609393027327321590e-01
3.085227479233698666e-01 6.689909885896128117e-01
3.095632968200352497e-01 7.446463690867197727e-01
3.106038457167006328e-01 7.269555557134559365e-01
3.116443946133660159e-01 4.226972788273535286e-01
3.126849435100313990e-01 4.022617977488529561e-01
3.137254924066967821e-01 4.494678729154699681e-01
3.147660413033621651e-01 5.635597289476805827e-01
3.158065902000275482e-01 8.837181553796860101e-01
3.168471390966929313e-01 8.229439835638672207e-01
3.178876879933583144e-01 6.908807951869953001e-01
3.189282368900236975e-01 6.760507248299241212e-01
3.199687857866890806e-01 5.480540665747710705e-01
3.210093346833544636e-01 5.419924202707804284e-01
3.220498835800198467e-01 4.796754625013583961e-01
3.230904324766852298e-01 3.582935925561017143e-01
3.241309813733506129e-01 5.266521573858931049e-01
3.251715302700159960e-01 6.672254142552880296e-01
3.262120791666813790e-01 5.674760851156364083e-01
3.272526280633467621e-01 6.227547602490375311e-01
3.282931769600121452e-01 4.817809369088088545e-01
3.293337258566775283e-01 7.454084495101511720e-01
3.303742747533429114e-01 6.726107254857005557e-01
3.314148236500082945e-01 4.070198023602387138e-01
3.324553725466736775e-01 3.371438939765099008e-01
3.334959214433390606e-01 3.523845762461519371e-01
3.345364703400044437e-01 2.478476309901580521e-01
3.355770192366698268e-01 1.414674271620022239e-01
3.366175681333352099e-01 3.116980299866582982e-01
3.376581170300005930e-01 4.995400886122425277e-01
3.386986659266659760e-01 7.249186489987167192e-01
3.397392148233313591e-01 5.005196084720999750e-01
3.407797637199967422e-01 3.864876017889429249e-01
3.418203126166621253e-01 3.172749725618722039e-01
3.428608615133275084e-01 2.789431895563083685e-01
3.439014104099928915e-01 2.555684806181659496e-01
3.449419593066582745e-01 2.811650599109469795e-01
3.459825082033236576e-01 4.604346028963846038e-01
3.470230570999890407e-01 3.873092740137238366e-01
3.480636059966544238e-01 2.673843519016436687e-01
3.491041548933198069e-01 4.482631369220868578e-01
3.501447037899851900e-01 4.244605752490890893e-01
3.511852526866505730e-01 3.786250739466048287e-01
3.522258015833159561e-01 3.343020792508113459e-01
3.532663504799813392e-01 5.648518268133742026e-01
3.543068993766467223e-01 5.871478653982897811e-01
3.553474482733121054e-01 4.972049844404686780e-01
3.563879971699774885e-01 3.223995489061550757e-01
3.574285460666428715e-01 4.320341256755675374e-01
3.584690949633082546e-01 4.428919431721674016e-01
3.595096438599736377e-01 3.905242571147340414e-01
3.605501927566390208e-01 3.878741396099414374e-01
3.615907416533044039e-01 3.364902940607450432e-01
3.626312905499697870e-01 4.604454992750852682e-01
3.636718394466351700e-01 4.782041810461201692e-01
3.647123883433005531e-01 2.490119015375178435e-01
3.657529372399659362e-01 3.055392894890616162e-01
3.667934861366313193e-01 3.202630652692732838e-01
3.678340350332967024e-01 2.942093562100112081e-02
3.688745839299620854e-01 2.967708743211012745e-01
3.699151328266274685e-01 4.203978625484268150e-01
3.709556817232928516e-01 3.120708168334225263e-01
3.719962306199582347e-01 2.604799435762394921e-01
3.730367795166236178e-01 3.166578755045357241e-01
3.740773284132890009e-01 4.891412895889963863e-01
3.751178773099543839e-01 3.635630914507856914e-01
3.761584262066197670e-01 5.549081710955654501e-01
3.771989751032851501e-01 5.665827994364640574e-01
3.782395239999505332e-01 4.877238331185687059e-01
3.792800728966159163e-01 4.241410825279352537e-01
3.803206217932812994e-01 3.295056342628441826e-01
3.813611706899466824e-01 1.997478945380315452e-01
3.824017195866120655e-01 4.116771426121239585e-01
3.834422684832774486e-01 5.506236033834284171e-01
3.844828173799428317e-01 4.085656218772690806e-01
3.855233662766082148e-01 2.681701717742193125e-01
3.865639151732735979e-01 6.113943056226034400e-02
3.876044640699389809e-01 1.782232333823650094e-01
3.886450129666043640e-01 3.216373671885186525e-01
3.896855618632697471e-01 3.249555619958925945e-01
3.907261107599351302e-01 3.264085761074682068e-01
3.917666596566005133e-01 2.874100447814775805e-01
3.928072085532658964e-01 2.280972503687621611e-01
3.938477574499312794e-01 3.068752066590043626e-01
3.948883063465966625e-01 2.311691280093768341e-01
3.959288552432620456e-01 1.823236230101485944e-01
3.969694041399274287e-01 1.578643190423285603e-01
3.980099530365928118e-01 1.334779837210859910e-01
3.990505019332581949e-01 1.717846819016557447e-01
4.000910508299235779e-01 2.408178384762855728e-01
4.011315997265889610e-01 2.296112767565823276e-01
4.021721486232543441e-01 3.830449169981768875e-01
4.032126975199197272e-01 2.275130516482306575e-01
4.042532464165851103e-01 1.892837893550520789e-01
4.052937953132504934e-01 2.223504464063736918e-01
4.063343442099158764e-01 1.725654586788891720e-01
4.073748931065812595e-01 2.235976391878189418e-01
4.084154420032466426e-01 2.234253185984620416e-01
4.094559908999120257e-01 2.508189757570846723e-01
4.104965397965774088e-01 2.320244426967263962e-01
4.115370886932427918e-01 1.067378751173855278e-01
4.125776375899081749e-01 0.000000000000000000e+00
4.136181864865735580e-01 4.509110701209806393e-02
4.146587353832389411e-01 1.903923144739785300e-01
4.156992842799043242e-01 3.858834522473486572e-01
4.167398331765697073e-01 4.064569770891672817e-01
4.177803820732350903e-01 2.708055108537195110e-01
4.188209309699004734e-01 3.949540418255494956e-01
4.198614798665658565e-01 4.282141691164547126e-01
4.209020287632312396e-01 3.964784637671741052e-01
4.219425776598966227e-01 3.066841243508804382e-01
4.229831265565620058e-01 5.668862077689951207e-01
4.240236754532273888e-01 4.589794463514316192e-01
4.250642243498927719e-01 4.295616212939918910e-01
4.261047732465581550e-01 4.082693366888676678e-01
4.271453221432235381e-01 3.450781860338487661e-01
4.281858710398889212e-01 2.670738176795488528e-01
4.292264199365543043e-01 2.292916613334377018e-01
4.302669688332196873e-01 5.077422289091906293e-01
4.313075177298850704e-01 4.394113871200673316e-01
4.323480666265504535e-01 3.312039983895367357e-01
4.333886155232158366e-01 2.055711671960551712e-01
4.344291644198812197e-01 2.406090072679667458e-01
