# q (1/Angstrom), Intensity (arb)
2.029070354705860696e-02 1.534153866337885574e+02
2.133125244372399004e-02 1.316491411452279294e+02
2.237180134038937659e-02 1.149385484044262284e+02
2.341235023705475968e-02 1.022345673352377275e+02
2.445289913372014276e-02 9.613473851817633431e+01
2.549344803038552584e-02 8.601084201902271786e+01
2.653399692705091240e-02 7.771637336423191300e+01
2.757454582371629548e-02 7.129639392839744971e+01
2.861509472038167856e-02 6.567646442534432083e+01
2.965564361704706164e-02 6.228357454919454028e+01
3.069619251371244473e-02 5.870910173053530912e+01
3.173674141037782781e-02 5.539552690303968063e+01
3.277729030704321089e-02 5.344597027517178844e+01
3.381783920370859398e-02 5.282669195858795064e+01
3.485838810037397706e-02 5.083031567174123921e+01
3.589893699703936014e-02 4.972784546400799854e+01
3.693948589370474322e-02 4.784168465750983046e+01
3.798003479037012631e-02 4.824739531829341388e+01
3.902058368703550939e-02 4.685471013684588826e+01
4.006113258370089247e-02 4.628230499173852763e+01
4.110168148036627556e-02 4.693993263722651932e+01
4.214223037703165864e-02 4.633478283448753388e+01
4.318277927369704866e-02 4.641862619287295644e+01
4.422332817036243174e-02 4.619536127227655697e+01
4.526387706702781483e-02 4.709039661149089540e+01
4.630442596369319791e-02 4.776913030275582628e+01
4.734497486035858099e-02 4.928325129737543620e+01
4.838552375702396408e-02 5.104385070650788236e+01
4.942607265368934716e-02 5.278057454078050625e+01
5.046662155035473024e-02 5.535432604220662256e+01
5.150717044702011332e-02 5.969851939416936659e+01
5.254771934368549641e-02 6.460578612778958529e+01
5.358826824035087949e-02 7.151679040514183328e+01
5.462881713701626257e-02 7.998912623769253116e+01
5.566936603368164566e-02 9.049621850936578937e+01
5.670991493034702874e-02 1.050954370635458588e+02
5.775046382701241182e-02 1.282039741497075624e+02
5.879101272367779490e-02 1.644980500986092125e+02
5.983156162034317799e-02 2.223185443396384926e+02
6.087211051700856107e-02 3.046919219321168271e+02
6.191265941367394415e-02 4.144739580664928553e+02
6.295320831033933417e-02 5.530968819991591090e+02
6.399375720700471726e-02 6.693678456583371599e+02
6.503430610367010034e-02 7.095016074032199640e+02
6.607485500033548342e-02 6.855347997298440532e+02
6.711540389700086651e-02 6.289624314450069278e+02
6.815595279366624959e-02 5.551003486546943577e+02
6.919650169033163267e-02 4.764702947458697508e+02
7.023705058699701576e-02 4.016238335603766814e+02
7.127759948366239884e-02 3.363959317839480718e+02
7.231814838032778192e-02 2.832855462009735561e+02
7.335869727699316500e-02 2.349470597163930279e+02
7.439924617365854809e-02 1.934053033900793821e+02
7.543979507032393117e-02 1.582150906035777211e+02
7.648034396698931425e-02 1.286704407050909253e+02
7.752089286365469734e-02 1.027871478830244314e+02
7.856144176032008042e-02 8.162205948331116190e+01
7.960199065698546350e-02 6.392543876408852555e+01
8.064253955365084658e-02 5.087146889612490241e+01
8.168308845031622967e-02 4.012123310944723897e+01
8.272363734698161275e-02 3.152838439388650471e+01
8.376418624364699583e-02 2.571423634526570368e+01
8.480473514031239279e-02 2.081271517362666401e+01
8.584528403697777588e-02 1.697968645041563462e+01
8.688583293364315896e-02 1.474575352041868115e+01
8.792638183030854204e-02 1.262660846586175722e+01
8.896693072697392513e-02 1.071875142838506889e+01
9.000747962363930821e-02 1.010092664287969200e+01
9.104802852030469129e-02 8.571198677915070618e+00
9.208857741697007437e-02 7.745424986598656858e+00
9.312912631363545746e-02 7.483680787929472444e+00
9.416967521030084054e-02 7.370893677592206927e+00
9.521022410696622362e-02 7.655794764256405927e+00
9.625077300363160671e-02 8.354204369834498323e+00
9.729132190029698979e-02 8.953637131719382580e+00
9.833187079696237287e-02 9.505546270249361385e+00
9.937241969362775595e-02 1.025542908289275346e+01
1.004129685902931390e-01 1.154809931194363060e+01
1.014535174869585221e-01 1.453718396973622617e+01
1.024940663836239052e-01 1.792212332328612234e+01
1.035346152802892883e-01 2.249648767504439917e+01
1.045751641769546714e-01 2.612679474609311825e+01
1.056157130736200545e-01 2.795495816388721266e+01
1.066562619702854375e-01 2.786123545981516969e+01
1.076968108669508206e-01 2.766703186961053262e+01
1.087373597636162037e-01 2.745310098147386668e+01
1.097779086602815868e-01 2.634718896682289824e+01
1.108184575569469699e-01 2.527174061371086111e+01
1.118590064536123529e-01 2.481478014521098174e+01
1.128995553502777360e-01 2.329918273555151842e+01
1.139401042469431191e-01 2.227614982370462826e+01
1.149806531436085022e-01 2.197159482969167499e+01
1.160212020402738853e-01 2.141376205596947102e+01
1.170617509369392684e-01 2.194329061665912661e+01
1.181022998336046514e-01 2.341886181386048094e+01
1.191428487302700345e-01 2.515486978802094598e+01
1.201833976269354176e-01 2.811016427267112761e+01
1.212239465236008007e-01 3.171248560268201544e+01
1.222644954202661838e-01 3.459489341664841078e+01
1.233050443169315669e-01 3.493158726721760843e+01
1.243455932135969499e-01 3.370953836524493141e+01
1.253861421102623330e-01 3.286151335591211620e+01
1.264266910069277161e-01 3.187205296335674376e+01
1.274672399035930992e-01 3.098137125491125943e+01
1.285077888002584823e-01 2.868685473172209299e+01
1.295483376969238654e-01 2.566604487148045877e+01
1.305888865935892484e-01 2.341060760898160709e+01
1.316294354902546315e-01 2.119253647327079904e+01
1.326699843869200146e-01 1.908072262156061782e+01
1.337105332835853977e-01 1.703224360634735035e+01
1.347510821802507808e-01 1.481172141095751016e+01
1.357916310769161639e-01 1.302231743624375326e+01
1.368321799735815469e-01 1.191958085461593697e+01
1.378727288702469300e-01 1.061441774011749573e+01
1.389132777669123131e-01 9.320417199013988352e+00
1.399538266635776962e-01 8.319277136681805018e+00
1.409943755602430793e-01 7.196623196959713198e+00
1.420349244569084624e-01 6.388148495625610934e+00
1.430754733535738454e-01 5.497131421687178943e+00
1.441160222502392285e-01 4.628822868510660271e+00
1.451565711469046116e-01 4.230135049358235477e+00
1.461971200435699947e-01 3.684566666441416061e+00
1.472376689402353778e-01 3.177803414090803358e+00
1.482782178369007609e-01 3.217423461338142943e+00
1.493187667335661439e-01 2.706067431250225752e+00
1.503593156302315270e-01 3.017461857431435135e+00
1.513998645268969101e-01 3.365726605645424030e+00
1.524404134235622932e-01 3.128955608657612686e+00
1.534809623202276763e-01 2.791793635790053685e+00
1.545215112168930593e-01 2.920710482373547023e+00
1.555620601135584424e-01 2.828596117086462414e+00
1.566026090102238255e-01 3.024274311778192725e+00
1.576431579068892086e-01 2.902987322333142828e+00
1.586837068035545917e-01 3.077485049629615332e+00
1.597242557002199748e-01 3.614403290139605929e+00
1.607648045968853578e-01 4.105122355866157591e+00
1.618053534935507409e-01 4.661700934276936437e+00
1.628459023902161240e-01 5.047507648976406358e+00
1.638864512868815071e-01 5.518884203012436984e+00
1.649270001835468902e-01 5.424824567996910929e+00
1.659675490802122733e-01 5.433360566095000621e+00
1.670080979768776563e-01 5.323383701195297135e+00
1.680486468735430672e-01 5.178261511886677937e+00
1.690891957702084503e-01 5.083038673844100686e+00
1.701297446668738333e-01 4.861959920902720000e+00
1.711702935635392164e-01 4.944694725223808263e+00
1.722108424602045995e-01 4.772455020676851234e+00
1.732513913568699826e-01 4.664380207540400392e+00
1.742919402535353657e-01 4.804735180960751251e+00
1.753324891502007488e-01 4.583711388474462467e+00
1.763730380468661318e-01 4.365130456806404879e+00
1.774135869435315149e-01 4.276928820384487295e+00
1.784541358401968980e-01 4.508379809699803786e+00
1.794946847368622811e-01 4.552486803412165273e+00
1.805352336335276642e-01 4.272951156036640441e+00
1.815757825301930473e-01 4.020281954396132562e+00
1.826163314268584303e-01 4.428248891189795700e+00
1.836568803235238134e-01 4.385371070380646330e+00
1.846974292201891965e-01 4.054463513260092355e+00
1.857379781168545796e-01 3.960727192548102238e+00
1.867785270135199627e-01 3.725523938598666263e+00
1.878190759101853458e-01 3.649199471170760489e+00
1.888596248068507288e-01 3.875757216372448966e+00
1.899001737035161119e-01 3.587814536491837458e+00
1.909407226001814950e-01 3.422172371288681347e+00
1.919812714968468781e-01 3.382546261077465033e+00
1.930218203935122612e-01 3.130713588507092027e+00
1.940623692901776443e-01 3.051186570233401341e+00
1.951029181868430273e-01 3.337445324777856825e+00
1.961434670835084104e-01 3.079997403326206751e+00
1.971840159801737935e-01 2.782146439781392644e+00
1.982245648768391766e-01 2.393740517702983794e+00
1.992651137735045597e-01 2.309834467512711598e+00
2.003056626701699428e-01 2.283254639509621597e+00
2.013462115668353813e-01 2.342207765378081064e+00
2.023867604635007644e-01 2.153266289759216079e+00
2.034273093601661475e-01 1.890939371018880877e+00
2.044678582568315306e-01 1.942619159979020793e+00
2.055084071534969137e-01 2.067962815755201689e+00
2.065489560501622968e-01 1.896134452063677145e+00
2.075895049468276798e-01 1.436371827931310463e+00
2.086300538434930629e-01 1.688196966713860547e+00
2.096706027401584460e-01 1.724425321879074602e+00
2.107111516368238291e-01 1.330662348704862552e+00
2.117517005334892122e-01 1.305041756117443441e+00
2.127922494301545953e-01 1.346191352868562063e+00
2.138327983268199783e-01 1.293403318797107460e+00
2.148733472234853614e-01 1.215599969759310284e+00
2.159138961201507445e-01 1.281954592056020914e+00
2.169544450168161276e-01 1.464888088418085488e+00
2.179949939134815107e-01 1.431072325806876933e+00
2.190355428101468938e-01 1.383139005695575463e+00
2.200760917068122768e-01 1.435687911406969164e+00
2.211166406034776599e-01 1.564301845066015773e+00
2.221571895001430430e-01 1.671172518959838982e+00
2.231977383968084261e-01 1.531513123765105178e+00
2.242382872934738092e-01 1.463158553168465659e+00
2.252788361901391923e-01 1.730218377503828009e+00
2.263193850868045753e-01 1.382776804198531551e+00
2.273599339834699584e-01 1.502992288269712873e+00
2.284004828801353415e-01 1.247138889881330925e+00
2.294410317768007246e-01 1.332805407715998314e+00
2.304815806734661077e-01 1.515774252037534353e+00
2.315221295701314908e-01 1.520633821890960746e+00
2.325626784667968738e-01 1.275931077403999581e+00
2.336032273634622569e-01 1.498866136227569257e+00
2.346437762601276400e-01 1.457969146132306548e+00
2.356843251567930231e-01 1.785506467606147396e+00
2.367248740534584062e-01 1.509876578849063122e+00
2.377654229501237892e-01 9.385805613128610503e-01
2.388059718467891723e-01 1.064248551785290431e+00
2.398465207434545554e-01 1.612573637087528766e+00
2.408870696401199385e-01 1.557968431520006192e+00
2.419276185367853216e-01 1.310366304532426085e+00
2.429681674334507047e-01 1.508840392156539423e+00
2.440087163301160877e-01 1.407041293394961201e+00
2.450492652267814708e-01 1.489721199052262079e+00
2.460898141234468539e-01 1.389663827385348327e+00
2.471303630201122370e-01 1.270799241998211926e+00
2.481709119167776201e-01 1.044211734867353414e+00
2.492114608134430032e-01 1.070637247924629776e+00
2.502520097101083585e-01 1.381280416321128968e+00
2.512925586067737416e-01 1.404690437178217621e+00
2.523331075034391247e-01 1.378524238428433080e+00
2.533736564001045077e-01 1.358062223669495694e+00
2.544142052967698908e-01 1.081142827036753573e+00
2.554547541934352739e-01 9.772723033238044366e-01
2.564953030901006570e-01 1.051875204863627289e+00
2.575358519867660401e-01 1.027756571276647435e+00
2.585764008834314231e-01 7.887869049960798407e-01
2.596169497800968062e-01 6.791400440840895669e-01
2.606574986767621893e-01 6.983294677328828470e-01
2.616980475734275724e-01 7.877794624650533706e-01
2.627385964700929555e-01 8.009996876746221517e-01
2.637791453667583386e-01 9.778316418507202457e-01
2.648196942634237216e-01 9.196568838652474653e-01
2.658602431600891047e-01 1.060080266557868356e+00
2.669007920567544878e-01 9.196210626921725861e-01
2.679413409534198709e-01 7.790477025422717361e-01
2.689818898500852540e-01 5.296185294611923666e-01
2.700224387467506371e-01 7.559096817415564828e-01
2.710629876434160201e-01 8.322212302390354921e-01
2.721035365400814032e-01 8.417229321743526782e-01
2.731440854367467863e-01 8.020517362391395011e-01
2.741846343334121694e-01 6.073837577990346404e-01
2.752251832300775525e-01 7.044797865758489763e-01
2.762657321267429356e-01 9.500619721093350734e-01
2.773062810234083186e-01 9.784406712262878614e-01
2.783468299200737017e-01 7.974411481595247153e-01
2.793873788167390848e-01 8.661638225737071650e-01
2.804279277134044679e-01 7.573587107520864947e-01
2.814684766100698510e-01 7.456942131568133902e-01
2.825090255067352341e-01 5.933210521043186247e-01
2.835495744034006171e-01 8.219989085218131208e-01
2.845901233000660002e-01 8.768007466364657887e-01
2.856306721967313833e-01 9.212586553337374085e-01
2.866712210933967664e-01 6.791126494651074097e-01
2.877117699900621495e-01 7.191324689716402929e-01
2.887523188867275326e-01 5.769434544599256753e-01
2.897928677833929156e-01 5.774024473079144570e-01
2.908334166800582987e-01 4.690111522348026085e-01
2.918739655767236818e-01 4.754030403846378761e-01
2.929145144733890649e-01 5.650496035851482191e-01
2.939550633700544480e-01 6.337098759584662844e-01
2.949956122667198311e-01 8.424889795097634249e-01
2.960361611633852141e-01 7.798416677522368445e-01
2.970767100600505972e-01 6.688414645192892749e-01
2.981172589567159803e-01 5.301448270416848629e-01
2.991578078533813634e-01 7.210175412493420311e-01
3.001983567500468020e-01 6.543746481276322413e-01
3.012389056467121851e-01 6.153074584413609216e-01
3.022794545433775681e-01 4.851144013745383177e-01
3.033200034400429512e-01 4.344731980358496060e-01
3.043605523367083343e-01 3.558976197476511061e-01
3.054011012333737174e-01 5.956597238456069476e-01
3.064416501300391005e-01 4.737773835042347059e-01
3.074821990267044836e-01 4.898024573896933020e-01
3.085227479233698666e-01 7.679401818987052764e-01
3.095632968200352497e-01 7.703460583347840895e-01
3.106038457167006328e-01 6.136626803903695304e-01
3.116443946133660159e-01 5.986062982332711613e-01
3.126849435100313990e-01 6.489694813714415034e-01
3.137254924066967821e-01 5.747202492262495355e-01
3.147660413033621651e-01 7.374664591752733145e-01
3.158065902000275482e-01 8.145693418757140591e-01
3.168471390966929313e-01 6.972078320316335009e-01
3.178876879933583144e-01 5.703042584634268053e-01
3.189282368900236975e-01 6.044591443672153730e-01
3.199687857866890806e-01 6.580918429333806330e-01
3.210093346833544636e-01 5.807936695674023042e-01
3.220498835800198467e-01 8.392552691258892139e-01
3.230904324766852298e-01 5.928460234426786712e-01
3.241309813733506129e-01 4.286290588660435219e-01
3.251715302700159960e-01 4.150778234533198940e-01
3.262120791666813790e-01 4.818656718703557829e-01
3.272526280633467621e-01 5.774481227017531637e-01
3.282931769600121452e-01 3.556445822695479819e-01
3.293337258566775283e-01 3.756986216042434990e-01
3.303742747533429114e-01 6.068964873513813529e-01
3.314148236500082945e-01 5.835800043159160566e-01
3.324553725466736775e-01 3.863039937707739568e-01
3.334959214433390606e-01 2.376692071888442115e-01
3.345364703400044437e-01 2.828250052439855722e-01
3.355770192366698268e-01 3.876660381485024232e-01
3.366175681333352099e-01 2.927309337533507971e-01
3.376581170300005930e-01 1.690715073470450136e-01
3.386986659266659760e-01 1.622442847548732914e-01
3.397392148233313591e-01 5.386606057315859175e-01
3.407797637199967422e-01 3.897385657307914641e-01
3.418203126166621253e-01 2.868097022569777721e-01
3.428608615133275084e-01 3.189670719935087106e-01
3.439014104099928915e-01 4.755096863367320736e-01
3.449419593066582745e-01 4.293932968344407186e-01
3.459825082033236576e-01 3.337632213626733346e-01
3.470230570999890407e-01 1.510443249985016223e-01
3.480636059966544238e-01 2.708361710350679630e-01
3.491041548933198069e-01 3.750865986093607773e-01
3.501447037899851900e-01 4.902915102633436106e-01
3.511852526866505730e-01 5.679605869312638333e-01
3.522258015833159561e-01 4.522994197693783747e-01
3.532663504799813392e-01 4.430592851270915844e-01
3.543068993766467223e-01 3.591776672982014418e-01
3.553474482733121054e-01 1.959954863597523911e-01
3.563879971699774885e-01 2.867327466518858614e-01
3.574285460666428715e-01 3.014650311136222172e-01
3.584690949633082546e-01 4.373236375747353577e-01
3.595096438599736377e-01 3.522759247530835580e-01
3.605501927566390208e-01 2.610551314020845837e-01
3.615907416533044039e-01 1.351412164718013287e-01
3.626312905499697870e-01 2.746216036834034924e-01
3.636718394466351700e-01 2.554979434782929104e-01
3.647123883433005531e-01 2.150619170261762747e-01
3.657529372399659362e-01 2.919122226967374445e-01
3.667934861366313193e-01 2.453942842801666302e-01
3.678340350332967024e-01 2.015060840332587588e-01
3.688745839299620854e-01 3.766636955511906137e-01
3.699151328266274685e-01 3.192177537119000874e-01
3.709556817232928516e-01 2.941626903033949247e-01
3.719962306199582347e-01 3.584467983276944381e-01
3.730367795166236178e-01 2.623372077894785548e-01
3.740773284132890009e-01 2.803649815453539418e-01
3.751178773099543839e-01 3.938635538304673389e-01
3.761584262066197670e-01 5.105714636932781048e-01
3.771989751032851501e-01 3.646562914271562761e-01
3.782395239999505332e-01 5.111348726637920947e-01
3.792800728966159163e-01 3.838638345975198263e-01
3.803206217932812994e-01 3.537840980839703775e-01
3.813611706899466824e-01 5.184040266098328686e-01
3.824017195866120655e-01 4.074147905745526543e-01
3.834422684832774486e-01 2.038653037996454032e-01
3.844828173799428317e-01 2.175625829938780953e-01
3.855233662766082148e-01 1.477461391654841805e-01
3.865639151732735979e-01 1.282121117643590935e-01
3.876044640699389809e-01 1.320875270924197764e-01
3.886450129666043640e-01 1.519544088078461641e-01
3.896855618632697471e-01 2.323481028722866881e-01
3.907261107599351302e-01 4.388701611202918684e-01
3.917666596566005133e-01 2.339126513848022171e-01
3.928072085532658964e-01 1.794768889202913442e-01
3.938477574499312794e-01 2.372039731979072030e-01
3.948883063465966625e-01 1.583162895373462220e-01
3.959288552432620456e-01 3.028534400604208088e-01
3.969694041399274287e-01 2.093582074414754857e-01
3.980099530365928118e-01 0.000000000000000000e+00
3.990505019332581949e-01 3.125683609779770222e-01
4.000910508299235779e-01 3.944290979662739005e-01
4.011315997265889610e-01 2.930504270283122992e-01
4.021721486232543441e-01 2.621849948172751965e-01
4.032126975199197272e-01 2.665749210677432757e-01
4.042532464165851103e-01 2.787096854959401071e-01
4.052937953132504934e-01 4.239123307563517074e-01
4.063343442099158764e-01 2.803378129935936158e-01
4.073748931065812595e-01 1.009271535339770764e-01
4.084154420032466426e-01 1.578910222046836509e-01
4.094559908999120257e-01 3.693380327673878583e-01
4.104965397965774088e-01 4.467479606631101774e-01
4.115370886932427918e-01 5.243442482131648319e-01
4.125776375899081749e-01 3.218066474704457391e-01
4.136181864865735580e-01 1.900263772919004168e-01
4.146587353832389411e-01 2.008654640351821286e-01
4.156992842799043242e-01 1.375849719445589869e-01
4.167398331765697073e-01 7.259259313984500750e-02
4.177803820732350903e-01 1.835805021373566603e-01
4.188209309699004734e-01 2.838041210260655589e-01
4.198614798665658565e-01 2.414795012061787816e-01
4.209020287632312396e-01 2.339665403753521389e-01
4.219425776598966227e-01 2.209593201282409325e-01
4.229831265565620058e-01 3.260435411683246798e-01
4.240236754532273888e-01 3.337599039190024541e-01
4.250642243498927719e-01 3.370840895515634372e-01
4.261047732465581550e-01 4.123972440666854311e-01
4.271453221432235381e-01 2.798170665279187119e-01
4.281858710398889212e-01 1.823003243136014362e-01
4.292264199365543043e-01 7.514578923891725992e-01
4.302669688332196873e-01 5.575260482080786062e-01
4.313075177298850704e-01 2.487772652583508659e-01
4.323480666265504535e-01 3.281865347744563621e-01
4.333886155232158366e-01 4.298913715505428002e-01
4.344291644198812197e-01 3.322373882798252964e-01
