# q (1/Angstrom), Intensity (arb)
2.029070354705860696e-02 2.418421768425056371e+02
2.133125244372399004e-02 2.116527853032661142e+02
2.237180134038937659e-02 1.872296214437879485e+02
2.341235023705475968e-02 1.662962267559636302e+02
2.445289913372014276e-02 1.490446324881914109e+02
2.549344803038552584e-02 1.367722769585032552e+02
2.653399692705091240e-02 1.268788002403108237e+02
2.757454582371629548e-02 1.203733229313687474e+02
2.861509472038167856e-02 1.109433759461462898e+02
2.965564361704706164e-02 1.041108757984388404e+02
3.069619251371244473e-02 9.839895256832485870e+01
3.173674141037782781e-02 9.503965838471880545e+01
3.277729030704321089e-02 9.320588975555943989e+01
3.381783920370859398e-02 9.062126911125380957e+01
3.485838810037397706e-02 8.807146331037468201e+01
3.589893699703936014e-02 8.580897836777498355e+01
3.693948589370474322e-02 8.516863927175351989e+01
3.798003479037012631e-02 8.402011862233413808e+01
3.902058368703550939e-02 8.548141670277081516e+01
4.006113258370089247e-02 8.427553200754016416e+01
4.110168148036627556e-02 8.549179856913298181e+01
4.214223037703165864e-02 8.855472814157006667e+01
4.318277927369704866e-02 9.035073977055294847e+01
4.422332817036243174e-02 9.280329125417382841e+01
4.526387706702781483e-02 9.686672473764484437e+01
4.630442596369319791e-02 1.042991107392114856e+02
4.734497486035858099e-02 1.131453588549818789e+02
4.838552375702396408e-02 1.223761786161365279e+02
4.942607265368934716e-02 1.352086791453769479e+02
5.046662155035473024e-02 1.525255736566462303e+02
5.150717044702011332e-02 1.794884296874942038e+02
5.254771934368549641e-02 2.196147383968386748e+02
5.358826824035087949e-02 2.907453634922098900e+02
5.462881713701626257e-02 4.052771382506930422e+02
5.566936603368164566e-02 5.701613259822264581e+02
5.670991493034702874e-02 7.964301710131240952e+02
5.775046382701241182e-02 1.046867001244356743e+03
5.879101272367779490e-02 1.208651628410237890e+03
5.983156162034317799e-02 1.209178021543881414e+03
6.087211051700856107e-02 1.097993973239914794e+03
6.191265941367394415e-02 9.404699881890103370e+02
6.295320831033933417e-02 7.751868614942399063e+02
6.399375720700471726e-02 6.263982631915655475e+02
6.503430610367010034e-02 5.014599618384748396e+02
6.607485500033548342e-02 4.029830954403865917e+02
6.711540389700086651e-02 3.247151674055634771e+02
6.815595279366624959e-02 2.575391546803365941e+02
6.919650169033163267e-02 2.017226696869936973e+02
7.023705058699701576e-02 1.569615502241368858e+02
7.127759948366239884e-02 1.193678839488264316e+02
7.231814838032778192e-02 8.920960706157501363e+01
7.335869727699316500e-02 6.674561257758739430e+01
7.439924617365854809e-02 5.106290677430423131e+01
7.543979507032393117e-02 3.919713258742871886e+01
7.648034396698931425e-02 3.112309549108138640e+01
7.752089286365469734e-02 2.572566176467892518e+01
7.856144176032008042e-02 2.082471431475936186e+01
7.960199065698546350e-02 1.779911043763766543e+01
8.064253955365084658e-02 1.603025330743593457e+01
8.168308845031622967e-02 1.486508311957170037e+01
8.272363734698161275e-02 1.319907907071431907e+01
8.376418624364699583e-02 1.246744398786864849e+01
8.480473514031239279e-02 1.234917595771322141e+01
8.584528403697777588e-02 1.302878507566857280e+01
8.688583293364315896e-02 1.364454250157176318e+01
8.792638183030854204e-02 1.388917421202049951e+01
8.896693072697392513e-02 1.514151656048496619e+01
9.000747962363930821e-02 1.706301036096853352e+01
9.104802852030469129e-02 2.047870643346675479e+01
9.208857741697007437e-02 2.459771807890714967e+01
9.312912631363545746e-02 3.228457207318135147e+01
9.416967521030084054e-02 4.282212158632631116e+01
9.521022410696622362e-02 5.094894635955778739e+01
9.625077300363160671e-02 5.554643691641697245e+01
9.729132190029698979e-02 5.677899141979369091e+01
9.833187079696237287e-02 5.659714335486557246e+01
9.937241969362775595e-02 5.553995477615126219e+01
1.004129685902931390e-01 5.344257938689316489e+01
1.014535174869585221e-01 5.051548705733528521e+01
1.024940663836239052e-01 4.786068645605265459e+01
1.035346152802892883e-01 4.549457580383017330e+01
1.045751641769546714e-01 4.302184259535118116e+01
1.056157130736200545e-01 4.158424189226275303e+01
1.066562619702854375e-01 4.166531540277790668e+01
1.076968108669508206e-01 4.328122158559765609e+01
1.087373597636162037e-01 4.631526550088829453e+01
1.097779086602815868e-01 5.153930252449420379e+01
1.108184575569469699e-01 5.743054177298649421e+01
1.118590064536123529e-01 6.042725413094397169e+01
1.128995553502777360e-01 5.922835960155321544e+01
1.139401042469431191e-01 5.811905967710547571e+01
1.149806531436085022e-01 5.593517277880744132e+01
1.160212020402738853e-01 5.277292969599351125e+01
1.170617509369392684e-01 4.847391507333769312e+01
1.181022998336046514e-01 4.273076988824286104e+01
1.191428487302700345e-01 3.777424626045400657e+01
1.201833976269354176e-01 3.340810416206846867e+01
1.212239465236008007e-01 2.899276398482454198e+01
1.222644954202661838e-01 2.493378724422153425e+01
1.233050443169315669e-01 2.099730614079552282e+01
1.243455932135969499e-01 1.767765684156955075e+01
1.253861421102623330e-01 1.538868677598383528e+01
1.264266910069277161e-01 1.242596505943403429e+01
1.274672399035930992e-01 1.090194007543656340e+01
1.285077888002584823e-01 9.263374102814388777e+00
1.295483376969238654e-01 7.989724432093886719e+00
1.305888865935892484e-01 6.732639218798809111e+00
1.316294354902546315e-01 5.694750881098514128e+00
1.326699843869200146e-01 5.115267096648516087e+00
1.337105332835853977e-01 4.541636114353117648e+00
1.347510821802507808e-01 4.063295128058101113e+00
1.357916310769161639e-01 4.516933106838337153e+00
1.368321799735815469e-01 4.245518897157282368e+00
1.378727288702469300e-01 3.610440323792175832e+00
1.389132777669123131e-01 3.389874363103849930e+00
1.399538266635776962e-01 3.792989679488520949e+00
1.409943755602430793e-01 4.176382398940852170e+00
1.420349244569084624e-01 4.473253140451767251e+00
1.430754733535738454e-01 4.999252871633117934e+00
1.441160222502392285e-01 5.552486363603861719e+00
1.451565711469046116e-01 6.524607052222151538e+00
1.461971200435699947e-01 7.694815995360805516e+00
1.472376689402353778e-01 9.203783840759733437e+00
1.482782178369007609e-01 1.033937045726491988e+01
1.493187667335661439e-01 1.089755057903769142e+01
1.503593156302315270e-01 1.140588205935971189e+01
1.513998645268969101e-01 1.175940531625370511e+01
1.524404134235622932e-01 1.137539996566118816e+01
1.534809623202276763e-01 1.069334441812002723e+01
1.545215112168930593e-01 1.036626964104092252e+01
1.555620601135584424e-01 1.006951520609072048e+01
1.566026090102238255e-01 9.877549705962572091e+00
1.576431579068892086e-01 9.271758032128140314e+00
1.586837068035545917e-01 8.501675235421117804e+00
1.597242557002199748e-01 8.283694488800783517e+00
1.607648045968853578e-01 7.953133781029201543e+00
1.618053534935507409e-01 7.620418024434400195e+00
1.628459023902161240e-01 7.504237787460105835e+00
1.638864512868815071e-01 7.674326792269063446e+00
1.649270001835468902e-01 7.612465565423349290e+00
1.659675490802122733e-01 7.223728867946547894e+00
1.670080979768776563e-01 6.245482696517228760e+00
1.680486468735430672e-01 6.258170356906674670e+00
1.690891957702084503e-01 6.424406501219841914e+00
1.701297446668738333e-01 5.773625488644057668e+00
1.711702935635392164e-01 5.542843177285785572e+00
1.722108424602045995e-01 5.909570961499248654e+00
1.732513913568699826e-01 5.930890749783745974e+00
1.742919402535353657e-01 5.662404379926282871e+00
1.753324891502007488e-01 5.105274794918756243e+00
1.763730380468661318e-01 5.072913814065032057e+00
1.774135869435315149e-01 4.855245652267242917e+00
1.784541358401968980e-01 4.228019883245138999e+00
1.794946847368622811e-01 4.002697384787325063e+00
1.805352336335276642e-01 3.809531468192176362e+00
1.815757825301930473e-01 3.439121887333598693e+00
1.826163314268584303e-01 3.019868762728833644e+00
1.836568803235238134e-01 2.937089628581702527e+00
1.846974292201891965e-01 2.532178125072778840e+00
1.857379781168545796e-01 2.327734528981114437e+00
1.867785270135199627e-01 2.365626797382642366e+00
1.878190759101853458e-01 2.153842683071673036e+00
1.888596248068507288e-01 1.901028735617039445e+00
1.899001737035161119e-01 1.927912879911442445e+00
1.909407226001814950e-01 1.893071690392826412e+00
1.919812714968468781e-01 1.796062167860711156e+00
1.930218203935122612e-01 1.796347287072411092e+00
1.940623692901776443e-01 1.605041414878350281e+00
1.951029181868430273e-01 1.818644103809969437e+00
1.961434670835084104e-01 1.998375968763088650e+00
1.971840159801737935e-01 2.093623358324016692e+00
1.982245648768391766e-01 2.281337889381749306e+00
1.992651137735045597e-01 2.350860976645218869e+00
2.003056626701699428e-01 2.697680738988182725e+00
2.013462115668353813e-01 2.846753273710206145e+00
2.023867604635007644e-01 2.763077898407743760e+00
2.034273093601661475e-01 2.990474609177915966e+00
2.044678582568315306e-01 2.642184545750414060e+00
2.055084071534969137e-01 2.500415018469308137e+00
2.065489560501622968e-01 2.549437556126978421e+00
2.075895049468276798e-01 2.064271528646081322e+00
2.086300538434930629e-01 2.095570922258769286e+00
2.096706027401584460e-01 2.373849783588433127e+00
2.107111516368238291e-01 2.317111050911211834e+00
2.117517005334892122e-01 2.135649545689446427e+00
2.127922494301545953e-01 2.008800223058095469e+00
2.138327983268199783e-01 2.111487682776957087e+00
2.148733472234853614e-01 2.183184032691919185e+00
2.159138961201507445e-01 2.472735222508610775e+00
2.169544450168161276e-01 2.341248785729582949e+00
2.179949939134815107e-01 2.231917614559723262e+00
2.190355428101468938e-01 2.113019984428362363e+00
2.200760917068122768e-01 1.966400397339622685e+00
2.211166406034776599e-01 2.226011674908850324e+00
2.221571895001430430e-01 2.182368362874822054e+00
2.231977383968084261e-01 1.799643761512815132e+00
2.242382872934738092e-01 1.814733664585990169e+00
2.252788361901391923e-01 1.874396564297242662e+00
2.263193850868045753e-01 1.977415582547411788e+00
2.273599339834699584e-01 1.740856504191523157e+00
2.284004828801353415e-01 1.268306229524974071e+00
2.294410317768007246e-01 1.352760428444323537e+00
2.304815806734661077e-01 1.642520166878060905e+00
2.315221295701314908e-01 1.225075098887618452e+00
2.325626784667968738e-01 1.364785852360800078e+00
2.336032273634622569e-01 1.260926457885453544e+00
2.346437762601276400e-01 1.309334062067691207e+00
2.356843251567930231e-01 1.548586181970762254e+00
2.367248740534584062e-01 1.515753522868457992e+00
2.377654229501237892e-01 1.418041195172428104e+00
2.388059718467891723e-01 1.010705292404004751e+00
2.398465207434545554e-01 1.085580946446494721e+00
2.408870696401199385e-01 1.177695629744480499e+00
2.419276185367853216e-01 1.241040279109796529e+00
2.429681674334507047e-01 1.165463704067260409e+00
2.440087163301160877e-01 9.193777486818319744e-01
2.450492652267814708e-01 1.073162983248813873e+00
2.460898141234468539e-01 9.748517749010652267e-01
2.471303630201122370e-01 1.104108094850449362e+00
2.481709119167776201e-01 9.369539861359434951e-01
2.492114608134430032e-01 6.747944454724716934e-01
2.502520097101083585e-01 8.173226441989598356e-01
2.512925586067737416e-01 9.547606363120806350e-01
2.523331075034391247e-01 9.358880591775253777e-01
2.533736564001045077e-01 9.395108621129040216e-01
2.544142052967698908e-01 9.991387318622102498e-01
2.554547541934352739e-01 1.019082901966022803e+00
2.564953030901006570e-01 1.093926859052402278e+00
2.575358519867660401e-01 1.243584134211037195e+00
2.585764008834314231e-01 1.208411746369094431e+00
2.596169497800968062e-01 1.261721851389474125e+00
2.606574986767621893e-01 1.092745367042461169e+00
2.616980475734275724e-01 9.254530037179442559e-01
2.627385964700929555e-01 7.800607236550334278e-01
2.637791453667583386e-01 1.010154370488752562e+00
2.648196942634237216e-01 9.953516771400430230e-01
2.658602431600891047e-01 7.278710003966857300e-01
2.669007920567544878e-01 8.470539335446929385e-01
2.679413409534198709e-01 8.315627714366193857e-01
2.689818898500852540e-01 7.610205103979836849e-01
2.700224387467506371e-01 7.312607749050918926e-01
2.710629876434160201e-01 8.250050717659789257e-01
2.721035365400814032e-01 6.874446967612826143e-01
2.731440854367467863e-01 7.797210222302979332e-01
2.741846343334121694e-01 9.938618554843117181e-01
2.752251832300775525e-01 9.995307028881370570e-01
2.762657321267429356e-01 7.153220503604451608e-01
2.773062810234083186e-01 8.289057636970902365e-01
2.783468299200737017e-01 8.936367723468165991e-01
2.793873788167390848e-01 7.191125261802149282e-01
2.804279277134044679e-01 7.224029726766154624e-01
2.814684766100698510e-01 7.102082705388106376e-01
2.825090255067352341e-01 1.002210262381410644e+00
2.835495744034006171e-01 9.943570757552144812e-01
2.845901233000660002e-01 7.261751774508482526e-01
2.856306721967313833e-01 5.640876614620289331e-01
2.866712210933967664e-01 5.740151296359563560e-01
2.877117699900621495e-01 6.256613751594350958e-01
2.887523188867275326e-01 5.398812980641451986e-01
2.897928677833929156e-01 6.768564286771905358e-01
2.908334166800582987e-01 6.027302130603970909e-01
2.918739655767236818e-01 7.387146563362279039e-01
2.929145144733890649e-01 8.145172822221766751e-01
2.939550633700544480e-01 5.925805047233865253e-01
2.949956122667198311e-01 7.604931181012695163e-01
2.960361611633852141e-01 5.791413391513664521e-01
2.970767100600505972e-01 4.426053096653994601e-01
2.981172589567159803e-01 5.982132181785750902e-01
2.991578078533813634e-01 8.281347787280601835e-01
3.001983567500468020e-01 6.740900264735358860e-01
3.012389056467121851e-01 4.888527212153093160e-01
3.022794545433775681e-01 7.382048309429301014e-01
3.033200034400429512e-01 7.119737976996312057e-01
3.043605523367083343e-01 5.338932420259361322e-01
3.054011012333737174e-01 3.146537949587369098e-01
3.064416501300391005e-01 4.801081851044379789e-01
3.074821990267044836e-01 4.434301934841720083e-01
3.085227479233698666e-01 5.035168113562278336e-01
3.095632968200352497e-01 4.509916962621538516e-01
3.106038457167006328e-01 2.952667503517822922e-01
3.116443946133660159e-01 3.666777861501842040e-01
3.126849435100313990e-01 5.503643051549644838e-01
3.137254924066967821e-01 6.456008557214012455e-01
3.147660413033621651e-01 5.939304494507702259e-01
3.158065902000275482e-01 6.851814726265317290e-01
3.168471390966929313e-01 5.924995111850321905e-01
3.178876879933583144e-01 4.606597815510191651e-01
3.189282368900236975e-01 3.719130790710707402e-01
3.199687857866890806e-01 4.267622441272287404e-01
3.210093346833544636e-01 4.314999266884314011e-01
3.220498835800198467e-01 3.392337713992965575e-01
3.230904324766852298e-01 4.571666334513118102e-01
3.241309813733506129e-01 5.436997833712595707e-01
3.251715302700159960e-01 4.632535541591558115e-01
3.262120791666813790e-01 2.331397854157764016e-01
3.272526280633467621e-01 4.374280120703133434e-01
3.282931769600121452e-01 6.297005510948494589e-01
3.293337258566775283e-01 5.309092377318087586e-01
3.303742747533429114e-01 6.738044005181400564e-01
3.314148236500082945e-01 6.853986623989634097e-01
3.324553725466736775e-01 3.950941129903426940e-01
3.334959214433390606e-01 3.249601937130250917e-01
3.345364703400044437e-01 2.532283386669860192e-01
3.355770192366698268e-01 3.024446898302919351e-01
3.366175681333352099e-01 1.954999128104901729e-01
3.376581170300005930e-01 3.273855300466870233e-01
3.386986659266659760e-01 2.633594563853911552e-01
3.397392148233313591e-01 3.007784779721518476e-01
3.407797637199967422e-01 3.438758143681468482e-01
3.418203126166621253e-01 3.163915353350965631e-01
3.428608615133275084e-01 4.921226754702416883e-01
3.439014104099928915e-01 5.650599015776656131e-01
3.449419593066582745e-01 6.220434176438978113e-01
3.459825082033236576e-01 4.161879106198469458e-01
3.470230570999890407e-01 2.791142747515706901e-01
3.480636059966544238e-01 1.909717158603605469e-01
3.491041548933198069e-01 4.693632881695819492e-01
3.501447037899851900e-01 7.464656228075803313e-01
3.511852526866505730e-01 4.447950859553628788e-01
3.522258015833159561e-01 1.329395453311441599e-01
3.532663504799813392e-01 3.110027239020389800e-01
3.543068993766467223e-01 2.839505155080708221e-01
3.553474482733121054e-01 1.236199881361841335e-01
3.563879971699774885e-01 2.695267995134251748e-01
3.574285460666428715e-01 5.273346644505672032e-01
3.584690949633082546e-01 2.202586947606768319e-01
3.595096438599736377e-01 1.444273936685469550e-01
3.605501927566390208e-01 3.187106520356124406e-01
3.615907416533044039e-01 3.055425073381350387e-01
3.626312905499697870e-01 4.314305899187687032e-01
3.636718394466351700e-01 2.462106813361408797e-01
3.647123883433005531e-01 9.919304320600730307e-02
3.657529372399659362e-01 3.966471076607156476e-01
3.667934861366313193e-01 2.697166316770100991e-01
3.678340350332967024e-01 3.381030760997418838e-01
3.688745839299620854e-01 4.292938744210559321e-01
3.699151328266274685e-01 3.407365039240417559e-01
3.709556817232928516e-01 2.378156466382392864e-01
3.719962306199582347e-01 0.000000000000000000e+00
3.730367795166236178e-01 2.823530244174783377e-01
3.740773284132890009e-01 3.682071805641449203e-01
3.751178773099543839e-01 2.823680245331843253e-01
3.761584262066197670e-01 3.298872011103917146e-01
3.771989751032851501e-01 4.363483115699793302e-01
3.782395239999505332e-01 3.990854644176948796e-01
3.792800728966159163e-01 1.861055797802499967e-01
3.803206217932812994e-01 1.206913324801242027e-01
3.813611706899466824e-01 2.564857362585293288e-01
3.824017195866120655e-01 4.076651221744427289e-01
3.834422684832774486e-01 3.613040654655961248e-01
3.844828173799428317e-01 2.260604258451479609e-01
3.855233662766082148e-01 2.168057013183428694e-01
3.865639151732735979e-01 1.560615108984713117e-01
3.876044640699389809e-01 2.556450030709669363e-01
3.886450129666043640e-01 2.596349397459256636e-01
3.896855618632697471e-01 3.633642892984845219e-01
3.907261107599351302e-01 4.280900880402498387e-01
3.917666596566005133e-01 2.203139867043724109e-01
3.928072085532658964e-01 3.235819182402295269e-01
3.938477574499312794e-01 3.143084264559377061e-01
3.948883063465966625e-01 3.517876114271025756e-01
3.959288552432620456e-01 2.774100355686073271e-01
3.969694041399274287e-01 2.300566540844037888e-01
3.980099530365928118e-01 2.108833570553088066e-01
3.990505019332581949e-01 1.892907581899549996e-01
4.000910508299235779e-01 3.213797708140511133e-01
4.011315997265889610e-01 2.943255293129780625e-01
4.021721486232543441e-01 3.420856625067294488e-01
4.032126975199197272e-01 4.525579940528388079e-01
4.042532464165851103e-01 5.496905683104351681e-01
4.052937953132504934e-01 2.722383957532308330e-01
4.063343442099158764e-01 2.790610105475259672e-01
4.073748931065812595e-01 3.038495850155129574e-01
4.084154420032466426e-01 2.992167602180408892e-01
4.094559908999120257e-01 3.689420400582115178e-01
4.104965397965774088e-01 3.410190214032411404e-01
4.115370886932427918e-01 2.820162029210031562e-01
4.125776375899081749e-01 2.734660134549855570e-01
4.136181864865735580e-01 4.938508238367660397e-01
4.146587353832389411e-01 2.432059677655402652e-01
4.156992842799043242e-01 1.008494004093059004e-01
4.167398331765697073e-01 3.509691593811474775e-01
4.177803820732350903e-01 4.329804280753215551e-01
4.188209309699004734e-01 4.166877187015067818e-01
4.198614798665658565e-01 4.771561587583263986e-01
4.209020287632312396e-01 2.413559768038737730e-01
4.219425776598966227e-01 3.377495981426363869e-01
4.229831265565620058e-01 2.335913842868535539e-01
4.240236754532273888e-01 1.282407062278778653e-02
4.250642243498927719e-01 1.912801931463121718e-01
4.261047732465581550e-01 1.614925077018725119e-01
4.271453221432235381e-01 1.862063918148635366e-01
4.281858710398889212e-01 3.310931384067821170e-01
4.292264199365543043e-01 1.578717600956736078e-01
4.302669688332196873e-01 1.148546021517020677e-01
4.313075177298850704e-01 1.343523044271464073e-01
4.323480666265504535e-01 4.213994548068811241e-01
4.333886155232158366e-01 2.292983856112620344e-01
4.344291644198812197e-01 3.041592955369303297e-01
