# q (1/Angstrom), Intensity (arb)
2.029070354705860696e-02 1.165154887570959659e+02
2.133125244372399004e-02 9.617129593015280875e+01
2.237180134038937659e-02 8.670814715478124413e+01
2.341235023705475968e-02 7.829955711019334785e+01
2.445289913372014276e-02 6.976536244724965741e+01
2.549344803038552584e-02 6.375451682877111637e+01
2.653399692705091240e-02 5.868325252886535282e+01
2.757454582371629548e-02 5.481174467167276987e+01
2.861509472038167856e-02 5.208228839692729650e+01
2.965564361704706164e-02 4.771159445292201440e+01
3.069619251371244473e-02 4.599893693574153986e+01
3.173674141037782781e-02 4.356833826274578314e+01
3.277729030704321089e-02 4.277558901635830324e+01
3.381783920370859398e-02 4.063619767327840293e+01
3.485838810037397706e-02 3.908925912358327537e+01
3.589893699703936014e-02 3.820439417641497926e+01
3.693948589370474322e-02 3.714218483770292778e+01
3.798003479037012631e-02 3.672959550287798436e+01
3.902058368703550939e-02 3.590894448592518984e+01
4.006113258370089247e-02 3.537828846509811598e+01
4.110168148036627556e-02 3.447215735775647971e+01
4.214223037703165864e-02 3.400605979248333455e+01
4.318277927369704866e-02 3.445636893124027722e+01
4.422332817036243174e-02 3.464772914445426011e+01
4.526387706702781483e-02 3.570037600632706898e+01
4.630442596369319791e-02 3.630227597253071536e+01
4.734497486035858099e-02 3.654357706684758256e+01
4.838552375702396408e-02 3.749957157987405054e+01
4.942607265368934716e-02 3.850707458567715946e+01
5.046662155035473024e-02 3.926506633107951671e+01
5.150717044702011332e-02 4.100806049192003400e+01
5.254771934368549641e-02 4.352363392512053508e+01
5.358826824035087949e-02 4.672418507245565422e+01
5.462881713701626257e-02 5.054859866788344647e+01
5.566936603368164566e-02 5.539410222095978042e+01
5.670991493034702874e-02 6.090850023445171502e+01
5.775046382701241182e-02 6.847013834673244048e+01
5.879101272367779490e-02 7.936195190709645431e+01
5.983156162034317799e-02 9.468475059207662525e+01
6.087211051700856107e-02 1.197173361886010952e+02
6.191265941367394415e-02 1.593227834492386421e+02
6.295320831033933417e-02 2.151529409229179919e+02
6.399375720700471726e-02 2.903791609338672970e+02
6.503430610367010034e-02 3.896511219291610360e+02
6.607485500033548342e-02 4.928508685746214724e+02
6.711540389700086651e-02 5.494091978415052608e+02
6.815595279366624959e-02 5.461865933040303389e+02
6.919650169033163267e-02 5.141675563619951390e+02
7.023705058699701576e-02 4.687742051502210074e+02
7.127759948366239884e-02 4.135860115734589044e+02
7.231814838032778192e-02 3.612813544648503807e+02
7.335869727699316500e-02 3.110530158181873048e+02
7.439924617365854809e-02 2.646378089986570785e+02
7.543979507032393117e-02 2.234553834608435636e+02
7.648034396698931425e-02 1.882520696933673889e+02
7.752089286365469734e-02 1.565858080667610182e+02
7.856144176032008042e-02 1.307080015320205462e+02
7.960199065698546350e-02 1.081716204910156023e+02
8.064253955365084658e-02 8.873214676358946917e+01
8.168308845031622967e-02 7.171314158781189008e+01
8.272363734698161275e-02 5.842867880949909676e+01
8.376418624364699583e-02 4.715092617973810718e+01
8.480473514031239279e-02 3.739319315236592445e+01
8.584528403697777588e-02 3.042901534394172103e+01
8.688583293364315896e-02 2.421505111543347510e+01
8.792638183030854204e-02 1.980068595431207967e+01
8.896693072697392513e-02 1.668108354787069914e+01
9.000747962363930821e-02 1.402583816954668805e+01
9.104802852030469129e-02 1.199030165754646760e+01
9.208857741697007437e-02 1.029283031473845966e+01
9.312912631363545746e-02 9.135202856053709297e+00
9.416967521030084054e-02 8.469691132835997394e+00
9.521022410696622362e-02 7.770129612436171840e+00
9.625077300363160671e-02 7.808440341049035283e+00
9.729132190029698979e-02 7.323414206022775375e+00
9.833187079696237287e-02 6.268201631070638769e+00
9.937241969362775595e-02 6.612241655738905877e+00
1.004129685902931390e-01 6.963036818625390367e+00
1.014535174869585221e-01 7.589974751559203980e+00
1.024940663836239052e-01 8.050106364837091633e+00
1.035346152802892883e-01 8.643875604676907187e+00
1.045751641769546714e-01 9.455412039284404102e+00
1.056157130736200545e-01 1.133654476942551526e+01
1.066562619702854375e-01 1.385202986287320925e+01
1.076968108669508206e-01 1.685791612356143077e+01
1.087373597636162037e-01 1.893680012455029527e+01
1.097779086602815868e-01 1.966710608677099970e+01
1.108184575569469699e-01 2.001209462165937936e+01
1.118590064536123529e-01 2.018451607823740090e+01
1.128995553502777360e-01 2.023552877572810615e+01
1.139401042469431191e-01 1.960061556003584826e+01
1.149806531436085022e-01 1.848609610821740290e+01
1.160212020402738853e-01 1.795610640226335875e+01
1.170617509369392684e-01 1.776529331079939311e+01
1.181022998336046514e-01 1.697599679971065711e+01
1.191428487302700345e-01 1.694325397560597679e+01
1.201833976269354176e-01 1.650105165077570035e+01
1.212239465236008007e-01 1.636768569343787050e+01
1.222644954202661838e-01 1.706102043910789945e+01
1.233050443169315669e-01 1.894897430165128327e+01
1.243455932135969499e-01 2.089432661772413269e+01
1.253861421102623330e-01 2.364328572015905650e+01
1.264266910069277161e-01 2.581951747694723309e+01
1.274672399035930992e-01 2.762320034160001114e+01
1.285077888002584823e-01 2.729059068462612458e+01
1.295483376969238654e-01 2.610899459445183624e+01
1.305888865935892484e-01 2.482444264740141193e+01
1.316294354902546315e-01 2.506263910551487228e+01
1.326699843869200146e-01 2.461889352733583536e+01
1.337105332835853977e-01 2.274390482794019164e+01
1.347510821802507808e-01 1.998677670704804399e+01
1.357916310769161639e-01 1.839466671394622210e+01
1.368321799735815469e-01 1.655028111996552909e+01
1.378727288702469300e-01 1.535240509754995486e+01
1.389132777669123131e-01 1.380379716395855283e+01
1.399538266635776962e-01 1.261127847677043690e+01
1.409943755602430793e-01 1.111338918946059451e+01
1.420349244569084624e-01 9.773795184867406505e+00
1.430754733535738454e-01 9.017136496225408138e+00
1.441160222502392285e-01 8.252290565554964985e+00
1.451565711469046116e-01 7.020573717337107666e+00
1.461971200435699947e-01 6.326325456777116329e+00
1.472376689402353778e-01 6.064687534369234356e+00
1.482782178369007609e-01 5.370354196218141141e+00
1.493187667335661439e-01 4.708651684048916763e+00
1.503593156302315270e-01 4.304113042016016522e+00
1.513998645268969101e-01 3.988913663906870966e+00
1.524404134235622932e-01 3.476081408547869955e+00
1.534809623202276763e-01 2.814222369358340359e+00
1.545215112168930593e-01 2.748252094896887598e+00
1.555620601135584424e-01 2.859007925052711840e+00
1.566026090102238255e-01 2.988638566409548503e+00
1.576431579068892086e-01 3.152323159369835537e+00
1.586837068035545917e-01 2.514420890484469595e+00
1.597242557002199748e-01 2.327737563748399907e+00
1.607648045968853578e-01 2.342336073303002308e+00
1.618053534935507409e-01 2.090790101556727620e+00
1.628459023902161240e-01 2.276234199014702142e+00
1.638864512868815071e-01 2.772350046081584196e+00
1.649270001835468902e-01 2.830779408465645020e+00
1.659675490802122733e-01 3.357140160565734277e+00
1.670080979768776563e-01 3.420178259483886762e+00
1.680486468735430672e-01 3.424229421521985728e+00
1.690891957702084503e-01 3.931426620610430689e+00
1.701297446668738333e-01 4.266511204365162513e+00
1.711702935635392164e-01 4.168428608576505212e+00
1.722108424602045995e-01 4.089234851036181340e+00
1.732513913568699826e-01 4.082619149890465593e+00
1.742919402535353657e-01 4.213683246271312299e+00
1.753324891502007488e-01 4.272082692369501444e+00
1.763730380468661318e-01 4.041726968859354230e+00
1.774135869435315149e-01 3.846693305317735678e+00
1.784541358401968980e-01 3.954730313968418898e+00
1.794946847368622811e-01 3.920985806534819318e+00
1.805352336335276642e-01 3.570688916875386809e+00
1.815757825301930473e-01 3.464156908739496998e+00
1.826163314268584303e-01 3.594531878707307726e+00
1.836568803235238134e-01 3.521464992459129917e+00
1.846974292201891965e-01 3.521657113137727890e+00
1.857379781168545796e-01 3.449395326366449410e+00
1.867785270135199627e-01 3.811874285964840681e+00
1.878190759101853458e-01 3.512598836488695753e+00
1.888596248068507288e-01 3.099373266949900341e+00
1.899001737035161119e-01 3.098938138785786833e+00
1.909407226001814950e-01 3.170051262506895284e+00
1.919812714968468781e-01 3.400649631577852716e+00
1.930218203935122612e-01 3.243727751787357505e+00
1.940623692901776443e-01 3.217044439119344901e+00
1.951029181868430273e-01 3.233955243019419612e+00
1.961434670835084104e-01 2.875262883400587555e+00
1.971840159801737935e-01 2.896767873953528749e+00
1.982245648768391766e-01 3.015574518430184980e+00
1.992651137735045597e-01 2.760681186461336978e+00
2.003056626701699428e-01 2.803226568400162932e+00
2.013462115668353813e-01 2.798661015719964951e+00
2.023867604635007644e-01 2.720273671849117392e+00
2.034273093601661475e-01 2.796744257649780963e+00
2.044678582568315306e-01 2.241171382027459913e+00
2.055084071534969137e-01 1.956017016812509723e+00
2.065489560501622968e-01 1.931001496763776970e+00
2.075895049468276798e-01 1.990903300987667990e+00
2.086300538434930629e-01 1.909413298886661892e+00
2.096706027401584460e-01 1.963208349520716212e+00
2.107111516368238291e-01 1.865019430955175750e+00
2.117517005334892122e-01 1.837285786664395459e+00
2.127922494301545953e-01 1.712002533157882311e+00
2.138327983268199783e-01 1.306695325717782907e+00
2.148733472234853614e-01 1.596729697533280756e+00
2.159138961201507445e-01 1.675764584919019029e+00
2.169544450168161276e-01 1.271392544515787648e+00
2.179949939134815107e-01 1.145626195058071062e+00
2.190355428101468938e-01 1.073388397730493438e+00
2.200760917068122768e-01 1.366055612277804698e+00
2.211166406034776599e-01 1.609714884953156400e+00
2.221571895001430430e-01 1.397931481566139666e+00
2.231977383968084261e-01 1.301513546867912652e+00
2.242382872934738092e-01 1.555099631760008094e+00
2.252788361901391923e-01 1.494869188230165236e+00
2.263193850868045753e-01 1.347127429946851862e+00
2.273599339834699584e-01 1.299439166475792717e+00
2.284004828801353415e-01 1.176937768776184612e+00
2.294410317768007246e-01 1.091764694310409567e+00
2.304815806734661077e-01 1.111006143432959448e+00
2.315221295701314908e-01 1.121109551101440616e+00
2.325626784667968738e-01 1.026159463589873866e+00
2.336032273634622569e-01 1.259801290281032493e+00
2.346437762601276400e-01 1.195567750376525851e+00
2.356843251567930231e-01 7.888326579414659534e-01
2.367248740534584062e-01 9.576800280695110246e-01
2.377654229501237892e-01 1.317663877429744446e+00
2.388059718467891723e-01 1.447864961844185672e+00
2.398465207434545554e-01 1.619486698303013839e+00
2.408870696401199385e-01 1.634288549926058209e+00
2.419276185367853216e-01 1.529809711356062252e+00
2.429681674334507047e-01 1.196821451863890218e+00
2.440087163301160877e-01 1.398213340425481732e+00
2.450492652267814708e-01 1.518397834275624803e+00
2.460898141234468539e-01 1.161702915773037859e+00
2.471303630201122370e-01 1.267425614660346866e+00
2.481709119167776201e-01 1.184996765450549105e+00
2.492114608134430032e-01 1.191050404064569079e+00
2.502520097101083585e-01 1.136782789893491241e+00
2.512925586067737416e-01 1.271098404685606198e+00
2.523331075034391247e-01 1.228313211758713663e+00
2.533736564001045077e-01 1.365925743495136402e+00
2.544142052967698908e-01 1.227125404038389433e+00
2.554547541934352739e-01 1.288026992046052754e+00
2.564953030901006570e-01 1.145638135518435519e+00
2.575358519867660401e-01 1.250203856675401681e+00
2.585764008834314231e-01 1.123983286451714747e+00
2.596169497800968062e-01 8.675060620349270835e-01
2.606574986767621893e-01 8.953465470971124773e-01
2.616980475734275724e-01 1.140974578613032975e+00
2.627385964700929555e-01 1.132652781866053004e+00
2.637791453667583386e-01 9.527938276445659938e-01
2.648196942634237216e-01 1.000830699282882819e+00
2.658602431600891047e-01 1.046354991963472258e+00
2.669007920567544878e-01 1.186694939419570716e+00
2.679413409534198709e-01 9.985878569148844974e-01
2.689818898500852540e-01 9.825251807294783646e-01
2.700224387467506371e-01 9.890528774910229970e-01
2.710629876434160201e-01 7.707426362104108364e-01
2.721035365400814032e-01 1.030541418122773223e+00
2.731440854367467863e-01 1.093162994728359649e+00
2.741846343334121694e-01 8.299188199671405641e-01
2.752251832300775525e-01 6.776576260627642512e-01
2.762657321267429356e-01 9.216638421606262455e-01
2.773062810234083186e-01 8.078416319624324160e-01
2.783468299200737017e-01 8.130198072024938938e-01
2.793873788167390848e-01 8.659922319002895108e-01
2.804279277134044679e-01 7.621055671746432836e-01
2.814684766100698510e-01 4.983381478941204534e-01
2.825090255067352341e-01 6.376665610515175331e-01
2.835495744034006171e-01 7.987833938166701842e-01
2.845901233000660002e-01 5.859848697009191199e-01
2.856306721967313833e-01 6.231468303701745981e-01
2.866712210933967664e-01 6.847244103963809891e-01
2.877117699900621495e-01 8.693582612492214423e-01
2.887523188867275326e-01 7.984394254297448867e-01
2.897928677833929156e-01 7.573008577292910104e-01
2.908334166800582987e-01 7.614178114236338502e-01
2.918739655767236818e-01 9.181682214763995376e-01
2.929145144733890649e-01 6.351545535633960071e-01
2.939550633700544480e-01 4.678268178852498238e-01
2.949956122667198311e-01 6.568068215195985715e-01
2.960361611633852141e-01 7.685505465684130399e-01
2.970767100600505972e-01 6.263580130202939245e-01
2.981172589567159803e-01 2.979629439957953707e-01
2.991578078533813634e-01 5.136997145893822392e-01
3.001983567500468020e-01 6.010059586196767611e-01
3.012389056467121851e-01 6.953356649353104046e-01
3.022794545433775681e-01 6.051071567026937714e-01
3.033200034400429512e-01 7.165478770345465875e-01
3.043605523367083343e-01 7.043945437234846452e-01
3.054011012333737174e-01 5.431635430415653332e-01
3.064416501300391005e-01 6.428915540921096294e-01
3.074821990267044836e-01 6.512671556072149315e-01
3.085227479233698666e-01 4.438927097054090609e-01
3.095632968200352497e-01 6.040751809777873405e-01
3.106038457167006328e-01 4.055365938110497837e-01
3.116443946133660159e-01 5.780061069786803785e-01
3.126849435100313990e-01 8.012341599911962930e-01
3.137254924066967821e-01 8.115819864882070078e-01
3.147660413033621651e-01 7.346602416122038903e-01
3.158065902000275482e-01 8.477756562369584969e-01
3.168471390966929313e-01 8.634007836032395744e-01
3.178876879933583144e-01 8.347105423769463073e-01
3.189282368900236975e-01 7.466279083669107308e-01
3.199687857866890806e-01 7.007819337067964227e-01
3.210093346833544636e-01 6.175885122994877463e-01
3.220498835800198467e-01 5.360994679106525496e-01
3.230904324766852298e-01 7.429417562848428247e-01
3.241309813733506129e-01 6.387786179253041041e-01
3.251715302700159960e-01 3.736167838814239417e-01
3.262120791666813790e-01 4.960372240517152420e-01
3.272526280633467621e-01 3.825651083136065722e-01
3.282931769600121452e-01 5.258246134612214462e-01
3.293337258566775283e-01 7.710593322733565458e-01
3.303742747533429114e-01 5.885355407346537504e-01
3.314148236500082945e-01 3.864900046646617682e-01
3.324553725466736775e-01 4.086094504787496362e-01
3.334959214433390606e-01 4.016067538576955087e-01
3.345364703400044437e-01 2.836822918027337437e-01
3.355770192366698268e-01 3.887396495898514104e-01
3.366175681333352099e-01 3.862618172184397736e-01
3.376581170300005930e-01 4.747529142890947185e-01
3.386986659266659760e-01 5.280468585449149543e-01
3.397392148233313591e-01 3.817483761907887185e-01
3.407797637199967422e-01 1.893676567504094521e-01
3.418203126166621253e-01 1.559578788240578717e-01
3.428608615133275084e-01 5.222457730216767402e-01
3.439014104099928915e-01 4.594199151460891528e-01
3.449419593066582745e-01 5.300507933755334022e-01
3.459825082033236576e-01 3.395855623652543898e-01
3.470230570999890407e-01 2.104546687020771856e-01
3.480636059966544238e-01 4.790212736754178025e-01
3.491041548933198069e-01 5.251229325317154917e-01
3.501447037899851900e-01 4.120238485266867201e-01
3.511852526866505730e-01 3.511017260558482178e-01
3.522258015833159561e-01 4.748015986665308219e-01
3.532663504799813392e-01 5.553649217209333244e-01
3.543068993766467223e-01 3.658153251860518651e-01
3.553474482733121054e-01 3.700839920843641551e-01
3.563879971699774885e-01 3.143194156596571531e-01
3.574285460666428715e-01 3.426322684456870604e-01
3.584690949633082546e-01 3.090811185137631867e-01
3.595096438599736377e-01 1.169313570311345529e-01
3.605501927566390208e-01 2.827096399708395325e-01
3.615907416533044039e-01 3.079753503766013978e-01
3.626312905499697870e-01 3.228477624962842185e-01
3.636718394466351700e-01 4.865652969260416683e-01
3.647123883433005531e-01 4.996543532273349797e-01
3.657529372399659362e-01 3.049979167933436486e-01
3.667934861366313193e-01 2.618312792138972611e-01
3.678340350332967024e-01 2.346515423832506997e-01
3.688745839299620854e-01 3.643653766973677932e-01
3.699151328266274685e-01 6.444900188033777511e-01
3.709556817232928516e-01 4.861223394407474530e-01
3.719962306199582347e-01 4.126173146654465995e-01
3.730367795166236178e-01 5.612103413265927543e-01
3.740773284132890009e-01 3.146391631598071115e-01
3.751178773099543839e-01 3.378705738088356725e-01
3.761584262066197670e-01 2.597199457530052769e-01
3.771989751032851501e-01 2.983043318468823202e-01
3.782395239999505332e-01 3.592720933071724687e-01
3.792800728966159163e-01 2.638651883121418962e-01
3.803206217932812994e-01 3.116539268114344452e-01
3.813611706899466824e-01 3.765418624218561661e-01
3.824017195866120655e-01 2.038400425931108373e-01
3.834422684832774486e-01 1.784636619280632885e-03
3.844828173799428317e-01 1.393495286177000025e-01
3.855233662766082148e-01 1.877136373532728442e-01
3.865639151732735979e-01 1.923004047916876402e-01
3.876044640699389809e-01 1.950459254271734721e-01
3.886450129666043640e-01 2.288429988095792567e-01
3.896855618632697471e-01 2.364011770787293187e-01
3.907261107599351302e-01 2.978647245999113125e-01
3.917666596566005133e-01 2.299589624194844362e-01
3.928072085532658964e-01 3.875677892713014216e-01
3.938477574499312794e-01 4.757026943307742783e-01
3.948883063465966625e-01 3.121286825245164209e-01
3.959288552432620456e-01 4.953703014742600885e-01
3.969694041399274287e-01 5.953943725884514038e-01
3.980099530365928118e-01 4.082765919038422453e-01
3.990505019332581949e-01 6.562002511719455811e-01
4.000910508299235779e-01 5.987430799113440116e-01
4.011315997265889610e-01 2.817669320999875993e-01
4.021721486232543441e-01 2.475463320156698899e-01
4.032126975199197272e-01 3.691171701861684085e-01
4.042532464165851103e-01 2.633391267930704771e-01
4.052937953132504934e-01 1.700134675079816304e-01
4.063343442099158764e-01 1.232620775278974179e-01
4.073748931065812595e-01 1.112747229887958156e-01
4.084154420032466426e-01 3.038226104168657571e-01
4.094559908999120257e-01 1.820011584440912600e-01
4.104965397965774088e-01 1.888108926076412786e-01
4.115370886932427918e-01 2.045211726963067633e-01
4.125776375899081749e-01 2.964548708715355474e-01
4.136181864865735580e-01 3.660633780217068534e-01
4.146587353832389411e-01 2.042334935215244229e-01
4.156992842799043242e-01 2.824011722657289170e-01
4.167398331765697073e-01 2.215680896539247158e-01
4.177803820732350903e-01 1.950167095802370909e-01
4.188209309699004734e-01 2.957715921164094652e-01
4.198614798665658565e-01 3.514775941159449246e-01
4.209020287632312396e-01 2.125616306654514176e-01
4.219425776598966227e-01 2.178075347027821351e-01
4.229831265565620058e-01 2.680374394191140652e-01
4.240236754532273888e-01 3.169226157722135895e-01
4.250642243498927719e-01 2.135829956690571407e-01
4.261047732465581550e-01 1.483921825264751249e-01
4.271453221432235381e-01 2.864010025466967591e-01
4.281858710398889212e-01 2.565465199917298378e-01
4.292264199365543043e-01 3.018470659871610451e-01
4.302669688332196873e-01 1.224579615933301113e-01
4.313075177298850704e-01 1.321077101354717342e-01
4.323480666265504535e-01 1.099069468636031388e-01
4.333886155232158366e-01 1.383815355001907221e-01
4.344291644198812197e-01 1.828605129626481585e-01
