# q (1/Angstrom), Intensity (arb)
2.029070354705860696e-02 2.459332665320309843e+02
2.133125244372399004e-02 2.144719063850848215e+02
2.237180134038937659e-02 1.926970153638476120e+02
2.341235023705475968e-02 1.680606776592166227e+02
2.445289913372014276e-02 1.524895815221583746e+02
2.549344803038552584e-02 1.388735060478637706e+02
2.653399692705091240e-02 1.295510581681718918e+02
2.757454582371629548e-02 1.207238404299371695e+02
2.861509472038167856e-02 1.128778315704621491e+02
2.965564361704706164e-02 1.069848002288780009e+02
3.069619251371244473e-02 1.037481829876435881e+02
3.173674141037782781e-02 1.001534755013149578e+02
3.277729030704321089e-02 9.549075525303913992e+01
3.381783920370859398e-02 9.183958133576020089e+01
3.485838810037397706e-02 9.070933926655943935e+01
3.589893699703936014e-02 8.852654640411331854e+01
3.693948589370474322e-02 8.766795551328132774e+01
3.798003479037012631e-02 8.578605222958860566e+01
3.902058368703550939e-02 8.677061662489488469e+01
4.006113258370089247e-02 8.794749777195698925e+01
4.110168148036627556e-02 8.932387312418779857e+01
4.214223037703165864e-02 9.151647032655732517e+01
4.318277927369704866e-02 9.456831867291964500e+01
4.422332817036243174e-02 9.746174279315752642e+01
4.526387706702781483e-02 1.031044463808636351e+02
4.630442596369319791e-02 1.098324013840541653e+02
4.734497486035858099e-02 1.175206003629837426e+02
4.838552375702396408e-02 1.294709541415695071e+02
4.942607265368934716e-02 1.450930127295157774e+02
5.046662155035473024e-02 1.653827439860850461e+02
5.150717044702011332e-02 1.941740107082426334e+02
5.254771934368549641e-02 2.448551861026120378e+02
5.358826824035087949e-02 3.310131134542593259e+02
5.462881713701626257e-02 4.618283473636068379e+02
5.566936603368164566e-02 6.509179727084166416e+02
5.670991493034702874e-02 9.003778901296681170e+02
5.775046382701241182e-02 1.130026469029327018e+03
5.879101272367779490e-02 1.232542523433439328e+03
5.983156162034317799e-02 1.180517695340207638e+03
6.087211051700856107e-02 1.043432974654377176e+03
6.191265941367394415e-02 8.736661270920069455e+02
6.295320831033933417e-02 7.125155838883468959e+02
6.399375720700471726e-02 5.737970715492590443e+02
6.503430610367010034e-02 4.571245746223822835e+02
6.607485500033548342e-02 3.652929677781385180e+02
6.711540389700086651e-02 2.916613193105280288e+02
6.815595279366624959e-02 2.292865582423695514e+02
6.919650169033163267e-02 1.780323201697435422e+02
7.023705058699701576e-02 1.366400259866266254e+02
7.127759948366239884e-02 1.043790693729604016e+02
7.231814838032778192e-02 7.791848699074182605e+01
7.335869727699316500e-02 5.801855829803153597e+01
7.439924617365854809e-02 4.400571898764393097e+01
7.543979507032393117e-02 3.494384755755828564e+01
7.648034396698931425e-02 2.858797860634500410e+01
7.752089286365469734e-02 2.318487581524620822e+01
7.856144176032008042e-02 1.994545401139443896e+01
7.960199065698546350e-02 1.742526968046627900e+01
8.064253955365084658e-02 1.621871497852623634e+01
8.168308845031622967e-02 1.446989588435890539e+01
8.272363734698161275e-02 1.376406142635468655e+01
8.376418624364699583e-02 1.368790785785006392e+01
8.480473514031239279e-02 1.310921904308430896e+01
8.584528403697777588e-02 1.366515218069178417e+01
8.688583293364315896e-02 1.449929660127102693e+01
8.792638183030854204e-02 1.545221357805857565e+01
8.896693072697392513e-02 1.694342292574307152e+01
9.000747962363930821e-02 1.991479272065895145e+01
9.104802852030469129e-02 2.428928057193203216e+01
9.208857741697007437e-02 3.083938706096540727e+01
9.312912631363545746e-02 4.017668097242090397e+01
9.416967521030084054e-02 5.019309212624678906e+01
9.521022410696622362e-02 5.634248199155938153e+01
9.625077300363160671e-02 5.933695578641093249e+01
9.729132190029698979e-02 5.966748887476849461e+01
9.833187079696237287e-02 5.858694053303403138e+01
9.937241969362775595e-02 5.603524368343347106e+01
1.004129685902931390e-01 5.291165038131871512e+01
1.014535174869585221e-01 5.070660162187986231e+01
1.024940663836239052e-01 4.736661420110711163e+01
1.035346152802892883e-01 4.491031953563026491e+01
1.045751641769546714e-01 4.326780872118898458e+01
1.056157130736200545e-01 4.295912904090282325e+01
1.066562619702854375e-01 4.386781024929902628e+01
1.076968108669508206e-01 4.627130022805594223e+01
1.087373597636162037e-01 5.084211926484339017e+01
1.097779086602815868e-01 5.655748536147669370e+01
1.108184575569469699e-01 5.998805240096312019e+01
1.118590064536123529e-01 6.047437853269710217e+01
1.128995553502777360e-01 5.942402454793853650e+01
1.139401042469431191e-01 5.742843943945147345e+01
1.149806531436085022e-01 5.452220980019829710e+01
1.160212020402738853e-01 4.942003883511289786e+01
1.170617509369392684e-01 4.482712642970236772e+01
1.181022998336046514e-01 3.961293566998604376e+01
1.191428487302700345e-01 3.451950741441222448e+01
1.201833976269354176e-01 2.938918126719902801e+01
1.212239465236008007e-01 2.563936006393074507e+01
1.222644954202661838e-01 2.164412845725608747e+01
1.233050443169315669e-01 1.832240164215498623e+01
1.243455932135969499e-01 1.515724610926896077e+01
1.253861421102623330e-01 1.311438315943110666e+01
1.264266910069277161e-01 1.082542596985586414e+01
1.274672399035930992e-01 9.359878065670315550e+00
1.285077888002584823e-01 7.794950282348430903e+00
1.295483376969238654e-01 6.576442091321162309e+00
1.305888865935892484e-01 6.162500723399652713e+00
1.316294354902546315e-01 5.587266109222348121e+00
1.326699843869200146e-01 4.660419907529778527e+00
1.337105332835853977e-01 4.081505042718660548e+00
1.347510821802507808e-01 4.196987169766707382e+00
1.357916310769161639e-01 4.384015938465211093e+00
1.368321799735815469e-01 4.100967372489328966e+00
1.378727288702469300e-01 3.894043310715424866e+00
1.389132777669123131e-01 4.219617207395351954e+00
1.399538266635776962e-01 4.493437850555032753e+00
1.409943755602430793e-01 4.591446855097480295e+00
1.420349244569084624e-01 5.238151969017451393e+00
1.430754733535738454e-01 6.132966268249120390e+00
1.441160222502392285e-01 6.774634462310515914e+00
1.451565711469046116e-01 8.177523922037906345e+00
1.461971200435699947e-01 9.605139888698765560e+00
1.472376689402353778e-01 1.061128573316852908e+01
1.482782178369007609e-01 1.168118136035830190e+01
1.493187667335661439e-01 1.215601666343282261e+01
1.503593156302315270e-01 1.211073305330189953e+01
1.513998645268969101e-01 1.156326392135785142e+01
1.524404134235622932e-01 1.084098744913213608e+01
1.534809623202276763e-01 1.081865624312837326e+01
1.545215112168930593e-01 1.051866565310628232e+01
1.555620601135584424e-01 9.951107480033556385e+00
1.566026090102238255e-01 9.083984757798567955e+00
1.576431579068892086e-01 8.536944488401175590e+00
1.586837068035545917e-01 8.263238533677700559e+00
1.597242557002199748e-01 8.057888962452317116e+00
1.607648045968853578e-01 7.877193845589403054e+00
1.618053534935507409e-01 7.784382581541358093e+00
1.628459023902161240e-01 7.780252402386963695e+00
1.638864512868815071e-01 7.664791776923365774e+00
1.649270001835468902e-01 7.332041485738912456e+00
1.659675490802122733e-01 6.715757503659432359e+00
1.670080979768776563e-01 6.534888817885530443e+00
1.680486468735430672e-01 5.768329271739837338e+00
1.690891957702084503e-01 5.809464994064825305e+00
1.701297446668738333e-01 6.022570011122347466e+00
1.711702935635392164e-01 5.839344099318665826e+00
1.722108424602045995e-01 5.352452684790179660e+00
1.732513913568699826e-01 5.102472358253130835e+00
1.742919402535353657e-01 5.015680827608768766e+00
1.753324891502007488e-01 4.191200256213534203e+00
1.763730380468661318e-01 4.099363500858487441e+00
1.774135869435315149e-01 3.809820056086280715e+00
1.784541358401968980e-01 3.523384691151171921e+00
1.794946847368622811e-01 3.344980554003569750e+00
1.805352336335276642e-01 3.075153540621229808e+00
1.815757825301930473e-01 3.041413297656198722e+00
1.826163314268584303e-01 3.018528298642777941e+00
1.836568803235238134e-01 2.578056065419765730e+00
1.846974292201891965e-01 2.146957657728513880e+00
1.857379781168545796e-01 2.051696541680726682e+00
1.867785270135199627e-01 1.938835344955613493e+00
1.878190759101853458e-01 2.239649796957344563e+00
1.888596248068507288e-01 2.077440637590171946e+00
1.899001737035161119e-01 2.018301540290803331e+00
1.909407226001814950e-01 1.683744304948575632e+00
1.919812714968468781e-01 1.646894746419818034e+00
1.930218203935122612e-01 1.931094818040442362e+00
1.940623692901776443e-01 2.092098802575169003e+00
1.951029181868430273e-01 2.094985914303883590e+00
1.961434670835084104e-01 2.627009778210410929e+00
1.971840159801737935e-01 2.691535430431553522e+00
1.982245648768391766e-01 3.100490852429018673e+00
1.992651137735045597e-01 3.235637175678167665e+00
2.003056626701699428e-01 3.211276632958167454e+00
2.013462115668353813e-01 3.027266456233025593e+00
2.023867604635007644e-01 2.730544225783415158e+00
2.034273093601661475e-01 2.577820518482148771e+00
2.044678582568315306e-01 2.710374670281602505e+00
2.055084071534969137e-01 2.728895096632200534e+00
2.065489560501622968e-01 2.316355315686280392e+00
2.075895049468276798e-01 2.173434790668881789e+00
2.086300538434930629e-01 2.363623101953329808e+00
2.096706027401584460e-01 2.383160991193399525e+00
2.107111516368238291e-01 2.400658787445784981e+00
2.117517005334892122e-01 2.371066480109881525e+00
2.127922494301545953e-01 2.456129330894217588e+00
2.138327983268199783e-01 2.403493700353450890e+00
2.148733472234853614e-01 2.334531104196400975e+00
2.159138961201507445e-01 2.362931910475456476e+00
2.169544450168161276e-01 2.268163569188164530e+00
2.179949939134815107e-01 2.119221283355539498e+00
2.190355428101468938e-01 2.217257034210248889e+00
2.200760917068122768e-01 2.448300761198918707e+00
2.211166406034776599e-01 2.140497875321511145e+00
2.221571895001430430e-01 2.055550703593315376e+00
2.231977383968084261e-01 1.931318670782918190e+00
2.242382872934738092e-01 2.011574532940933580e+00
2.252788361901391923e-01 1.918832047259453333e+00
2.263193850868045753e-01 1.751375738437630503e+00
2.273599339834699584e-01 1.574725860560587165e+00
2.284004828801353415e-01 1.574835111101140939e+00
2.294410317768007246e-01 1.624084548534316497e+00
2.304815806734661077e-01 1.512093408454479260e+00
2.315221295701314908e-01 1.302325438373323152e+00
2.325626784667968738e-01 1.074420150755855730e+00
2.336032273634622569e-01 8.985616670946292572e-01
2.346437762601276400e-01 9.181379952970871727e-01
2.356843251567930231e-01 1.387457570181894084e+00
2.367248740534584062e-01 1.525348431275158845e+00
2.377654229501237892e-01 1.170414187239067871e+00
2.388059718467891723e-01 9.865143133817220189e-01
2.398465207434545554e-01 1.138951935275425598e+00
2.408870696401199385e-01 1.076299507819324930e+00
2.419276185367853216e-01 1.185714221992391515e+00
2.429681674334507047e-01 1.218933497636040642e+00
2.440087163301160877e-01 7.553763325699307529e-01
2.450492652267814708e-01 6.194127416284658239e-01
2.460898141234468539e-01 7.818237280498436803e-01
2.471303630201122370e-01 9.662651559554404912e-01
2.481709119167776201e-01 1.076227590380078425e+00
2.492114608134430032e-01 9.442526229466636778e-01
2.502520097101083585e-01 1.112261384058768954e+00
2.512925586067737416e-01 1.260264097342538747e+00
2.523331075034391247e-01 1.329093574110668641e+00
2.533736564001045077e-01 1.257750973107700787e+00
2.544142052967698908e-01 1.142621762834103549e+00
2.554547541934352739e-01 1.099211819697998749e+00
2.564953030901006570e-01 1.169639996900116330e+00
2.575358519867660401e-01 1.142822151665889407e+00
2.585764008834314231e-01 1.001799114258222545e+00
2.596169497800968062e-01 9.133518706669754295e-01
2.606574986767621893e-01 1.237832606520349543e+00
2.616980475734275724e-01 1.595597482884503648e+00
2.627385964700929555e-01 1.045376857342194654e+00
2.637791453667583386e-01 6.107381500381627859e-01
2.648196942634237216e-01 8.641659631276965570e-01
2.658602431600891047e-01 1.113796919898639715e+00
2.669007920567544878e-01 1.430487268416168689e+00
2.679413409534198709e-01 1.052399253908198773e+00
2.689818898500852540e-01 8.177285606880246860e-01
2.700224387467506371e-01 8.107382778916409904e-01
2.710629876434160201e-01 6.834591718182423392e-01
2.721035365400814032e-01 7.218224044176366760e-01
2.731440854367467863e-01 6.979858817298705276e-01
2.741846343334121694e-01 1.103160752128026445e+00
2.752251832300775525e-01 1.288889232164752485e+00
2.762657321267429356e-01 1.147779647904105360e+00
2.773062810234083186e-01 9.099424695428872667e-01
2.783468299200737017e-01 1.068273506573671483e+00
2.793873788167390848e-01 1.204835253008511131e+00
2.804279277134044679e-01 1.057563039606979061e+00
2.814684766100698510e-01 9.032570295720745435e-01
2.825090255067352341e-01 7.494776763355019966e-01
2.835495744034006171e-01 6.675883959608235330e-01
2.845901233000660002e-01 8.128035432601699029e-01
2.856306721967313833e-01 8.599254531702911208e-01
2.866712210933967664e-01 7.483776511040751700e-01
2.877117699900621495e-01 7.590612491565060793e-01
2.887523188867275326e-01 6.966874397429414500e-01
2.897928677833929156e-01 8.574361416714459949e-01
2.908334166800582987e-01 7.162571223096172446e-01
2.918739655767236818e-01 4.992861064505760282e-01
2.929145144733890649e-01 6.149982032155953959e-01
2.939550633700544480e-01 7.422331438876028642e-01
2.949956122667198311e-01 9.007787870941648123e-01
2.960361611633852141e-01 3.649471023780144208e-01
2.970767100600505972e-01 5.133704825581020259e-02
2.981172589567159803e-01 5.588598548321250803e-01
2.991578078533813634e-01 3.974587645229092914e-01
3.001983567500468020e-01 2.157962317805512953e-01
3.012389056467121851e-01 4.184424320160324839e-01
3.022794545433775681e-01 7.715199628952582600e-01
3.033200034400429512e-01 6.946608729600747267e-01
3.043605523367083343e-01 7.880598022319418305e-01
3.054011012333737174e-01 6.960782232351050425e-01
3.064416501300391005e-01 7.569885191079954723e-01
3.074821990267044836e-01 7.110719019223168402e-01
3.085227479233698666e-01 4.795125730867439984e-01
3.095632968200352497e-01 7.142656270064549062e-01
3.106038457167006328e-01 5.779006262634638347e-01
3.116443946133660159e-01 4.976877460149147225e-01
3.126849435100313990e-01 7.860168534855382916e-01
3.137254924066967821e-01 7.420810921690197404e-01
3.147660413033621651e-01 2.274072639806199447e-01
3.158065902000275482e-01 6.439597534932346434e-01
3.168471390966929313e-01 7.339736213959753286e-01
3.178876879933583144e-01 4.006491661119753189e-01
3.189282368900236975e-01 6.241402352625549099e-01
3.199687857866890806e-01 5.842637050545604893e-01
3.210093346833544636e-01 3.790840051209727335e-01
3.220498835800198467e-01 4.755819988858291936e-01
3.230904324766852298e-01 5.622165781813315277e-01
3.241309813733506129e-01 4.231299302051390043e-01
3.251715302700159960e-01 5.631310762770986855e-01
3.262120791666813790e-01 8.089251309524350120e-01
3.272526280633467621e-01 7.324062960085484519e-01
3.282931769600121452e-01 7.265610244263065454e-01
3.293337258566775283e-01 5.171966755348513800e-01
3.303742747533429114e-01 4.499768095280565205e-01
3.314148236500082945e-01 4.661855944170447685e-01
3.324553725466736775e-01 5.315461511315362486e-01
3.334959214433390606e-01 5.955703019202829296e-01
3.345364703400044437e-01 4.587904239880877810e-01
3.355770192366698268e-01 3.471418261394951799e-01
3.366175681333352099e-01 4.765999875306441425e-01
3.376581170300005930e-01 2.811740934712148032e-01
3.386986659266659760e-01 3.812426223187834751e-01
3.397392148233313591e-01 7.310447731976452701e-01
3.407797637199967422e-01 5.248126681121760839e-01
3.418203126166621253e-01 4.810312522024915438e-01
3.428608615133275084e-01 4.212870213758073135e-01
3.439014104099928915e-01 1.839502778661419313e-01
3.449419593066582745e-01 8.402535207620687174e-02
3.459825082033236576e-01 2.752562221138532550e-01
3.470230570999890407e-01 4.232206162562093255e-01
3.480636059966544238e-01 5.951792797308357308e-01
3.491041548933198069e-01 4.440496689862740709e-01
3.501447037899851900e-01 5.983871781529508382e-01
3.511852526866505730e-01 4.933173646261579393e-01
3.522258015833159561e-01 4.696384400298860839e-01
3.532663504799813392e-01 3.453809506331744217e-01
3.543068993766467223e-01 3.163052410815971882e-01
3.553474482733121054e-01 3.682542494147185153e-01
3.563879971699774885e-01 4.028002421850125359e-01
3.574285460666428715e-01 4.316816770561899830e-01
3.584690949633082546e-01 5.280071601123097480e-01
3.595096438599736377e-01 5.064274024251069761e-01
3.605501927566390208e-01 0.000000000000000000e+00
3.615907416533044039e-01 2.706392597864812899e-01
3.626312905499697870e-01 4.862096051054010104e-01
3.636718394466351700e-01 3.338586256952886799e-01
3.647123883433005531e-01 3.128551627499618348e-01
3.657529372399659362e-01 4.200109499919122413e-01
3.667934861366313193e-01 2.774815622026132189e-01
3.678340350332967024e-01 4.122556317649959112e-01
3.688745839299620854e-01 3.284483963750233215e-01
3.699151328266274685e-01 4.242188762921550449e-01
3.709556817232928516e-01 3.413123189691091852e-01
3.719962306199582347e-01 4.014759677453874076e-01
3.730367795166236178e-01 5.421358763619359422e-01
3.740773284132890009e-01 5.052344232909860011e-01
3.751178773099543839e-01 4.426639093185187335e-01
3.761584262066197670e-01 4.169026192059845926e-01
3.771989751032851501e-01 4.763054393728936020e-01
3.782395239999505332e-01 3.259677388494495176e-01
3.792800728966159163e-01 2.266910278914906485e-01
3.803206217932812994e-01 1.416436831015062126e-01
3.813611706899466824e-01 1.802015313815807929e-01
3.824017195866120655e-01 3.790980671612160791e-01
3.834422684832774486e-01 3.060652156039189720e-01
3.844828173799428317e-01 2.893107444546991758e-01
3.855233662766082148e-01 2.743327289708901162e-01
3.865639151732735979e-01 1.484947114295103177e-01
3.876044640699389809e-01 3.756722469839921530e-01
3.886450129666043640e-01 6.074329515803427171e-01
3.896855618632697471e-01 4.151576465450013131e-01
3.907261107599351302e-01 5.110127517851985601e-01
3.917666596566005133e-01 5.328405298023888292e-01
3.928072085532658964e-01 4.961369619644138140e-01
3.938477574499312794e-01 4.606669857759655429e-01
3.948883063465966625e-01 4.390294833944743402e-01
3.959288552432620456e-01 4.500103315809624860e-01
3.969694041399274287e-01 4.275474054486778641e-01
3.980099530365928118e-01 3.705064865541309871e-01
3.990505019332581949e-01 3.476648612229951141e-01
4.000910508299235779e-01 5.922678388308533215e-01
4.011315997265889610e-01 7.574761932401052889e-01
4.021721486232543441e-01 4.899932457267475172e-01
4.032126975199197272e-01 2.250231782645997214e-01
4.042532464165851103e-01 3.294764456459162716e-01
4.052937953132504934e-01 4.153529244290012912e-01
4.063343442099158764e-01 4.970104975715621265e-01
4.073748931065812595e-01 5.027306615161784009e-01
4.084154420032466426e-01 3.709433366235934670e-01
4.094559908999120257e-01 3.068264445856030420e-01
4.104965397965774088e-01 4.252836174811456260e-01
4.115370886932427918e-01 6.318880294992581526e-01
4.125776375899081749e-01 7.338200498057751986e-01
4.136181864865735580e-01 3.575976466562735823e-01
4.146587353832389411e-01 1.286694047356249371e-01
4.156992842799043242e-01 2.631402370997122375e-01
4.167398331765697073e-01 4.020564350695430278e-01
4.177803820732350903e-01 3.986451937570514303e-01
4.188209309699004734e-01 4.052690909633120953e-01
4.198614798665658565e-01 1.932700671260931813e-01
4.209020287632312396e-01 4.177176451922974820e-01
4.219425776598966227e-01 4.948830768098169131e-01
4.229831265565620058e-01 3.609324548404693189e-01
4.240236754532273888e-01 5.321677800818278570e-01
4.250642243498927719e-01 6.077354347342733831e-01
4.261047732465581550e-01 4.527608445893989142e-01
4.271453221432235381e-01 3.298030246565168966e-01
4.281858710398889212e-01 4.427605342385092513e-01
4.292264199365543043e-01 4.601411944814728372e-01
4.302669688332196873e-01 4.830689449378589018e-01
4.313075177298850704e-01 4.029555115499086071e-01
4.323480666265504535e-01 3.793974299259907923e-01
4.333886155232158366e-01 5.617524999897973714e-01
4.344291644198812197e-01 7.014311154482903987e-01
