# q (1/angstrom), Intensity (arb)
2.064195147861814378e-02 3.937252259483193484e+02
2.170051308966736495e-02 4.364996519606195307e+02
2.275907470071658611e-02 4.606697915319199410e+02
2.381763631176580728e-02 4.738717775793462010e+02
2.487619792281502498e-02 4.825467993931297315e+02
2.593475953386424615e-02 4.976240460370451615e+02
2.699332114491346385e-02 5.058882114271136743e+02
2.805188275596268849e-02 5.095608128763305444e+02
2.911044436701190619e-02 5.079331668897911527e+02
3.016900597806112735e-02 5.039199127057115675e+02
3.122756758911034505e-02 4.997539936126143516e+02
3.228612920015957316e-02 4.936474924596014944e+02
3.334469081120879086e-02 4.878240189102912723e+02
3.440325242225800856e-02 4.844419938686799583e+02
3.546181403330722626e-02 4.812357674946833868e+02
3.652037564435644396e-02 4.746754281107345150e+02
3.757893725540567553e-02 4.670823063810792632e+02
3.863749886645489323e-02 4.612190452476161795e+02
3.969606047750411093e-02 4.572851473669530264e+02
4.075462208855332863e-02 4.498193247180829530e+02
4.181318369960255327e-02 4.420979669499836291e+02
4.287174531065177097e-02 4.350571698291520306e+02
4.393030692170099560e-02 4.300982068965233225e+02
4.498886853275021330e-02 4.244621833310104648e+02
4.604743014379943100e-02 4.160783366177673770e+02
4.710599175484865564e-02 4.078076217622257786e+02
4.816455336589787334e-02 3.996055585838440720e+02
4.922311497694709104e-02 3.919482994803572069e+02
5.028167658799630874e-02 3.863268609612032378e+02
5.134023819904553337e-02 3.788350848343543475e+02
5.239879981009475801e-02 3.743956319697727508e+02
5.345736142114396877e-02 3.671603119919482765e+02
5.451592303219319341e-02 3.591916038321604105e+02
5.557448464324241805e-02 3.527222743879287918e+02
5.663304625429163575e-02 3.436630686527511784e+02
5.769160786534086038e-02 3.352925485037135331e+02
5.875016947639008502e-02 3.292319166103851558e+02
5.980873108743929578e-02 3.216390064763764940e+02
6.086729269848852042e-02 3.131828157414043972e+02
6.192585430953773118e-02 3.059383819082614195e+02
6.298441592058695582e-02 2.995818156693650280e+02
6.404297753163618045e-02 2.926408085384614992e+02
6.510153914268539121e-02 2.846179536407370279e+02
6.616010075373461585e-02 2.761051971995313465e+02
6.721866236478384049e-02 2.699257345423682750e+02
6.827722397583306513e-02 2.629420696198940277e+02
6.933578558688228977e-02 2.578157423820940153e+02
7.039434719793150053e-02 2.514267742702142527e+02
7.145290880898072516e-02 2.443121696259354962e+02
7.251147042002993592e-02 2.368247983511009238e+02
7.357003203107916056e-02 2.290074304561137808e+02
7.462859364212838520e-02 2.217479976990190380e+02
7.568715525317759596e-02 2.138495654696744452e+02
7.674571686422682060e-02 2.079662613827984785e+02
7.780427847527604523e-02 2.019198532135785058e+02
7.886284008632526987e-02 1.962309481796366981e+02
7.992140169737449451e-02 1.896836745461183398e+02
8.097996330842370527e-02 1.828383030723279319e+02
8.203852491947292991e-02 1.759284649557799582e+02
8.309708653052215455e-02 1.703550523969491621e+02
8.415564814157136531e-02 1.646137318380608860e+02
8.521420975262058994e-02 1.590520120218629643e+02
8.627277136366980070e-02 1.525847176021863731e+02
8.733133297471902534e-02 1.473213720257344903e+02
8.838989458576824998e-02 1.417747667655004307e+02
8.944845619681746074e-02 1.364532624856293808e+02
9.050701780786668538e-02 1.313774511602634902e+02
9.156557941891591001e-02 1.262936899261068220e+02
9.262414102996513465e-02 1.209785141484936020e+02
9.368270264101435929e-02 1.154489601881968497e+02
9.474126425206357005e-02 1.103834945470295992e+02
9.579982586311279469e-02 1.062266720377070612e+02
9.685838747416200545e-02 1.012113733082546077e+02
9.791694908521123009e-02 9.638484161335775013e+01
9.897551069626045472e-02 9.238053326111017327e+01
1.000340723073096516e-01 8.870771362010580674e+01
1.010926339183588762e-01 8.453401452065982369e+01
1.021511955294081009e-01 8.104546590792887173e+01
1.032097571404573255e-01 7.789021847349023631e+01
1.042683187515065502e-01 7.335424439612435776e+01
1.053268803625557748e-01 6.936901156759012110e+01
1.063854419736049856e-01 6.534958130870518289e+01
1.074440035846542102e-01 6.243305223088185585e+01
1.085025651957034348e-01 5.893405044759223443e+01
1.095611268067526595e-01 5.525687733931150092e+01
1.106196884178018841e-01 5.354611681123979139e+01
1.116782500288510810e-01 5.010182726005741927e+01
1.127368116399003056e-01 4.693541612625830339e+01
1.137953732509495303e-01 4.457262989054278535e+01
1.148539348619987549e-01 4.277991903251857764e+01
1.159124964730479795e-01 4.004478352700363075e+01
1.169710580840972042e-01 3.765637513295426686e+01
1.180296196951464149e-01 3.585941926806724211e+01
1.190881813061956396e-01 3.366700354807821327e+01
1.201467429172448642e-01 3.087158252462881691e+01
1.212053045282940889e-01 2.865756477384648448e+01
1.222638661393433135e-01 2.673756941101391149e+01
1.233224277503925104e-01 2.553434807129191952e+01
1.243809893614417350e-01 2.371419834149539341e+01
1.254395509724909596e-01 2.200960426121474711e+01
1.264981125835401843e-01 2.063454966112641742e+01
1.275566741945894089e-01 1.936622777490714498e+01
1.286152358056386058e-01 1.752922177222321309e+01
1.296737974166878304e-01 1.635907287439107449e+01
1.307323590277370551e-01 1.548992527749064507e+01
1.317909206387862797e-01 1.444254735221694474e+01
1.328494822498355044e-01 1.362436124549334338e+01
1.339080438608847012e-01 1.273199554779196774e+01
1.349666054719339259e-01 1.166143583933051175e+01
1.360251670829831505e-01 1.022687598903302586e+01
1.370837286940323752e-01 9.396589960033463029e+00
1.381422903050815998e-01 8.829235080037243222e+00
1.392008519161308244e-01 8.203537176948678677e+00
1.402594135271800491e-01 7.288623327236205540e+00
1.413179751382292737e-01 6.721965152967467105e+00
1.423765367492784983e-01 6.654878325704327580e+00
1.434350983603277230e-01 6.036412996537688258e+00
1.444936599713769199e-01 5.290948610162256927e+00
1.455522215824261445e-01 4.908376472848793526e+00
1.466107831934753691e-01 4.468542385276364826e+00
1.476693448045245938e-01 4.493343085792599112e+00
1.487279064155738184e-01 3.708865647710798186e+00
1.497864680266230153e-01 3.445662975345261003e+00
1.508450296376722399e-01 3.134553900195999887e+00
1.519035912487214646e-01 3.083322799580844986e+00
1.529621528597706892e-01 3.163216911789618280e+00
1.540207144708199138e-01 3.181097265344664748e+00
1.550792760818691107e-01 3.129354938276428300e+00
1.561378376929183354e-01 2.669241464352317905e+00
1.571963993039675600e-01 2.431319060444991464e+00
1.582549609150167846e-01 2.334860919529102574e+00
1.593135225260660093e-01 2.478505457442008009e+00
1.603720841371152339e-01 2.248484442359846014e+00
1.614306457481644586e-01 2.113604250487128411e+00
1.624892073592136832e-01 2.379202071278719188e+00
1.635477689702629078e-01 2.090806659432580261e+00
1.646063305813121325e-01 2.348376395478016576e+00
1.656648921923613571e-01 2.244287412875472398e+00
1.667234538034105540e-01 2.197754333728024534e+00
1.677820154144597786e-01 2.391577084410084097e+00
1.688405770255090033e-01 2.538666011511626408e+00
1.698991386365582279e-01 2.514524771212244048e+00
1.709577002476074525e-01 2.834424231712709741e+00
1.720162618586566494e-01 2.637950519731269594e+00
1.730748234697058741e-01 2.334908512061879549e+00
1.741333850807550987e-01 2.443584615978078745e+00
1.751919466918043233e-01 2.768620570493499855e+00
1.762505083028535480e-01 3.055182325633648333e+00
1.773090699139027449e-01 2.867326038005455047e+00
1.783676315249519695e-01 2.923824428824531196e+00
1.794261931360011941e-01 2.752542304149880437e+00
1.804847547470504188e-01 3.178476232319706440e+00
1.815433163580996434e-01 3.465764039559577014e+00
1.826018779691488403e-01 3.117164267173631487e+00
1.836604395801980649e-01 3.255078184003600938e+00
1.847190011912472896e-01 3.485607638989591806e+00
1.857775628022965142e-01 3.492086149127960226e+00
1.868361244133457388e-01 3.505233570065385607e+00
1.878946860243949635e-01 3.625726137009806394e+00
1.889532476354441881e-01 3.613246023407441498e+00
1.900118092464934128e-01 3.600345974492562107e+00
1.910703708575426374e-01 3.735527942639606636e+00
1.921289324685918620e-01 3.525175509040803234e+00
1.931874940796410589e-01 3.524871952864156555e+00
1.942460556906902835e-01 3.676338267633269652e+00
1.953046173017395082e-01 3.701945280075634059e+00
1.963631789127887328e-01 3.659490669398341112e+00
1.974217405238379575e-01 3.712052512881481192e+00
1.984803021348871543e-01 3.737067444214911660e+00
1.995388637459363790e-01 3.603177562088884400e+00
2.005974253569856036e-01 3.557044510778375468e+00
2.016559869680347727e-01 4.003978729247524626e+00
2.027145485790839974e-01 4.010455817992813365e+00
2.037731101901332220e-01 3.603010753156144830e+00
2.048316718011824467e-01 3.629168702966051541e+00
2.058902334122316713e-01 3.710764419618048038e+00
2.069487950232808959e-01 3.455914383249687916e+00
2.080073566343301206e-01 3.483404911564466744e+00
2.090659182453793452e-01 3.376975626666428809e+00
2.101244798564285698e-01 3.608530925061106842e+00
2.111830414674777945e-01 3.640217344992656479e+00
2.122416030785269914e-01 3.414027123334101077e+00
2.133001646895762160e-01 3.154136901466952025e+00
2.143587263006254406e-01 3.145919556417155150e+00
2.154172879116746653e-01 3.132684724858656011e+00
2.164758495227238899e-01 3.155954986287675013e+00
2.175344111337731146e-01 3.325392023226680038e+00
2.185929727448223392e-01 3.130868542429954715e+00
2.196515343558715638e-01 2.926427305923628097e+00
2.207100959669207885e-01 2.782448320345469739e+00
2.217686575779700131e-01 2.791059189666412976e+00
2.228272191890191822e-01 3.089977969957484305e+00
2.238857808000684069e-01 2.596656698829601595e+00
2.249443424111176315e-01 2.387685776043362296e+00
2.260029040221668561e-01 2.593895183918302649e+00
2.270614656332160808e-01 2.632072382241432251e+00
2.281200272442653054e-01 2.399091442350055559e+00
2.291785888553145301e-01 2.186955570824597572e+00
2.302371504663637547e-01 2.393118862419633786e+00
2.312957120774129793e-01 2.377944698590784611e+00
2.323542736884622040e-01 2.378622347740204646e+00
2.334128352995114286e-01 2.425331730150944054e+00
2.344713969105606255e-01 2.245037952634447720e+00
2.355299585216098501e-01 1.889065707856246945e+00
2.365885201326590748e-01 2.212064372732747586e+00
2.376470817437082994e-01 2.120202614031800437e+00
2.387056433547575240e-01 1.797003251095414811e+00
2.397642049658067487e-01 1.586062848699498318e+00
2.408227665768559733e-01 1.348843776645086479e+00
2.418813281879051980e-01 1.370627482897543103e+00
2.429398897989544226e-01 1.619139842721097011e+00
2.439984514100036472e-01 1.772389562158984688e+00
2.450570130210528164e-01 1.477196681841583370e+00
2.461155746321020410e-01 1.307178292804561437e+00
2.471741362431512656e-01 1.424040928657163363e+00
2.482326978542004903e-01 1.599945859757919919e+00
2.492912594652497149e-01 1.562698479861431622e+00
2.503498210762989395e-01 1.350102488578361459e+00
2.514083826873481642e-01 2.058165852890709857e+00
2.524669442983973888e-01 1.814860171677324274e+00
2.535255059094466135e-01 1.428109042908467075e+00
2.545840675204958381e-01 1.139417300718591264e+00
2.556426291315450072e-01 1.229964579477684339e+00
2.567011907425942319e-01 1.171013176536174427e+00
2.577597523536434565e-01 7.493337004032412096e-01
2.588183139646926811e-01 5.387656763549735217e-01
2.598768755757419058e-01 9.139857523400216621e-01
2.609354371867911304e-01 1.093695381424101498e+00
2.619939987978403551e-01 1.005484882261697521e+00
2.630525604088895797e-01 8.536066886738993276e-01
2.641111220199388043e-01 7.259816011373558808e-01
2.651696836309880290e-01 5.859123275649906759e-01
2.662282452420371981e-01 7.720735534786129506e-01
2.672868068530864227e-01 9.012874183272501227e-01
2.683453684641356474e-01 8.110091747918630745e-01
2.694039300751848720e-01 8.551121109238728479e-01
2.704624916862340966e-01 8.002718630807343914e-01
2.715210532972833213e-01 8.089530553406767410e-01
2.725796149083325459e-01 8.758981088314072849e-01
2.736381765193817706e-01 7.413945273177589002e-01
2.746967381304309952e-01 1.026389806378421810e+00
2.757552997414802198e-01 1.214404890120789560e+00
2.768138613525294445e-01 7.550894777659102886e-01
2.778724229635786691e-01 8.059284086624778354e-01
2.789309845746278937e-01 7.548612465230526425e-01
2.799895461856771184e-01 6.995063066397051443e-01
2.810481077967263430e-01 9.345484527100929029e-01
2.821066694077755677e-01 5.932805308795430221e-01
2.831652310188247923e-01 3.416460601101505290e-01
2.842237926298740169e-01 6.195092325422528745e-01
2.852823542409232416e-01 6.124546054206021495e-01
2.863409158519724662e-01 7.378366813541568092e-01
2.873994774630216908e-01 8.326425805912229805e-01
2.884580390740708600e-01 5.927606684926409741e-01
2.895166006851200846e-01 6.574407816539071803e-01
2.905751622961693093e-01 6.810980523902969708e-01
2.916337239072185339e-01 6.795169315404123722e-01
2.926922855182677585e-01 4.725706084141485519e-01
2.937508471293169832e-01 3.356294147078386914e-01
2.948094087403662078e-01 2.450998880840806748e-01
2.958679703514154324e-01 4.556069631357466676e-01
2.969265319624646571e-01 5.166386319900588830e-01
2.979850935735138817e-01 5.765227422954524172e-01
2.990436551845630508e-01 6.114158423489897132e-01
3.001022167956122755e-01 6.074210266136574887e-01
3.011607784066615001e-01 3.399652351191804200e-01
3.022193400177107248e-01 5.613282686271041655e-01
3.032779016287599494e-01 4.478344393602284867e-01
3.043364632398091740e-01 2.015948069186137559e-01
3.053950248508583987e-01 3.758066878268557787e-01
3.064535864619076233e-01 6.892378543356159071e-01
3.075121480729568479e-01 6.547688336813735077e-01
3.085707096840060726e-01 4.695898730304044477e-01
3.096292712950552417e-01 7.297479328455587222e-01
3.106878329061044663e-01 8.106993412497658369e-01
3.117463945171536910e-01 5.924605963338542836e-01
3.128049561282029156e-01 5.950801616711238751e-01
3.138635177392521403e-01 7.015081472129480744e-01
3.149220793503013649e-01 6.377296076368210720e-01
3.159806409613505895e-01 7.775723835585814925e-01
3.170392025723998142e-01 5.917788596797635137e-01
3.180977641834490388e-01 5.726886487407156778e-01
3.191563257944982634e-01 4.315447004696615352e-01
3.202148874055474881e-01 5.571172909370929460e-01
3.212734490165967127e-01 6.725167667732883103e-01
3.223320106276459374e-01 7.491563222908403930e-01
3.233905722386951620e-01 7.011217779736185207e-01
3.244491338497443866e-01 6.181389917303832249e-01
3.255076954607936113e-01 3.713558084892341071e-01
3.265662570718428359e-01 6.295572792242865034e-01
3.276248186828920606e-01 6.815556266824494003e-01
3.286833802939412852e-01 8.179237811483446308e-01
3.297419419049905098e-01 5.742127255840792088e-01
3.308005035160397345e-01 4.860273546067865880e-01
3.318590651270889036e-01 6.821695982452311569e-01
3.329176267381381282e-01 7.959968565496993165e-01
3.339761883491873529e-01 4.959028941912251298e-01
3.350347499602365775e-01 4.788696278045065924e-01
3.360933115712858021e-01 4.350857266805583379e-01
3.371518731823350268e-01 3.147860138335403235e-01
3.382104347933842514e-01 1.874371806388062112e-01
3.392689964044334761e-01 4.733345667392931944e-01
3.403275580154827007e-01 5.358628573798753791e-01
3.413861196265319253e-01 4.369753166649061882e-01
3.424446812375810945e-01 6.148921711051968941e-01
3.435032428486303191e-01 6.350701677386290100e-01
3.445618044596795437e-01 5.640822915343157717e-01
3.456203660707287684e-01 4.252310238054093361e-01
3.466789276817779930e-01 2.983174241058570431e-01
3.477374892928272176e-01 3.799412290828101391e-01
3.487960509038764423e-01 5.295004453704166281e-01
3.498546125149256669e-01 5.353388328206563074e-01
3.509131741259748916e-01 3.785307472078649482e-01
3.519717357370241162e-01 5.726281759367779500e-01
3.530302973480732853e-01 5.226058733858280902e-01
3.540888589591225100e-01 5.457537792118785092e-01
3.551474205701717346e-01 5.375896892763556423e-01
3.562059821812209592e-01 4.854214187407634995e-01
3.572645437922701839e-01 4.169634707524849659e-01
3.583231054033194085e-01 5.099750782367955537e-01
3.593816670143686332e-01 4.534297029423157710e-01
3.604402286254178578e-01 5.633444209949267645e-01
3.614987902364670824e-01 5.545753477408368326e-01
3.625573518475163071e-01 4.618953258950639906e-01
3.636159134585655317e-01 3.830196125900187099e-01
3.646744750696147008e-01 3.685962063873517991e-01
3.657330366806639255e-01 3.896256576038830133e-01
3.667915982917131501e-01 5.050990261396250958e-01
3.678501599027623747e-01 5.156672780122200095e-01
3.689087215138115994e-01 4.543230136942995046e-01
3.699672831248608240e-01 4.373851235128825010e-01
3.710258447359100487e-01 2.540847829223196186e-01
3.720844063469592733e-01 4.291444595716171762e-01
3.731429679580084979e-01 2.251665574160455208e-03
3.742015295690577226e-01 3.381671133260581996e-01
3.752600911801069472e-01 5.099763652107789369e-01
3.763186527911561718e-01 3.951654534453368228e-01
3.773772144022053965e-01 3.016962328939030158e-01
3.784357760132546211e-01 2.537335722572287011e-01
3.794943376243038458e-01 1.412479327356557235e-01
3.805528992353530704e-01 1.251522465952952246e-01
3.816114608464022950e-01 1.977639514848625879e-01
3.826700224574515197e-01 2.623840284395946298e-01
3.837285840685007443e-01 4.832381795022655524e-02
3.847871456795499689e-01 3.944963786124482397e-01
3.858457072905991381e-01 5.041957771794329801e-01
3.869042689016483627e-01 4.329467175410179891e-01
3.879628305126975873e-01 4.591910676515453815e-01
3.890213921237468120e-01 4.243770598153133733e-01
3.900799537347960366e-01 3.463121540955178546e-01
3.911385153458452613e-01 4.238055562154308120e-01
3.921970769568944859e-01 5.222293638155441897e-01
3.932556385679437105e-01 5.137404019413835954e-01
3.943142001789929352e-01 2.542608288889240953e-01
3.953727617900421598e-01 1.890523795395786522e-01
3.964313234010913289e-01 2.155151502659471419e-01
3.974898850121405536e-01 4.289102298241971312e-01
3.985484466231897782e-01 4.054257991098815239e-01
3.996070082342390029e-01 3.584268445849261298e-01
4.006655698452882830e-01 4.954855395482802294e-01
4.017241314563373966e-01 3.126533200332488605e-01
4.027826930673866213e-01 2.040453193424554001e-01
4.038412546784358459e-01 3.678072670390690746e-01
4.048998162894850705e-01 3.623230707825264574e-01
4.059583779005342952e-01 2.687182096693980782e-01
4.070169395115835198e-01 3.744587045005616233e-01
4.080755011226327444e-01 4.107115010584081460e-01
4.091340627336819691e-01 2.813684396467976967e-01
4.101926243447311937e-01 2.557644919414663320e-01
4.112511859557804184e-01 4.548549500407688129e-01
4.123097475668296430e-01 3.488476070720309963e-01
4.133683091778788676e-01 3.786402404476412187e-01
4.144268707889280923e-01 4.647928372220739845e-01
4.154854323999773169e-01 4.571989640132834154e-01
4.165439940110265415e-01 3.666008124612503138e-01
4.176025556220757662e-01 3.430051553609381187e-01
4.186611172331249908e-01 5.070873201467094304e-01
4.197196788441742155e-01 4.031148524063183913e-01
4.207782404552234401e-01 2.289431267584873808e-01
4.218368020662726647e-01 3.672187832384388173e-01
4.228953636773218894e-01 2.006882068136128794e-01
4.239539252883710585e-01 2.789952078316133566e-01
4.250124868994202831e-01 2.003894902906395714e-01
4.260710485104695078e-01 3.359740621583497955e-01
4.271296101215187324e-01 3.228580345055540590e-01
4.281881717325679571e-01 4.397536655497340519e-01
4.292467333436171817e-01 3.733258302010185048e-01
4.303052949546664063e-01 3.942146139889608492e-01
4.313638565657156310e-01 3.395974817291786962e-01
4.324224181767648556e-01 2.220390588218741357e-01
4.334809797878140802e-01 1.845930108900546429e-01
4.345395413988633049e-01 3.782889192445004767e-01
4.355981030099125295e-01 2.849361502156284587e-01
4.366566646209617542e-01 1.015360763933230714e-01
4.377152262320109788e-01 4.487578418306625849e-02
4.387737878430602034e-01 1.560223404158413985e-01
4.398323494541094281e-01 1.781294729876172767e-01
4.408909110651586527e-01 2.063137736125213451e-01
4.419494726762078773e-01 3.742971915976660569e-01
