# q (1/Angstrom), Intensity (arb)
2.078726924066784734e-02 1.526183592486740963e+02
2.212838338006469993e-02 2.684227073990001600e+02
2.346949751946154905e-02 3.922627324438122400e+02
2.481061165885840164e-02 5.328868092225677628e+02
2.615172579825525423e-02 5.927117048660295495e+02
2.749283993765210335e-02 6.205736095067816223e+02
2.883395407704895941e-02 6.431559658187809418e+02
3.017506821644580506e-02 6.615700895515595903e+02
3.151618235584265765e-02 6.609487964209234860e+02
3.285729649523951718e-02 6.588049250986975949e+02
3.419841063463636283e-02 6.615015698308261562e+02
3.553952477403321542e-02 6.571631528617992899e+02
3.688063891343006800e-02 6.529075294414224118e+02
3.822175305282692059e-02 6.505900665315037941e+02
3.956286719222376624e-02 6.465902042423182365e+02
4.090398133162062577e-02 6.401470101518210640e+02
4.224509547101747142e-02 6.370525752342016403e+02
4.358620961041432401e-02 6.319428707777897216e+02
4.492732374981117660e-02 6.271801048242816705e+02
4.626843788920802919e-02 6.285149187111234141e+02
4.760955202860488178e-02 6.266444894194614790e+02
4.895066616800172743e-02 6.264346251986697780e+02
5.029178030739858696e-02 6.204609285837424295e+02
5.163289444679544649e-02 6.192942814626130712e+02
5.297400858619229214e-02 6.190758547643647489e+02
5.431512272558913779e-02 6.164831034904351554e+02
5.565623686498599731e-02 6.125294634678641614e+02
5.699735100438284990e-02 6.064553672421579904e+02
5.833846514377969555e-02 5.982189400226823182e+02
5.967957928317654814e-02 5.971488356546890373e+02
6.102069342257340767e-02 5.958538347175849594e+02
6.236180756197025332e-02 5.921924491595373183e+02
6.370292170136709897e-02 5.876078741824975396e+02
6.504403584076395850e-02 5.822591631682331581e+02
6.638514998016080415e-02 5.751758860338420618e+02
6.772626411955766368e-02 5.705285868238993316e+02
6.906737825895450933e-02 5.646673298970722499e+02
7.040849239835136886e-02 5.574137825111725988e+02
7.174960653774821451e-02 5.487206016520975709e+02
7.309072067714506016e-02 5.407658157524103899e+02
7.443183481654190581e-02 5.348848452020287141e+02
7.577294895593877921e-02 5.281700453362259395e+02
7.711406309533562486e-02 5.223288806750649655e+02
7.845517723473247051e-02 5.148475555031948261e+02
7.979629137412933004e-02 5.080183575086509222e+02
8.113740551352617569e-02 4.999957833313936248e+02
8.247851965292302134e-02 4.923704049541362338e+02
8.381963379231988087e-02 4.827210305067042100e+02
8.516074793171674040e-02 4.782842569687036303e+02
8.650186207111358605e-02 4.704824790522520175e+02
8.784297621051043170e-02 4.626675593660988284e+02
8.918409034990729123e-02 4.563913811493068806e+02
9.052520448930413688e-02 4.484653706569730502e+02
9.186631862870098253e-02 4.410604273266258133e+02
9.320743276809784206e-02 4.322858339244461945e+02
9.454854690749470159e-02 4.241910593355745505e+02
9.588966104689154724e-02 4.173429642923384790e+02
9.723077518628839289e-02 4.102034568725703139e+02
9.857188932568525241e-02 4.040595827396630284e+02
9.991300346508209806e-02 3.962073729515638547e+02
1.012541176044789437e-01 3.885241477273812620e+02
1.025952317438758032e-01 3.817384317652633854e+02
1.039363458832726350e-01 3.737388077647532896e+02
1.052774600226694945e-01 3.642951404341525290e+02
1.066185741620663541e-01 3.578194868959719770e+02
1.079596883014631858e-01 3.515966789952222484e+02
1.093008024408600454e-01 3.447556577625548471e+02
1.106419165802569049e-01 3.373947753985924010e+02
1.119830307196537506e-01 3.307335520881118782e+02
1.133241448590506101e-01 3.213105975574867443e+02
1.146652589984474419e-01 3.139143280935124949e+02
1.160063731378443014e-01 3.084986071304392112e+02
1.173474872772411609e-01 3.021406060769922988e+02
1.186886014166380066e-01 2.942592302502033021e+02
1.200297155560348661e-01 2.877757250289400872e+02
1.213708296954317256e-01 2.824295018647162578e+02
1.227119438348285574e-01 2.749093395100912858e+02
1.240530579742254169e-01 2.683574357376223816e+02
1.253941721136222764e-01 2.619829745191982511e+02
1.267352862530191082e-01 2.548783716121133125e+02
1.280764003924159677e-01 2.489182767776355263e+02
1.294175145318128273e-01 2.414442385189208835e+02
1.307586286712096590e-01 2.355690506075380881e+02
1.320997428106065186e-01 2.300671494833969746e+02
1.334408569500033781e-01 2.238359077974485842e+02
1.347819710894002376e-01 2.173364170156672230e+02
1.361230852287970972e-01 2.122174839970725770e+02
1.374641993681939289e-01 2.064692749663460631e+02
1.388053135075907885e-01 2.023338974759867028e+02
1.401464276469876480e-01 1.970923812307685523e+02
1.414875417863844798e-01 1.902920839509774282e+02
1.428286559257813393e-01 1.848365684759784529e+02
1.441697700651781988e-01 1.775761112214144646e+02
1.455108842045750306e-01 1.719089028632927239e+02
1.468519983439718901e-01 1.674660477801486991e+02
1.481931124833687219e-01 1.629888831855592457e+02
1.495342266227655814e-01 1.587401983976973554e+02
1.508753407621624687e-01 1.529559386140501545e+02
1.522164549015593005e-01 1.472650327567622526e+02
1.535575690409561600e-01 1.431954630851217019e+02
1.548986831803530195e-01 1.384922836001454698e+02
1.562397973197498513e-01 1.339820621475430755e+02
1.575809114591467108e-01 1.288909469209560825e+02
1.589220255985435704e-01 1.244935455560822675e+02
1.602631397379404021e-01 1.211688300319707849e+02
1.616042538773372617e-01 1.171780176833547671e+02
1.629453680167341212e-01 1.114609661658537050e+02
1.642864821561309530e-01 1.072000902330431558e+02
1.656275962955278125e-01 1.030775598928078836e+02
1.669687104349246720e-01 1.000095109986296933e+02
1.683098245743215315e-01 9.597231574113770591e+01
1.696509387137183911e-01 9.169062391144305479e+01
1.709920528531152228e-01 8.888637519918010810e+01
1.723331669925120824e-01 8.569199801809082828e+01
1.736742811319089419e-01 8.228772802933458763e+01
1.750153952713057737e-01 7.929567875589117421e+01
1.763565094107026332e-01 7.600546372659145788e+01
1.776976235500994927e-01 7.262818785138601640e+01
1.790387376894963245e-01 6.962573379635909987e+01
1.803798518288931840e-01 6.655249128303826467e+01
1.817209659682900158e-01 6.405426745748189887e+01
1.830620801076868753e-01 6.070448964793595792e+01
1.844031942470837349e-01 5.850019097554012149e+01
1.857443083864805944e-01 5.688877532932390579e+01
1.870854225258774539e-01 5.389123663645891327e+01
1.884265366652743134e-01 5.106928880009452598e+01
1.897676508046711452e-01 4.862029163405458121e+01
1.911087649440680047e-01 4.645287999992777372e+01
1.924498790834648643e-01 4.383917959767796901e+01
1.937909932228616960e-01 4.247150039514333741e+01
1.951321073622585556e-01 4.069809464067483873e+01
1.964732215016554151e-01 3.852490913092324831e+01
1.978143356410522469e-01 3.593484011715784732e+01
1.991554497804491064e-01 3.364765090663820502e+01
2.004965639198459382e-01 3.216306009809113675e+01
2.018376780592427977e-01 3.073506045369401818e+01
2.031787921986396572e-01 2.961552220019254378e+01
2.045199063380365168e-01 2.810087220789804974e+01
2.058610204774333763e-01 2.595550486510846611e+01
2.072021346168302081e-01 2.450566922924029711e+01
2.085432487562270676e-01 2.273493468652257832e+01
2.098843628956239271e-01 2.146156202707412319e+01
2.112254770350207866e-01 1.967197606958670519e+01
2.125665911744176462e-01 1.866566919952595072e+01
2.139077053138144502e-01 1.779633869767044985e+01
2.152488194532113097e-01 1.746351296967466737e+01
2.165899335926081692e-01 1.650545989432423255e+01
2.179310477320050288e-01 1.533348659812222081e+01
2.192721618714018883e-01 1.402817021037500922e+01
2.206132760107987478e-01 1.288650306410633561e+01
2.219543901501955796e-01 1.254522376926985316e+01
2.232955042895924391e-01 1.122384398836425135e+01
2.246366184289892987e-01 1.060397555879322340e+01
2.259777325683861582e-01 1.038557744003928462e+01
2.273188467077830177e-01 9.351844528552149427e+00
2.286599608471798217e-01 7.887551235059788723e+00
2.300010749865766813e-01 7.641478969983609204e+00
2.313421891259735408e-01 7.774013627113106395e+00
2.326833032653704003e-01 8.019419473493428541e+00
2.340244174047672598e-01 5.926252060226133267e+00
2.353655315441641194e-01 6.234640630854357823e+00
2.367066456835609234e-01 6.205125229461216918e+00
2.380477598229577829e-01 5.293051870592705654e+00
2.393888739623546424e-01 4.999240599396884477e+00
2.407299881017515020e-01 4.940154453361600417e+00
2.420711022411483615e-01 4.164757329845954814e+00
2.434122163805451933e-01 3.841234288140157105e+00
2.447533305199420528e-01 3.830720977374610925e+00
2.460944446593389123e-01 3.129970907436131711e+00
2.474355587987357719e-01 3.162098904056421134e+00
2.487766729381326314e-01 3.555564759636325789e+00
2.501177870775294632e-01 3.124678725249466993e+00
2.514589012169263227e-01 2.388434479464550009e+00
2.528000153563231822e-01 2.277554907803818196e+00
2.541411294957200417e-01 2.277720208882968222e+00
2.554822436351169013e-01 2.124369182191315986e+00
2.568233577745137608e-01 2.845329177144222399e+00
2.581644719139106203e-01 2.142355112145551743e+00
2.595055860533074243e-01 1.728792691214096067e+00
2.608467001927042839e-01 1.984196154416935087e+00
2.621878143321011434e-01 1.614865515774638993e+00
2.635289284714980029e-01 1.780150529286501637e+00
2.648700426108948625e-01 2.120054853716808907e+00
2.662111567502916665e-01 1.952751257847737065e+00
2.675522708896885260e-01 2.024123188708571774e+00
2.688933850290853855e-01 2.111688793675668308e+00
2.702344991684822451e-01 1.957587494752814905e+00
2.715756133078791046e-01 1.952182446066927923e+00
2.729167274472759641e-01 2.068124681158252542e+00
2.742578415866727681e-01 2.253847652496588694e+00
2.755989557260696277e-01 2.180253237907891162e+00
2.769400698654664872e-01 1.936318315707922011e+00
2.782811840048633467e-01 1.935223693530417677e+00
2.796222981442602062e-01 2.204037380830612847e+00
2.809634122836570103e-01 2.543665136244115388e+00
2.823045264230538698e-01 2.549936722524975607e+00
2.836456405624507293e-01 2.414542726421657903e+00
2.849867547018475888e-01 2.537086019695976802e+00
2.863278688412444484e-01 2.984237447577186231e+00
2.876689829806413079e-01 3.092940542704027962e+00
2.890100971200381674e-01 2.662680686513198225e+00
2.903512112594350270e-01 2.906632742459620999e+00
2.916923253988318865e-01 2.823473368797593253e+00
2.930334395382287460e-01 2.817140934261274765e+00
2.943745536776256055e-01 2.966246954858902996e+00
2.957156678170224096e-01 3.240106810578794239e+00
2.970567819564192691e-01 2.959216802921162071e+00
2.983978960958161286e-01 3.074016892339727747e+00
2.997390102352129881e-01 3.409509965976468493e+00
3.010801243746098477e-01 3.354303433525714695e+00
3.024212385140067072e-01 3.544100609218716613e+00
3.037623526534035112e-01 3.775070086841637362e+00
3.051034667928003707e-01 3.517410822955341132e+00
3.064445809321972303e-01 3.481570867560463967e+00
3.077856950715940898e-01 4.000975946720387810e+00
3.091268092109909493e-01 4.042559893239513258e+00
3.104679233503877533e-01 3.381843683068950668e+00
3.118090374897846129e-01 3.500838375528942947e+00
3.131501516291814724e-01 3.939693341959966233e+00
3.144912657685783319e-01 4.132060885136652928e+00
3.158323799079751915e-01 4.266503166539521885e+00
3.171734940473720510e-01 3.860261213820564308e+00
3.185146081867689105e-01 4.052364846867661186e+00
3.198557223261657700e-01 3.761749134295399699e+00
3.211968364655626296e-01 3.732422774276201949e+00
3.225379506049594891e-01 4.085751698528156339e+00
3.238790647443563486e-01 4.324201624501384345e+00
3.252201788837532082e-01 4.326401263415149856e+00
3.265612930231500122e-01 4.138642803765478106e+00
3.279024071625468717e-01 3.355299823422569716e+00
3.292435213019437312e-01 3.634734700936746776e+00
3.305846354413405908e-01 3.874892750216318404e+00
3.319257495807374503e-01 3.570221167007446184e+00
3.332668637201342543e-01 3.828120310830271933e+00
3.346079778595311138e-01 3.815200166974150875e+00
3.359490919989279734e-01 4.068733791556837787e+00
3.372902061383248329e-01 3.715114465086230666e+00
3.386313202777216924e-01 3.495030691772669229e+00
3.399724344171185519e-01 3.469542282537020128e+00
3.413135485565153560e-01 3.624877982126349707e+00
3.426546626959122155e-01 4.058404248475810050e+00
3.439957768353090750e-01 3.645689335234479245e+00
3.453368909747059345e-01 3.527391384316615586e+00
3.466780051141027941e-01 3.979868735295568172e+00
3.480191192534995981e-01 3.687798011120392516e+00
3.493602333928964576e-01 3.442150387757365593e+00
3.507013475322933171e-01 3.278003155145754022e+00
3.520424616716901767e-01 3.490594023400618084e+00
3.533835758110870362e-01 3.438936639653093152e+00
3.547246899504838957e-01 3.160463203882130756e+00
3.560658040898807553e-01 3.208615874232435772e+00
3.574069182292776148e-01 3.039484743982924897e+00
3.587480323686744743e-01 3.057825267331480745e+00
3.600891465080713338e-01 2.668001669997877912e+00
3.614302606474681934e-01 2.511719419350626481e+00
3.627713747868649974e-01 2.822678419131094074e+00
3.641124889262618569e-01 2.825482626389728580e+00
3.654536030656587164e-01 2.535725156277436554e+00
3.667947172050555760e-01 2.279905070458340788e+00
3.681358313444524355e-01 2.522930337934539580e+00
3.694769454838492950e-01 2.606877952035574708e+00
3.708180596232460990e-01 2.780832072569239699e+00
3.721591737626429586e-01 2.466534822435718866e+00
3.735002879020398181e-01 2.408221898523621007e+00
3.748414020414366776e-01 2.205668812062370421e+00
3.761825161808335372e-01 1.709800162539728774e+00
3.775236303202303967e-01 2.153383354649434978e+00
3.788647444596272007e-01 1.959662152684714442e+00
3.802058585990240602e-01 1.963832344589427237e+00
3.815469727384209198e-01 1.989289513541827148e+00
3.828880868778177793e-01 1.920773957346234795e+00
3.842292010172146388e-01 1.843290661279439746e+00
3.855703151566114428e-01 1.750269076998179685e+00
3.869114292960083024e-01 1.708964467363280448e+00
3.882525434354051619e-01 1.920276808280341641e+00
3.895936575748020214e-01 2.271448222909505432e+00
3.909347717141988809e-01 2.102421262462421225e+00
3.922758858535957405e-01 2.016397574595359288e+00
3.936169999929926000e-01 1.520734510286246177e+00
3.949581141323894595e-01 1.461286627245058867e+00
3.962992282717863191e-01 1.870895395394903460e+00
3.976403424111831786e-01 1.587719163648202425e+00
3.989814565505800381e-01 1.225166846779288221e+00
4.003225706899768976e-01 6.168633003226133837e-01
4.016636848293737572e-01 1.034803655502763320e+00
4.030047989687706167e-01 1.473989070119202438e+00
4.043459131081674207e-01 1.513917565258012132e+00
4.056870272475643358e-01 1.199231546978765550e+00
4.070281413869611398e-01 1.230757637288412809e+00
4.083692555263580548e-01 1.212284670587692403e+00
4.097103696657548588e-01 6.920967732845326736e-01
4.110514838051517739e-01 5.819125729267398128e-01
4.123925979445485779e-01 5.958901675819987531e-01
4.137337120839453819e-01 7.529589192785763885e-01
4.150748262233422969e-01 7.507779700254388899e-01
4.164159403627391010e-01 6.322159070973185635e-01
4.177570545021360160e-01 8.956057055034349901e-01
4.190981686415328200e-01 5.976496231247381274e-01
4.204392827809296240e-01 7.196370084905794329e-01
4.217803969203265391e-01 1.472908676616711432e+00
4.231215110597233431e-01 9.534283298955656960e-01
4.244626251991202581e-01 9.574282599795438387e-01
4.258037393385170621e-01 6.715584944137020784e-01
4.271448534779138662e-01 5.582846848999736267e-01
4.284859676173107812e-01 6.778384185695998099e-01
4.298270817567075852e-01 8.393877504432794012e-01
4.311681958961045003e-01 5.412698754661846579e-01
4.325093100355013043e-01 6.601983624092966352e-01
4.338504241748981638e-01 4.769637997466702473e-01
4.351915383142950233e-01 7.094771502494978677e-01
4.365326524536918829e-01 6.697394955421174245e-01
4.378737665930887424e-01 6.959275718106567865e-01
4.392148807324856019e-01 6.810316146109940405e-01
4.405559948718824614e-01 6.445492247400181896e-01
4.418971090112793210e-01 9.223563809140173930e-01
4.432382231506761250e-01 5.397534756097286390e-01
4.445793372900730400e-01 3.824690973442557151e-01
4.459204514294698440e-01 9.655863278551350959e-01
4.472615655688667591e-01 1.076804958010264102e+00
4.486026797082635631e-01 1.032181519458113428e+00
4.499437938476603671e-01 8.061281647052283006e-01
4.512849079870572822e-01 5.409704347364794330e-01
4.526260221264540862e-01 4.627128047948900758e-01
4.539671362658510012e-01 9.947829270552261960e-01
4.553082504052478052e-01 8.925335910424507802e-01
4.566493645446446092e-01 7.017042493041358853e-01
4.579904786840415243e-01 6.680993369720766850e-01
4.593315928234383283e-01 5.542235604132628168e-01
4.606727069628352433e-01 7.636150993527621722e-01
4.620138211022320474e-01 7.525196599766772465e-01
4.633549352416289624e-01 3.906863061058487574e-01
4.646960493810257664e-01 5.026046135035571183e-01
4.660371635204225704e-01 5.320975863392831684e-01
4.673782776598194855e-01 7.025667870501806078e-01
4.687193917992162895e-01 7.281548663907173591e-01
4.700605059386132045e-01 6.066525407772545009e-01
4.714016200780100085e-01 5.476952416288725090e-01
4.727427342174068681e-01 6.993298231923503749e-01
4.740838483568037276e-01 5.607802435675708352e-01
4.754249624962005871e-01 6.396797511520659896e-01
4.767660766355974467e-01 5.597792206184166730e-01
4.781071907749943062e-01 5.639434111728505172e-01
4.794483049143911102e-01 9.893475408149754458e-01
4.807894190537880252e-01 1.027472956059639841e+00
4.821305331931848293e-01 7.139915808943442244e-01
4.834716473325817443e-01 6.337832446317008817e-01
4.848127614719785483e-01 5.542460171946785863e-01
4.861538756113753523e-01 7.725636788132845822e-01
4.874949897507722674e-01 7.587539997081265142e-01
4.888361038901690714e-01 6.846138740365077524e-01
4.901772180295659864e-01 1.129759672612749455e+00
4.915183321689627904e-01 1.196827877308436427e+00
4.928594463083597055e-01 9.119656442849120026e-01
4.942005604477565095e-01 1.029394090264773354e+00
4.955416745871533135e-01 1.029718323167777783e+00
4.968827887265502286e-01 1.048559303732695014e+00
4.982239028659470326e-01 8.475987594921647883e-01
4.995650170053439476e-01 9.224761865139612382e-01
5.009061311447408071e-01 1.225324674848749851e+00
5.022472452841375556e-01 1.193224610414297615e+00
5.035883594235345262e-01 9.026982879269880300e-01
5.049294735629312747e-01 6.291586753647493424e-01
5.062705877023282452e-01 5.573268167846947563e-01
5.076117018417249938e-01 7.707531189193517207e-01
5.089528159811218533e-01 8.866042456576010977e-01
5.102939301205187128e-01 8.312388981280420808e-01
5.116350442599155723e-01 6.159603039047212292e-01
5.129761583993124319e-01 3.871215552489104539e-01
5.143172725387092914e-01 3.414168453435522110e-01
5.156583866781061509e-01 4.256537535026083674e-01
5.169995008175030105e-01 5.043138508075770687e-01
5.183406149568997590e-01 9.382805007325529800e-01
5.196817290962967295e-01 7.769815590789335147e-01
5.210228432356934780e-01 9.155776739304712919e-01
5.223639573750904486e-01 9.298062461750973284e-01
5.237050715144871971e-01 8.672554442307642830e-01
5.250461856538840566e-01 9.805232508637757860e-01
5.263872997932809161e-01 1.142849293538304778e+00
5.277284139326777757e-01 9.381061028724673179e-01
5.290695280720746352e-01 8.770162227828919299e-01
5.304106422114714947e-01 9.578714427870664849e-01
5.317517563508683542e-01 6.380321968300535218e-01
5.330928704902652138e-01 7.344221224966815953e-01
5.344339846296620733e-01 8.445798302684579539e-01
5.357750987690589328e-01 5.278843226099994013e-01
5.371162129084557924e-01 4.238274729739828217e-01
5.384573270478525409e-01 5.675082750252045116e-01
5.397984411872495114e-01 6.460230561519537673e-01
5.411395553266462599e-01 6.536633660332924478e-01
5.424806694660432305e-01 4.533166026632500234e-01
5.438217836054399790e-01 4.501893789136559576e-01
5.451628977448369495e-01 5.334100326839319450e-01
5.465040118842336980e-01 6.613108201158155453e-01
5.478451260236305576e-01 5.046501975445636390e-01
5.491862401630274171e-01 6.218501202583937015e-01
5.505273543024242766e-01 5.383092642750355594e-01
5.518684684418211361e-01 7.241110371629488895e-01
5.532095825812179957e-01 6.087747805600116635e-01
5.545506967206147442e-01 5.923375404839887892e-01
