# q (1/Angstrom), Intensity (arb)
2.078726924066784734e-02 1.571615051694502938e+02
2.212838338006469993e-02 2.735933716577686710e+02
2.346949751946154905e-02 3.962101299343611345e+02
2.481061165885840164e-02 5.394205444588932323e+02
2.615172579825525423e-02 6.071139059559445741e+02
2.749283993765210335e-02 6.372491239633297937e+02
2.883395407704895941e-02 6.626390206524179121e+02
3.017506821644580506e-02 6.732528936918445197e+02
3.151618235584265765e-02 6.789190728577375467e+02
3.285729649523951718e-02 6.773198400564745043e+02
3.419841063463636283e-02 6.744444009224503134e+02
3.553952477403321542e-02 6.706723609636864012e+02
3.688063891343006800e-02 6.637369109032914594e+02
3.822175305282692059e-02 6.624711253310232451e+02
3.956286719222376624e-02 6.598981473381854812e+02
4.090398133162062577e-02 6.533450032811364281e+02
4.224509547101747142e-02 6.488523898593091417e+02
4.358620961041432401e-02 6.478442540515790142e+02
4.492732374981117660e-02 6.417502237910855456e+02
4.626843788920802919e-02 6.431351057782363796e+02
4.760955202860488178e-02 6.438237162874198702e+02
4.895066616800172743e-02 6.397956398943123304e+02
5.029178030739858696e-02 6.355763024173747908e+02
5.163289444679544649e-02 6.307007627462606933e+02
5.297400858619229214e-02 6.314218264015581781e+02
5.431512272558913779e-02 6.314282517620880526e+02
5.565623686498599731e-02 6.243674437319530170e+02
5.699735100438284990e-02 6.172716619255220394e+02
5.833846514377969555e-02 6.149251496991357726e+02
5.967957928317654814e-02 6.133477439378441431e+02
6.102069342257340767e-02 6.064652687985962984e+02
6.236180756197025332e-02 6.006483759183545317e+02
6.370292170136709897e-02 5.988212839705608985e+02
6.504403584076395850e-02 5.970097027151233533e+02
6.638514998016080415e-02 5.929785064730048134e+02
6.772626411955766368e-02 5.841477869085338170e+02
6.906737825895450933e-02 5.762805990935718228e+02
7.040849239835136886e-02 5.689167538107808468e+02
7.174960653774821451e-02 5.619759271198018951e+02
7.309072067714506016e-02 5.533481708224747990e+02
7.443183481654190581e-02 5.461723080423219017e+02
7.577294895593877921e-02 5.412702817220713314e+02
7.711406309533562486e-02 5.334001078528286826e+02
7.845517723473247051e-02 5.266167361073524944e+02
7.979629137412933004e-02 5.195613935036753901e+02
8.113740551352617569e-02 5.111944170423574860e+02
8.247851965292302134e-02 5.049389406736937644e+02
8.381963379231988087e-02 4.955477116925936230e+02
8.516074793171674040e-02 4.869062653303172397e+02
8.650186207111358605e-02 4.794481328489883936e+02
8.784297621051043170e-02 4.742694866178277380e+02
8.918409034990729123e-02 4.644966699003553572e+02
9.052520448930413688e-02 4.573312605678664795e+02
9.186631862870098253e-02 4.511520529324089921e+02
9.320743276809784206e-02 4.430732557641480867e+02
9.454854690749470159e-02 4.355425230513898214e+02
9.588966104689154724e-02 4.264228178804602294e+02
9.723077518628839289e-02 4.182948614984911728e+02
9.857188932568525241e-02 4.133890210921969697e+02
9.991300346508209806e-02 4.051707763779363063e+02
1.012541176044789437e-01 3.978968896600380276e+02
1.025952317438758032e-01 3.896375656078618590e+02
1.039363458832726350e-01 3.806399656755789920e+02
1.052774600226694945e-01 3.741226243015824480e+02
1.066185741620663541e-01 3.670218902961295839e+02
1.079596883014631858e-01 3.575620670723195644e+02
1.093008024408600454e-01 3.493052707822067191e+02
1.106419165802569049e-01 3.423945497032754588e+02
1.119830307196537506e-01 3.380233291762362455e+02
1.133241448590506101e-01 3.316308981861947132e+02
1.146652589984474419e-01 3.222398391507876454e+02
1.160063731378443014e-01 3.145959871792409785e+02
1.173474872772411609e-01 3.078925638789379491e+02
1.186886014166380066e-01 3.012185844974045494e+02
1.200297155560348661e-01 2.933635255013824690e+02
1.213708296954317256e-01 2.871426285050295064e+02
1.227119438348285574e-01 2.799721425213450061e+02
1.240530579742254169e-01 2.736242184676581815e+02
1.253941721136222764e-01 2.658217225991170949e+02
1.267352862530191082e-01 2.594349442313712757e+02
1.280764003924159677e-01 2.537013529131510836e+02
1.294175145318128273e-01 2.462960985415418520e+02
1.307586286712096590e-01 2.404719376604192007e+02
1.320997428106065186e-01 2.351530651249996140e+02
1.334408569500033781e-01 2.282355949342839949e+02
1.347819710894002376e-01 2.216377727025732156e+02
1.361230852287970972e-01 2.154999112422848953e+02
1.374641993681939289e-01 2.091364468883791687e+02
1.388053135075907885e-01 2.032674518851882226e+02
1.401464276469876480e-01 1.980647776310573533e+02
1.414875417863844798e-01 1.937743102392179253e+02
1.428286559257813393e-01 1.874721403174228556e+02
1.441697700651781988e-01 1.812571370807748679e+02
1.455108842045750306e-01 1.754346517034130102e+02
1.468519983439718901e-01 1.710851397117038175e+02
1.481931124833687219e-01 1.658553770837189063e+02
1.495342266227655814e-01 1.602103400633674823e+02
1.508753407621624687e-01 1.559206784030155006e+02
1.522164549015593005e-01 1.504394240812012811e+02
1.535575690409561600e-01 1.460587019511054052e+02
1.548986831803530195e-01 1.413531585431875897e+02
1.562397973197498513e-01 1.360562239584762096e+02
1.575809114591467108e-01 1.310242135688325789e+02
1.589220255985435704e-01 1.261889105919336771e+02
1.602631397379404021e-01 1.227148603458260823e+02
1.616042538773372617e-01 1.175965459185603805e+02
1.629453680167341212e-01 1.130234615890439471e+02
1.642864821561309530e-01 1.088265752906699646e+02
1.656275962955278125e-01 1.053020666251876918e+02
1.669687104349246720e-01 1.017446055732079913e+02
1.683098245743215315e-01 9.803725098607328903e+01
1.696509387137183911e-01 9.424115195344488427e+01
1.709920528531152228e-01 9.131575139531354068e+01
1.723331669925120824e-01 8.808505053962976206e+01
1.736742811319089419e-01 8.400052316551330023e+01
1.750153952713057737e-01 8.108713601900541335e+01
1.763565094107026332e-01 7.680936112446727293e+01
1.776976235500994927e-01 7.315176286805039751e+01
1.790387376894963245e-01 7.049110907486860356e+01
1.803798518288931840e-01 6.785453597900004752e+01
1.817209659682900158e-01 6.408240702159875468e+01
1.830620801076868753e-01 6.105960032134899507e+01
1.844031942470837349e-01 5.864976370326139943e+01
1.857443083864805944e-01 5.661845364514451262e+01
1.870854225258774539e-01 5.425044457668032294e+01
1.884265366652743134e-01 5.156596140373399351e+01
1.897676508046711452e-01 4.953035346761365076e+01
1.911087649440680047e-01 4.738131380501600631e+01
1.924498790834648643e-01 4.427637566085417120e+01
1.937909932228616960e-01 4.255660078327244378e+01
1.951321073622585556e-01 3.979545724282961316e+01
1.964732215016554151e-01 3.788557697762399812e+01
1.978143356410522469e-01 3.657355145082250658e+01
1.991554497804491064e-01 3.467117153414521624e+01
2.004965639198459382e-01 3.274123188474979429e+01
2.018376780592427977e-01 3.076203431392761445e+01
2.031787921986396572e-01 2.919700989129655966e+01
2.045199063380365168e-01 2.774061128460726877e+01
2.058610204774333763e-01 2.590730826078036841e+01
2.072021346168302081e-01 2.448627031443650992e+01
2.085432487562270676e-01 2.390031789685325236e+01
2.098843628956239271e-01 2.232529483691456562e+01
2.112254770350207866e-01 2.022595711556223819e+01
2.125665911744176462e-01 1.945547012232198369e+01
2.139077053138144502e-01 1.815543381575993465e+01
2.152488194532113097e-01 1.686156347128384425e+01
2.165899335926081692e-01 1.608897881410304365e+01
2.179310477320050288e-01 1.506570286185228724e+01
2.192721618714018883e-01 1.447384098741356695e+01
2.206132760107987478e-01 1.286086202374251286e+01
2.219543901501955796e-01 1.211278918495280266e+01
2.232955042895924391e-01 1.197805710625122799e+01
2.246366184289892987e-01 1.124004466010273973e+01
2.259777325683861582e-01 1.048330096642976628e+01
2.273188467077830177e-01 9.268530198945768461e+00
2.286599608471798217e-01 9.060012790710203490e+00
2.300010749865766813e-01 8.328287883004648506e+00
2.313421891259735408e-01 7.380776545579578851e+00
2.326833032653704003e-01 6.857815035842563134e+00
2.340244174047672598e-01 6.792087665255664319e+00
2.353655315441641194e-01 6.056742315332712678e+00
2.367066456835609234e-01 5.964854290769409317e+00
2.380477598229577829e-01 5.465528170956829968e+00
2.393888739623546424e-01 5.068847157588535879e+00
2.407299881017515020e-01 4.644041632128590891e+00
2.420711022411483615e-01 4.575121651051162530e+00
2.434122163805451933e-01 3.909491684976998727e+00
2.447533305199420528e-01 3.440372713576422825e+00
2.460944446593389123e-01 3.575990039094918416e+00
2.474355587987357719e-01 3.372143436388327586e+00
2.487766729381326314e-01 3.581021000423106670e+00
2.501177870775294632e-01 3.075824334768967105e+00
2.514589012169263227e-01 2.694449213086684836e+00
2.528000153563231822e-01 2.448428467199718739e+00
2.541411294957200417e-01 2.803801068557078224e+00
2.554822436351169013e-01 2.636264681882423133e+00
2.568233577745137608e-01 1.740389393260699080e+00
2.581644719139106203e-01 1.901082819566397575e+00
2.595055860533074243e-01 2.285039055935854435e+00
2.608467001927042839e-01 2.385927524003520261e+00
2.621878143321011434e-01 2.493587227997863920e+00
2.635289284714980029e-01 2.278158791466509570e+00
2.648700426108948625e-01 2.129449557459523135e+00
2.662111567502916665e-01 2.017532675258280506e+00
2.675522708896885260e-01 1.969427165306257166e+00
2.688933850290853855e-01 2.071642455031764030e+00
2.702344991684822451e-01 2.629032803102802518e+00
2.715756133078791046e-01 2.940569465581475583e+00
2.729167274472759641e-01 2.640785749197775090e+00
2.742578415866727681e-01 2.715723165454591026e+00
2.755989557260696277e-01 2.418615775910652133e+00
2.769400698654664872e-01 2.022026636190531690e+00
2.782811840048633467e-01 2.340378473473592180e+00
2.796222981442602062e-01 2.470900326375200962e+00
2.809634122836570103e-01 2.358047642877565409e+00
2.823045264230538698e-01 2.271161444961748543e+00
2.836456405624507293e-01 2.587172787886061087e+00
2.849867547018475888e-01 2.700446822834521754e+00
2.863278688412444484e-01 2.956538102061756490e+00
2.876689829806413079e-01 3.309944586919129961e+00
2.890100971200381674e-01 3.324036335445654800e+00
2.903512112594350270e-01 2.960980676444506798e+00
2.916923253988318865e-01 3.388536503860294147e+00
2.930334395382287460e-01 3.688019759081470283e+00
2.943745536776256055e-01 3.757604078496612487e+00
2.957156678170224096e-01 3.323197856033004882e+00
2.970567819564192691e-01 3.231545707390139910e+00
2.983978960958161286e-01 3.181225879956713243e+00
2.997390102352129881e-01 3.330958416465463756e+00
3.010801243746098477e-01 3.870573580161291716e+00
3.024212385140067072e-01 4.025000439586932544e+00
3.037623526534035112e-01 4.333964852914718335e+00
3.051034667928003707e-01 4.102710604160748176e+00
3.064445809321972303e-01 3.896484565845653947e+00
3.077856950715940898e-01 4.179785258350079857e+00
3.091268092109909493e-01 3.724552022089881120e+00
3.104679233503877533e-01 4.106916449360369370e+00
3.118090374897846129e-01 3.871476249571671246e+00
3.131501516291814724e-01 3.587713478186557836e+00
3.144912657685783319e-01 3.810356933858400907e+00
3.158323799079751915e-01 3.728479213339994658e+00
3.171734940473720510e-01 3.305246988090729587e+00
3.185146081867689105e-01 3.680395749738792688e+00
3.198557223261657700e-01 4.130264723081722877e+00
3.211968364655626296e-01 3.963395708873704848e+00
3.225379506049594891e-01 4.070578374291784485e+00
3.238790647443563486e-01 4.173617128991239156e+00
3.252201788837532082e-01 3.937202441285521104e+00
3.265612930231500122e-01 3.858758724300841436e+00
3.279024071625468717e-01 4.076605119663213372e+00
3.292435213019437312e-01 4.003902759453268345e+00
3.305846354413405908e-01 4.026475067777909089e+00
3.319257495807374503e-01 3.946799354947955862e+00
3.332668637201342543e-01 3.598099260940927024e+00
3.346079778595311138e-01 3.608236396872257501e+00
3.359490919989279734e-01 3.730737360882741882e+00
3.372902061383248329e-01 3.686474776776719864e+00
3.386313202777216924e-01 3.923982371709271888e+00
3.399724344171185519e-01 3.799503020503792072e+00
3.413135485565153560e-01 3.632701014367739845e+00
3.426546626959122155e-01 3.375027642530710636e+00
3.439957768353090750e-01 3.418696431369866673e+00
3.453368909747059345e-01 3.186296510038289398e+00
3.466780051141027941e-01 3.320817918819955139e+00
3.480191192534995981e-01 3.125708557686863287e+00
3.493602333928964576e-01 3.077135044533605424e+00
3.507013475322933171e-01 3.042399285645956297e+00
3.520424616716901767e-01 3.251562638769058822e+00
3.533835758110870362e-01 2.951072868587573339e+00
3.547246899504838957e-01 2.747425137206406021e+00
3.560658040898807553e-01 2.895846051379507458e+00
3.574069182292776148e-01 2.935154720001889928e+00
3.587480323686744743e-01 2.906261220918139543e+00
3.600891465080713338e-01 3.117990159072100198e+00
3.614302606474681934e-01 3.124196912897723166e+00
3.627713747868649974e-01 3.152661181977535421e+00
3.641124889262618569e-01 2.895133796804238102e+00
3.654536030656587164e-01 2.612642330760337472e+00
3.667947172050555760e-01 2.248488170134081088e+00
3.681358313444524355e-01 2.525351746296244926e+00
3.694769454838492950e-01 2.489232418770477295e+00
3.708180596232460990e-01 2.778443590192303247e+00
3.721591737626429586e-01 2.265948318016356211e+00
3.735002879020398181e-01 2.444981777962802028e+00
3.748414020414366776e-01 2.110911667156763372e+00
3.761825161808335372e-01 2.070819950759592132e+00
3.775236303202303967e-01 1.975357023776076915e+00
3.788647444596272007e-01 2.137501661990270918e+00
3.802058585990240602e-01 2.040977243042874534e+00
3.815469727384209198e-01 2.021937470695974071e+00
3.828880868778177793e-01 2.020887958337269197e+00
3.842292010172146388e-01 1.680021785426504266e+00
3.855703151566114428e-01 2.023590475481256590e+00
3.869114292960083024e-01 1.743864109218975500e+00
3.882525434354051619e-01 1.076227798048094542e+00
3.895936575748020214e-01 1.004110496411605880e+00
3.909347717141988809e-01 9.719224682290885653e-01
3.922758858535957405e-01 1.365365794324773674e+00
3.936169999929926000e-01 1.586664221073370129e+00
3.949581141323894595e-01 1.136833290810315589e+00
3.962992282717863191e-01 1.407324640813506278e+00
3.976403424111831786e-01 1.613917652020823823e+00
3.989814565505800381e-01 1.321408739047598146e+00
4.003225706899768976e-01 9.173675325499743849e-01
4.016636848293737572e-01 9.326622953219398937e-01
4.030047989687706167e-01 1.038770502076125979e+00
4.043459131081674207e-01 8.882482920274767935e-01
4.056870272475643358e-01 9.680724223199916878e-01
4.070281413869611398e-01 7.809417247630321413e-01
4.083692555263580548e-01 8.870381383970169509e-01
4.097103696657548588e-01 8.345849150229724955e-01
4.110514838051517739e-01 9.638610680706847234e-01
4.123925979445485779e-01 8.343645183388801456e-01
4.137337120839453819e-01 5.830249908312907792e-01
4.150748262233422969e-01 4.564498593137642501e-01
4.164159403627391010e-01 6.036706114205614426e-01
4.177570545021360160e-01 1.900527117018810941e-01
4.190981686415328200e-01 3.649099381460132463e-01
4.204392827809296240e-01 1.377795761712690137e-01
4.217803969203265391e-01 5.306016678576384038e-01
4.231215110597233431e-01 3.857428735067500725e-01
4.244626251991202581e-01 1.867099387953388145e-01
4.258037393385170621e-01 4.191605685804304926e-01
4.271448534779138662e-01 8.749318943994026654e-01
4.284859676173107812e-01 6.080190353688124105e-01
4.298270817567075852e-01 2.382982173390360003e-01
4.311681958961045003e-01 8.539457205662301931e-01
4.325093100355013043e-01 9.026067818453711311e-01
4.338504241748981638e-01 4.059028007102156721e-01
4.351915383142950233e-01 3.954727938360136363e-01
4.365326524536918829e-01 5.749930514105443535e-01
4.378737665930887424e-01 6.178581796994535580e-01
4.392148807324856019e-01 3.483748816396499137e-01
4.405559948718824614e-01 6.007103876444048751e-01
4.418971090112793210e-01 9.158906090519565169e-01
4.432382231506761250e-01 5.622495663382380826e-01
4.445793372900730400e-01 3.274111202053191505e-01
4.459204514294698440e-01 2.202448357313642191e-01
4.472615655688667591e-01 4.212285073182471251e-01
4.486026797082635631e-01 6.579470903145008265e-01
4.499437938476603671e-01 5.235165769098344413e-01
4.512849079870572822e-01 4.520461813777245652e-01
4.526260221264540862e-01 6.676099484291100339e-01
4.539671362658510012e-01 8.367505976177795901e-01
4.553082504052478052e-01 8.189494503460110764e-01
4.566493645446446092e-01 5.174919499853061211e-01
4.579904786840415243e-01 4.448845137446184594e-01
4.593315928234383283e-01 4.458927199622664261e-01
4.606727069628352433e-01 2.584577561891165942e-01
4.620138211022320474e-01 3.556289057219004235e-01
4.633549352416289624e-01 2.370044830643820433e-01
4.646960493810257664e-01 6.706532440396273387e-02
4.660371635204225704e-01 4.821233113633027756e-01
4.673782776598194855e-01 5.518777379505195313e-01
4.687193917992162895e-01 6.394662001402480200e-01
4.700605059386132045e-01 6.681925634476897358e-01
4.714016200780100085e-01 4.260019084349835339e-01
4.727427342174068681e-01 3.611085919765031349e-01
4.740838483568037276e-01 3.438649444898871366e-01
4.754249624962005871e-01 4.403978666309100731e-01
4.767660766355974467e-01 2.615820870869640657e-01
4.781071907749943062e-01 2.239974223754188642e-01
4.794483049143911102e-01 3.261232171358443566e-01
4.807894190537880252e-01 5.518821607190105283e-01
4.821305331931848293e-01 6.317097587842752660e-01
4.834716473325817443e-01 2.858461776577669866e-01
4.848127614719785483e-01 3.921955307776130439e-01
4.861538756113753523e-01 7.255500744279217429e-01
4.874949897507722674e-01 7.085703059671075721e-01
4.888361038901690714e-01 4.467918762982279191e-01
4.901772180295659864e-01 2.163286515437974344e-01
4.915183321689627904e-01 3.830255515479876749e-01
4.928594463083597055e-01 6.098309018327370268e-01
4.942005604477565095e-01 4.994342726581990632e-01
4.955416745871533135e-01 4.678626403953103363e-01
4.968827887265502286e-01 6.254842468175283443e-01
4.982239028659470326e-01 4.141628207491052649e-01
4.995650170053439476e-01 4.043877661940840085e-01
5.009061311447408071e-01 3.752332479708684332e-01
5.022472452841375556e-01 3.216715102223943745e-01
5.035883594235345262e-01 8.255260041601601984e-01
5.049294735629312747e-01 7.240848117711280452e-01
5.062705877023282452e-01 7.714102588258597848e-01
5.076117018417249938e-01 7.451385442517519664e-01
5.089528159811218533e-01 5.398650746499598085e-01
5.102939301205187128e-01 4.590681926818760417e-01
5.116350442599155723e-01 3.381599889279911508e-01
5.129761583993124319e-01 2.194542593944603937e-01
5.143172725387092914e-01 1.579382787670269295e-01
5.156583866781061509e-01 1.386159223563723231e-01
5.169995008175030105e-01 2.448588801763662559e-01
5.183406149568997590e-01 1.218748999984455850e-01
5.196817290962967295e-01 3.895653532576446310e-01
5.210228432356934780e-01 4.019984353533558874e-01
5.223639573750904486e-01 5.643121922666054502e-01
5.237050715144871971e-01 5.877402706805270327e-01
5.250461856538840566e-01 4.911532606588764338e-01
5.263872997932809161e-01 6.330055537445673508e-01
5.277284139326777757e-01 1.064235715928674608e+00
5.290695280720746352e-01 7.954993932886935681e-01
5.304106422114714947e-01 9.820537654277288198e-01
5.317517563508683542e-01 6.935041510514068364e-01
5.330928704902652138e-01 3.726218655302631078e-01
5.344339846296620733e-01 5.982998116828426305e-01
5.357750987690589328e-01 6.446952388057241023e-01
5.371162129084557924e-01 5.772402732398589364e-01
5.384573270478525409e-01 7.336042083778835377e-01
5.397984411872495114e-01 6.823796699780260155e-01
5.411395553266462599e-01 1.022506711445728911e+00
5.424806694660432305e-01 6.037146786373384089e-01
5.438217836054399790e-01 4.231100724003624691e-01
5.451628977448369495e-01 2.676700506696150228e-01
5.465040118842336980e-01 2.294994163297303658e-01
5.478451260236305576e-01 3.768340716429463555e-01
5.491862401630274171e-01 5.327736353950172088e-01
5.505273543024242766e-01 4.657017067957411882e-01
5.518684684418211361e-01 2.838539384319673786e-01
5.532095825812179957e-01 4.494787155751396313e-01
5.545506967206147442e-01 4.257813982801934571e-01
