# q (1/Angstrom), Intensity (arb)
2.078726924066784734e-02 1.583434705077116291e+02
2.212838338006469993e-02 2.781752111068141176e+02
2.346949751946154905e-02 3.992135187474859208e+02
2.481061165885840164e-02 5.544410977174038635e+02
2.615172579825525423e-02 6.185560336406128954e+02
2.749283993765210335e-02 6.444889828032247578e+02
2.883395407704895941e-02 6.659252623793388466e+02
3.017506821644580506e-02 6.871286435489408859e+02
3.151618235584265765e-02 6.885171493803893554e+02
3.285729649523951718e-02 6.892988486211357895e+02
3.419841063463636283e-02 6.874510087885416851e+02
3.553952477403321542e-02 6.828646035573096924e+02
3.688063891343006800e-02 6.786631812922146310e+02
3.822175305282692059e-02 6.766446605974205113e+02
3.956286719222376624e-02 6.733868132497636907e+02
4.090398133162062577e-02 6.677747952645454461e+02
4.224509547101747142e-02 6.649104645333538883e+02
4.358620961041432401e-02 6.584640394914302988e+02
4.492732374981117660e-02 6.543799880634182955e+02
4.626843788920802919e-02 6.594259488090921195e+02
4.760955202860488178e-02 6.593329566627477334e+02
4.895066616800172743e-02 6.552303281536421764e+02
5.029178030739858696e-02 6.527738115830820789e+02
5.163289444679544649e-02 6.492048250801930180e+02
5.297400858619229214e-02 6.466362485072681920e+02
5.431512272558913779e-02 6.420650248424549318e+02
5.565623686498599731e-02 6.389852114008418766e+02
5.699735100438284990e-02 6.313326397342628979e+02
5.833846514377969555e-02 6.313727095265969638e+02
5.967957928317654814e-02 6.272792584243414922e+02
6.102069342257340767e-02 6.212219170146773877e+02
6.236180756197025332e-02 6.142180848193647762e+02
6.370292170136709897e-02 6.113296524177542324e+02
6.504403584076395850e-02 6.080617080309411904e+02
6.638514998016080415e-02 6.029066555125679088e+02
6.772626411955766368e-02 5.986187377828011904e+02
6.906737825895450933e-02 5.902223415476986474e+02
7.040849239835136886e-02 5.792937244776577472e+02
7.174960653774821451e-02 5.720767371510557950e+02
7.309072067714506016e-02 5.643255605917584035e+02
7.443183481654190581e-02 5.593295507054332347e+02
7.577294895593877921e-02 5.520991782234257244e+02
7.711406309533562486e-02 5.449205378335852856e+02
7.845517723473247051e-02 5.377371786086984002e+02
7.979629137412933004e-02 5.302258798463856238e+02
8.113740551352617569e-02 5.222576450621787671e+02
8.247851965292302134e-02 5.145971809135237436e+02
8.381963379231988087e-02 5.076795475043169290e+02
8.516074793171674040e-02 5.007898754111031963e+02
8.650186207111358605e-02 4.910372693322938176e+02
8.784297621051043170e-02 4.824496218542979591e+02
8.918409034990729123e-02 4.752697212602054719e+02
9.052520448930413688e-02 4.687871341806774126e+02
9.186631862870098253e-02 4.598737810634709149e+02
9.320743276809784206e-02 4.527383027365470980e+02
9.454854690749470159e-02 4.437608940028997608e+02
9.588966104689154724e-02 4.359519710051475272e+02
9.723077518628839289e-02 4.289129732324247470e+02
9.857188932568525241e-02 4.200929368061966898e+02
9.991300346508209806e-02 4.122036930780487864e+02
1.012541176044789437e-01 4.038854843720961298e+02
1.025952317438758032e-01 3.983502491726355856e+02
1.039363458832726350e-01 3.915792232259135517e+02
1.052774600226694945e-01 3.822784150193017467e+02
1.066185741620663541e-01 3.748237644494211054e+02
1.079596883014631858e-01 3.673638972073127320e+02
1.093008024408600454e-01 3.597990912251763689e+02
1.106419165802569049e-01 3.516878600592281146e+02
1.119830307196537506e-01 3.424126381240379828e+02
1.133241448590506101e-01 3.349606476194085758e+02
1.146652589984474419e-01 3.281320163520061897e+02
1.160063731378443014e-01 3.208674391256757872e+02
1.173474872772411609e-01 3.144123509148554945e+02
1.186886014166380066e-01 3.075138224321497091e+02
1.200297155560348661e-01 3.001284774814211573e+02
1.213708296954317256e-01 2.939316125644013482e+02
1.227119438348285574e-01 2.863717407544421008e+02
1.240530579742254169e-01 2.786661310103130518e+02
1.253941721136222764e-01 2.737532927312504967e+02
1.267352862530191082e-01 2.665116326434260259e+02
1.280764003924159677e-01 2.600919803898527221e+02
1.294175145318128273e-01 2.523733724724412468e+02
1.307586286712096590e-01 2.461479359809118534e+02
1.320997428106065186e-01 2.404851526113213538e+02
1.334408569500033781e-01 2.331323240780944275e+02
1.347819710894002376e-01 2.271099245268340496e+02
1.361230852287970972e-01 2.206969478233544351e+02
1.374641993681939289e-01 2.141063238010710563e+02
1.388053135075907885e-01 2.084434519053901909e+02
1.401464276469876480e-01 2.025772532458731234e+02
1.414875417863844798e-01 1.970372227386714599e+02
1.428286559257813393e-01 1.913897910099130968e+02
1.441697700651781988e-01 1.849849606621634166e+02
1.455108842045750306e-01 1.796489922739482381e+02
1.468519983439718901e-01 1.741359176996577958e+02
1.481931124833687219e-01 1.694832460850564075e+02
1.495342266227655814e-01 1.650510733603259723e+02
1.508753407621624687e-01 1.597139558012307816e+02
1.522164549015593005e-01 1.542770135718450035e+02
1.535575690409561600e-01 1.491149018493156007e+02
1.548986831803530195e-01 1.438664689768905021e+02
1.562397973197498513e-01 1.390755702537238392e+02
1.575809114591467108e-01 1.345973241628592518e+02
1.589220255985435704e-01 1.302769175147383294e+02
1.602631397379404021e-01 1.260824151996306171e+02
1.616042538773372617e-01 1.207028979870778045e+02
1.629453680167341212e-01 1.159977019978404087e+02
1.642864821561309530e-01 1.120364650771062855e+02
1.656275962955278125e-01 1.084161637582601685e+02
1.669687104349246720e-01 1.041753035444924791e+02
1.683098245743215315e-01 1.005709361772287451e+02
1.696509387137183911e-01 9.713628899965867447e+01
1.709920528531152228e-01 9.258343539643743725e+01
1.723331669925120824e-01 8.912904784372872768e+01
1.736742811319089419e-01 8.594474491361513913e+01
1.750153952713057737e-01 8.334931180937307715e+01
1.763565094107026332e-01 7.948299426083734431e+01
1.776976235500994927e-01 7.554730236373467278e+01
1.790387376894963245e-01 7.359145024037754013e+01
1.803798518288931840e-01 7.033330105684711953e+01
1.817209659682900158e-01 6.596890108301094813e+01
1.830620801076868753e-01 6.220639100669978916e+01
1.844031942470837349e-01 6.052636918312765602e+01
1.857443083864805944e-01 5.842033612785819230e+01
1.870854225258774539e-01 5.566821836167696347e+01
1.884265366652743134e-01 5.282790614139322827e+01
1.897676508046711452e-01 5.063958844202392129e+01
1.911087649440680047e-01 4.838412280273995236e+01
1.924498790834648643e-01 4.597512479366635318e+01
1.937909932228616960e-01 4.369536111766826991e+01
1.951321073622585556e-01 4.053227434982544253e+01
1.964732215016554151e-01 3.876614479409685998e+01
1.978143356410522469e-01 3.745828606732322896e+01
1.991554497804491064e-01 3.563305629044438660e+01
2.004965639198459382e-01 3.357571370153874568e+01
2.018376780592427977e-01 3.217275635926320376e+01
2.031787921986396572e-01 3.007502075671949626e+01
2.045199063380365168e-01 2.816477220397776193e+01
2.058610204774333763e-01 2.676813972111405349e+01
2.072021346168302081e-01 2.517661595052526025e+01
2.085432487562270676e-01 2.384719826089441597e+01
2.098843628956239271e-01 2.272972323633480585e+01
2.112254770350207866e-01 2.162494823567624280e+01
2.125665911744176462e-01 2.008267223978084814e+01
2.139077053138144502e-01 1.898229996607167891e+01
2.152488194532113097e-01 1.838403131149688363e+01
2.165899335926081692e-01 1.747646939930149301e+01
2.179310477320050288e-01 1.608775895269685918e+01
2.192721618714018883e-01 1.496214638303851530e+01
2.206132760107987478e-01 1.397911289906309662e+01
2.219543901501955796e-01 1.342269612870610729e+01
2.232955042895924391e-01 1.345806529215923319e+01
2.246366184289892987e-01 1.229045446980386203e+01
2.259777325683861582e-01 1.113911928735520007e+01
2.273188467077830177e-01 1.040768904438422737e+01
2.286599608471798217e-01 9.975275304437658974e+00
2.300010749865766813e-01 9.238701639178813707e+00
2.313421891259735408e-01 8.101279922588759064e+00
2.326833032653704003e-01 7.435652211145026058e+00
2.340244174047672598e-01 7.191628946370315134e+00
2.353655315441641194e-01 6.735463216245065610e+00
2.367066456835609234e-01 6.122264395155866623e+00
2.380477598229577829e-01 5.431843741995905361e+00
2.393888739623546424e-01 5.515886050976078536e+00
2.407299881017515020e-01 5.518063610751127612e+00
2.420711022411483615e-01 5.291447585876980497e+00
2.434122163805451933e-01 4.392115939613020714e+00
2.447533305199420528e-01 4.137962043386764321e+00
2.460944446593389123e-01 4.105082314322189063e+00
2.474355587987357719e-01 4.097435007074523128e+00
2.487766729381326314e-01 3.857790624464954021e+00
2.501177870775294632e-01 3.412917889471103194e+00
2.514589012169263227e-01 3.084134179026719380e+00
2.528000153563231822e-01 2.883898342838719486e+00
2.541411294957200417e-01 3.063067920134997735e+00
2.554822436351169013e-01 3.174220769520331942e+00
2.568233577745137608e-01 2.976741835677472636e+00
2.581644719139106203e-01 2.776636696512966296e+00
2.595055860533074243e-01 2.597916392643895733e+00
2.608467001927042839e-01 2.288345727605886282e+00
2.621878143321011434e-01 2.634249443664657520e+00
2.635289284714980029e-01 2.648660605031679438e+00
2.648700426108948625e-01 2.407141407605408290e+00
2.662111567502916665e-01 2.914976899865507676e+00
2.675522708896885260e-01 2.774215682070732214e+00
2.688933850290853855e-01 2.368493878674243547e+00
2.702344991684822451e-01 2.858127297146836554e+00
2.715756133078791046e-01 3.846319080334481555e+00
2.729167274472759641e-01 3.554601009513589815e+00
2.742578415866727681e-01 3.279089571642160195e+00
2.755989557260696277e-01 2.966829828939765434e+00
2.769400698654664872e-01 2.916295752040340972e+00
2.782811840048633467e-01 3.139418536175682561e+00
2.796222981442602062e-01 2.959037445538186262e+00
2.809634122836570103e-01 3.328280610215870183e+00
2.823045264230538698e-01 2.755958191567017934e+00
2.836456405624507293e-01 2.788000279548654703e+00
2.849867547018475888e-01 2.582982971118156001e+00
2.863278688412444484e-01 2.991018028167744092e+00
2.876689829806413079e-01 3.988535538276352099e+00
2.890100971200381674e-01 4.080977133572275761e+00
2.903512112594350270e-01 3.382050526901821286e+00
2.916923253988318865e-01 3.366730329910097907e+00
2.930334395382287460e-01 3.570226306271734984e+00
2.943745536776256055e-01 3.949356020070879936e+00
2.957156678170224096e-01 4.041722432208374016e+00
2.970567819564192691e-01 3.852371708199328282e+00
2.983978960958161286e-01 3.823571045752245823e+00
2.997390102352129881e-01 4.066215901001129396e+00
3.010801243746098477e-01 4.225144724206742808e+00
3.024212385140067072e-01 4.397530215783248764e+00
3.037623526534035112e-01 4.314129383730147538e+00
3.051034667928003707e-01 4.373993362956952069e+00
3.064445809321972303e-01 4.253807606221258197e+00
3.077856950715940898e-01 4.149654743581223215e+00
3.091268092109909493e-01 3.725381185081616309e+00
3.104679233503877533e-01 4.134294501338843020e+00
3.118090374897846129e-01 4.257639259518185781e+00
3.131501516291814724e-01 4.396791506562124141e+00
3.144912657685783319e-01 4.044695824879767088e+00
3.158323799079751915e-01 3.638283805151615979e+00
3.171734940473720510e-01 3.692131790353784027e+00
3.185146081867689105e-01 4.232312165937628379e+00
3.198557223261657700e-01 4.600355481554586845e+00
3.211968364655626296e-01 4.299851238024743338e+00
3.225379506049594891e-01 4.433352590372578561e+00
3.238790647443563486e-01 4.518907162689075108e+00
3.252201788837532082e-01 4.135328531810557706e+00
3.265612930231500122e-01 4.014975650171948018e+00
3.279024071625468717e-01 4.031045378405949009e+00
3.292435213019437312e-01 4.136357496319902793e+00
3.305846354413405908e-01 4.190687712442056068e+00
3.319257495807374503e-01 3.479373767224444691e+00
3.332668637201342543e-01 3.397504850882583582e+00
3.346079778595311138e-01 3.641292624086005958e+00
3.359490919989279734e-01 3.887726062873070987e+00
3.372902061383248329e-01 3.750249453293960755e+00
3.386313202777216924e-01 4.007234204660889532e+00
3.399724344171185519e-01 3.699377315327112115e+00
3.413135485565153560e-01 3.268122377328296579e+00
3.426546626959122155e-01 3.396412501797541950e+00
3.439957768353090750e-01 3.677091123580879639e+00
3.453368909747059345e-01 3.621051644614183829e+00
3.466780051141027941e-01 3.380326964376422438e+00
3.480191192534995981e-01 3.333812397895911772e+00
3.493602333928964576e-01 3.245580962396488189e+00
3.507013475322933171e-01 3.195442497914143587e+00
3.520424616716901767e-01 3.399064711507293168e+00
3.533835758110870362e-01 3.168779486844428561e+00
3.547246899504838957e-01 2.662156792501093605e+00
3.560658040898807553e-01 2.939913048164982001e+00
3.574069182292776148e-01 3.013150212469867029e+00
3.587480323686744743e-01 2.999512418670150282e+00
3.600891465080713338e-01 2.970415829068599578e+00
3.614302606474681934e-01 2.501587296574754760e+00
3.627713747868649974e-01 2.838766467206312427e+00
3.641124889262618569e-01 2.938941560086576033e+00
3.654536030656587164e-01 2.533647855582017883e+00
3.667947172050555760e-01 2.363787627304787975e+00
3.681358313444524355e-01 2.554312287352530575e+00
3.694769454838492950e-01 2.369421654490281526e+00
3.708180596232460990e-01 2.419049603107026769e+00
3.721591737626429586e-01 2.065951115054211584e+00
3.735002879020398181e-01 2.367836829855860969e+00
3.748414020414366776e-01 2.169367771994323846e+00
3.761825161808335372e-01 2.079606023863199482e+00
3.775236303202303967e-01 1.914028676642018922e+00
3.788647444596272007e-01 2.229011406064579148e+00
3.802058585990240602e-01 2.117281348061290203e+00
3.815469727384209198e-01 2.061587867542378660e+00
3.828880868778177793e-01 2.207115814191780601e+00
3.842292010172146388e-01 1.860640129709047130e+00
3.855703151566114428e-01 1.981336881211269940e+00
3.869114292960083024e-01 1.512039865920321802e+00
3.882525434354051619e-01 1.092510530174202188e+00
3.895936575748020214e-01 1.087950023936087973e+00
3.909347717141988809e-01 1.016086432537974815e+00
3.922758858535957405e-01 1.217151338104514480e+00
3.936169999929926000e-01 1.539332031712305593e+00
3.949581141323894595e-01 1.088134227319876857e+00
3.962992282717863191e-01 1.516405979123682357e+00
3.976403424111831786e-01 1.608732966008119547e+00
3.989814565505800381e-01 9.945370148338952276e-01
4.003225706899768976e-01 7.723880083060947754e-01
4.016636848293737572e-01 1.095241175474839679e+00
4.030047989687706167e-01 9.169334848522439074e-01
4.043459131081674207e-01 9.670044471556593635e-01
4.056870272475643358e-01 8.847546297457427045e-01
4.070281413869611398e-01 6.746374597931179551e-01
4.083692555263580548e-01 7.161574751922543669e-01
4.097103696657548588e-01 8.091047034473035637e-01
4.110514838051517739e-01 9.174839550866593640e-01
4.123925979445485779e-01 9.723315810545400950e-01
4.137337120839453819e-01 8.080308568364458210e-01
4.150748262233422969e-01 5.830775400825203292e-01
4.164159403627391010e-01 6.540056035661834244e-01
4.177570545021360160e-01 3.482338655872752042e-01
4.190981686415328200e-01 2.219034957720822376e-01
4.204392827809296240e-01 1.933115019054270078e-01
4.217803969203265391e-01 6.917366535624225321e-01
4.231215110597233431e-01 4.992577393406634201e-01
4.244626251991202581e-01 2.598867460477478630e-01
4.258037393385170621e-01 4.147436506913564358e-01
4.271448534779138662e-01 8.051893236795635289e-01
4.284859676173107812e-01 4.866657803781535563e-01
4.298270817567075852e-01 8.155137762612483243e-01
4.311681958961045003e-01 1.016872187208896605e+00
4.325093100355013043e-01 8.453567927251199876e-01
4.338504241748981638e-01 3.799861826828632161e-01
4.351915383142950233e-01 4.667893346047549130e-01
4.365326524536918829e-01 6.685067711965331227e-01
4.378737665930887424e-01 6.549048107408097508e-01
4.392148807324856019e-01 2.150766170203866068e-01
4.405559948718824614e-01 6.069394234211671346e-01
4.418971090112793210e-01 7.671657833310661090e-01
4.432382231506761250e-01 4.512486918719744722e-01
4.445793372900730400e-01 6.178596216066623015e-01
4.459204514294698440e-01 4.044625284566407686e-01
4.472615655688667591e-01 5.600551622106451077e-01
4.486026797082635631e-01 4.461190851218077569e-01
4.499437938476603671e-01 5.068935892802670651e-01
4.512849079870572822e-01 1.884066338479328806e-01
4.526260221264540862e-01 4.158723129203707458e-01
4.539671362658510012e-01 7.908112692204269933e-01
4.553082504052478052e-01 8.006635545070750481e-01
4.566493645446446092e-01 3.160997720434153280e-01
4.579904786840415243e-01 1.210784321295790278e-01
4.593315928234383283e-01 3.962153738805938019e-01
4.606727069628352433e-01 3.742294265998964420e-01
4.620138211022320474e-01 3.959308310721425528e-01
4.633549352416289624e-01 2.247394218986684677e-01
4.646960493810257664e-01 4.024479691305629103e-01
4.660371635204225704e-01 5.453544690110732063e-01
4.673782776598194855e-01 5.155113192528517629e-01
4.687193917992162895e-01 5.488580417231219144e-01
4.700605059386132045e-01 5.368126042273146936e-01
4.714016200780100085e-01 4.248886254403174689e-01
4.727427342174068681e-01 5.620869761599038839e-01
4.740838483568037276e-01 4.355106124152712255e-01
4.754249624962005871e-01 3.826920753907359085e-01
4.767660766355974467e-01 1.337754844213492333e-01
4.781071907749943062e-01 3.621843852173682876e-01
4.794483049143911102e-01 4.846467367917881575e-01
4.807894190537880252e-01 5.507358689033594601e-01
4.821305331931848293e-01 7.030265732220115638e-01
4.834716473325817443e-01 5.143758722629314661e-01
4.848127614719785483e-01 4.537141275499934068e-01
4.861538756113753523e-01 5.563445199117040829e-01
4.874949897507722674e-01 8.224210090670567297e-01
4.888361038901690714e-01 6.759150422206658959e-01
4.901772180295659864e-01 6.462104648090800652e-01
4.915183321689627904e-01 5.105283128759410260e-01
4.928594463083597055e-01 5.350046241765227251e-01
4.942005604477565095e-01 6.173207534754112658e-01
4.955416745871533135e-01 5.510515457007585383e-01
4.968827887265502286e-01 7.713793503290204967e-01
4.982239028659470326e-01 5.696608346729448158e-01
4.995650170053439476e-01 2.339843766492393229e-01
5.009061311447408071e-01 4.526766705512130784e-01
5.022472452841375556e-01 4.964049034307649322e-01
5.035883594235345262e-01 6.087705120826001348e-01
5.049294735629312747e-01 5.858127752158424073e-01
5.062705877023282452e-01 7.330884478994477149e-01
5.076117018417249938e-01 5.758463595721607930e-01
5.089528159811218533e-01 3.582823240258434794e-01
5.102939301205187128e-01 3.321712598508810288e-01
5.116350442599155723e-01 4.263605969930210904e-01
5.129761583993124319e-01 2.384055187636775486e-01
5.143172725387092914e-01 2.445303999407926199e-01
5.156583866781061509e-01 1.921096907592954040e-01
5.169995008175030105e-01 9.531800934504985889e-02
5.183406149568997590e-01 4.626878284713455969e-01
5.196817290962967295e-01 5.203787469377729735e-01
5.210228432356934780e-01 2.712487958530545029e-01
5.223639573750904486e-01 5.815269501805104824e-01
5.237050715144871971e-01 3.273109683471844278e-01
5.250461856538840566e-01 4.952371503135353237e-01
5.263872997932809161e-01 5.933990868847089928e-01
5.277284139326777757e-01 9.825379751283875862e-01
5.290695280720746352e-01 4.980754636877335884e-01
5.304106422114714947e-01 5.707864481892457320e-01
5.317517563508683542e-01 3.665763834261213105e-01
5.330928704902652138e-01 3.144112010493884668e-01
5.344339846296620733e-01 5.411914181940105095e-01
5.357750987690589328e-01 5.882159569468043969e-01
5.371162129084557924e-01 6.681926882668278722e-01
5.384573270478525409e-01 4.933882535668132618e-01
5.397984411872495114e-01 6.281465108847754664e-01
5.411395553266462599e-01 8.202768814908054651e-01
5.424806694660432305e-01 7.190562122396997324e-01
5.438217836054399790e-01 5.156960906766983044e-01
5.451628977448369495e-01 2.943515972068553310e-01
5.465040118842336980e-01 2.674047807279080757e-01
5.478451260236305576e-01 4.716996185481008297e-01
5.491862401630274171e-01 6.007890444422443466e-01
5.505273543024242766e-01 6.555074637897178036e-01
5.518684684418211361e-01 4.812939556010391584e-01
5.532095825812179957e-01 5.300448229763077279e-01
5.545506967206147442e-01 5.860960777757142637e-01
