# q (1/Angstrom), Intensity (arb)
2.078726924066784734e-02 1.636024145080797609e+02
2.212838338006469993e-02 2.823035316695853680e+02
2.346949751946154905e-02 4.086461176765679966e+02
2.481061165885840164e-02 5.662289895353027305e+02
2.615172579825525423e-02 6.342426874384839266e+02
2.749283993765210335e-02 6.595186591288943418e+02
2.883395407704895941e-02 6.862979382036128300e+02
3.017506821644580506e-02 7.048835601261005195e+02
3.151618235584265765e-02 7.057106815058739357e+02
3.285729649523951718e-02 7.027336649407062623e+02
3.419841063463636283e-02 7.024092792628324560e+02
3.553952477403321542e-02 6.949223048044806319e+02
3.688063891343006800e-02 6.912672273923038802e+02
3.822175305282692059e-02 6.924736245947030966e+02
3.956286719222376624e-02 6.888507619149618222e+02
4.090398133162062577e-02 6.841659111086456733e+02
4.224509547101747142e-02 6.815920868452938066e+02
4.358620961041432401e-02 6.777688334644323049e+02
4.492732374981117660e-02 6.721920525254581662e+02
4.626843788920802919e-02 6.709708868256086589e+02
4.760955202860488178e-02 6.757138190599913514e+02
4.895066616800172743e-02 6.723641096079534236e+02
5.029178030739858696e-02 6.691617666998481582e+02
5.163289444679544649e-02 6.665579078989852633e+02
5.297400858619229214e-02 6.675075441885661576e+02
5.431512272558913779e-02 6.633592917986575230e+02
5.565623686498599731e-02 6.561888548513549040e+02
5.699735100438284990e-02 6.495479540433072998e+02
5.833846514377969555e-02 6.440744169968726283e+02
5.967957928317654814e-02 6.389465311392548301e+02
6.102069342257340767e-02 6.368607043095513518e+02
6.236180756197025332e-02 6.323388009080135816e+02
6.370292170136709897e-02 6.287410999166503416e+02
6.504403584076395850e-02 6.235601536920175931e+02
6.638514998016080415e-02 6.164798470525796574e+02
6.772626411955766368e-02 6.090994110604571006e+02
6.906737825895450933e-02 6.032833061081721553e+02
7.040849239835136886e-02 5.959509450313944399e+02
7.174960653774821451e-02 5.881492895893459263e+02
7.309072067714506016e-02 5.806821046885276019e+02
7.443183481654190581e-02 5.730588448437845273e+02
7.577294895593877921e-02 5.671666974261989935e+02
7.711406309533562486e-02 5.590389043261542383e+02
7.845517723473247051e-02 5.481045192268144319e+02
7.979629137412933004e-02 5.432366098547440743e+02
8.113740551352617569e-02 5.358731513609893682e+02
8.247851965292302134e-02 5.261510475118567456e+02
8.381963379231988087e-02 5.177042935401972272e+02
8.516074793171674040e-02 5.088871457335668538e+02
8.650186207111358605e-02 5.011727323048377798e+02
8.784297621051043170e-02 4.965029304131327876e+02
8.918409034990729123e-02 4.906382011915096086e+02
9.052520448930413688e-02 4.813761814087524726e+02
9.186631862870098253e-02 4.707560231765531285e+02
9.320743276809784206e-02 4.619154605444494450e+02
9.454854690749470159e-02 4.549651733052677400e+02
9.588966104689154724e-02 4.484717679656590690e+02
9.723077518628839289e-02 4.379166738848061300e+02
9.857188932568525241e-02 4.293436705852610089e+02
9.991300346508209806e-02 4.233245674451160312e+02
1.012541176044789437e-01 4.161133083686584087e+02
1.025952317438758032e-01 4.080907150610955227e+02
1.039363458832726350e-01 4.008232593725756487e+02
1.052774600226694945e-01 3.905664552156031277e+02
1.066185741620663541e-01 3.814913931340692557e+02
1.079596883014631858e-01 3.754966067213622978e+02
1.093008024408600454e-01 3.686578197133796380e+02
1.106419165802569049e-01 3.610597512148081591e+02
1.119830307196537506e-01 3.534776137185469338e+02
1.133241448590506101e-01 3.457657372558875863e+02
1.146652589984474419e-01 3.373521264142171390e+02
1.160063731378443014e-01 3.305049992726813457e+02
1.173474872772411609e-01 3.232928102651969198e+02
1.186886014166380066e-01 3.158181119036561881e+02
1.200297155560348661e-01 3.083762470862892542e+02
1.213708296954317256e-01 2.995476196960676702e+02
1.227119438348285574e-01 2.927548225878439325e+02
1.240530579742254169e-01 2.870015980582360839e+02
1.253941721136222764e-01 2.804798522787750699e+02
1.267352862530191082e-01 2.720326816044005227e+02
1.280764003924159677e-01 2.657036112076140171e+02
1.294175145318128273e-01 2.590557098501157043e+02
1.307586286712096590e-01 2.518455209415356535e+02
1.320997428106065186e-01 2.452928955361085173e+02
1.334408569500033781e-01 2.383420269359916119e+02
1.347819710894002376e-01 2.315044666005375120e+02
1.361230852287970972e-01 2.254025984997257694e+02
1.374641993681939289e-01 2.196477366240433184e+02
1.388053135075907885e-01 2.139944326006190636e+02
1.401464276469876480e-01 2.068170005564519727e+02
1.414875417863844798e-01 2.016434562933093844e+02
1.428286559257813393e-01 1.958705353956253532e+02
1.441697700651781988e-01 1.898215600178537272e+02
1.455108842045750306e-01 1.842012089879748942e+02
1.468519983439718901e-01 1.790274823153690136e+02
1.481931124833687219e-01 1.738290834375770260e+02
1.495342266227655814e-01 1.683008877127834353e+02
1.508753407621624687e-01 1.631196184054161904e+02
1.522164549015593005e-01 1.580858997964285209e+02
1.535575690409561600e-01 1.531396256960506150e+02
1.548986831803530195e-01 1.480214038730903781e+02
1.562397973197498513e-01 1.425321555371752140e+02
1.575809114591467108e-01 1.374700486363675509e+02
1.589220255985435704e-01 1.332373077952130416e+02
1.602631397379404021e-01 1.286094459961063876e+02
1.616042538773372617e-01 1.240371379078979714e+02
1.629453680167341212e-01 1.196607440389580148e+02
1.642864821561309530e-01 1.151067950959828465e+02
1.656275962955278125e-01 1.109428909536077867e+02
1.669687104349246720e-01 1.066554664412684019e+02
1.683098245743215315e-01 1.035164872418991706e+02
1.696509387137183911e-01 9.868849243113278646e+01
1.709920528531152228e-01 9.533115088559007688e+01
1.723331669925120824e-01 9.198104570350609777e+01
1.736742811319089419e-01 8.872522344109006553e+01
1.750153952713057737e-01 8.492305178755927386e+01
1.763565094107026332e-01 8.090381263387649824e+01
1.776976235500994927e-01 7.633408897698737405e+01
1.790387376894963245e-01 7.443014878615950636e+01
1.803798518288931840e-01 7.183631317864096388e+01
1.817209659682900158e-01 6.820084695319002321e+01
1.830620801076868753e-01 6.556392789683663125e+01
1.844031942470837349e-01 6.285551023317701436e+01
1.857443083864805944e-01 5.984390466374337336e+01
1.870854225258774539e-01 5.761678121940262542e+01
1.884265366652743134e-01 5.418583897400324645e+01
1.897676508046711452e-01 5.182973170984662659e+01
1.911087649440680047e-01 4.982852298092896604e+01
1.924498790834648643e-01 4.686667534540707436e+01
1.937909932228616960e-01 4.460456423133872761e+01
1.951321073622585556e-01 4.167165872342138755e+01
1.964732215016554151e-01 3.902849054329381318e+01
1.978143356410522469e-01 3.813981537248609754e+01
1.991554497804491064e-01 3.614363006854831895e+01
2.004965639198459382e-01 3.414984446510470661e+01
2.018376780592427977e-01 3.288673985909149167e+01
2.031787921986396572e-01 3.095996336499854351e+01
2.045199063380365168e-01 2.916234233658624930e+01
2.058610204774333763e-01 2.808068274515942164e+01
2.072021346168302081e-01 2.621308857182152963e+01
2.085432487562270676e-01 2.471613441333663275e+01
2.098843628956239271e-01 2.317129015256290359e+01
2.112254770350207866e-01 2.183434857527623763e+01
2.125665911744176462e-01 2.076098771017279887e+01
2.139077053138144502e-01 1.922913138133797872e+01
2.152488194532113097e-01 1.839342015896883709e+01
2.165899335926081692e-01 1.796857816561451671e+01
2.179310477320050288e-01 1.657871542667355413e+01
2.192721618714018883e-01 1.569017342125586367e+01
2.206132760107987478e-01 1.429239964344019143e+01
2.219543901501955796e-01 1.326578252842075756e+01
2.232955042895924391e-01 1.262345728889701491e+01
2.246366184289892987e-01 1.172089939637916700e+01
2.259777325683861582e-01 1.120120189811994749e+01
2.273188467077830177e-01 1.066024555443291888e+01
2.286599608471798217e-01 1.008205741782020937e+01
2.300010749865766813e-01 9.246811529203355917e+00
2.313421891259735408e-01 8.094690398455540503e+00
2.326833032653704003e-01 7.594045299766946755e+00
2.340244174047672598e-01 7.834837239046009927e+00
2.353655315441641194e-01 6.940713629254489092e+00
2.367066456835609234e-01 6.035678512177284460e+00
2.380477598229577829e-01 5.862956674173744887e+00
2.393888739623546424e-01 5.574272947989371119e+00
2.407299881017515020e-01 5.376097977489209256e+00
2.420711022411483615e-01 5.699087428891758123e+00
2.434122163805451933e-01 4.782292455818577537e+00
2.447533305199420528e-01 4.599614405157055330e+00
2.460944446593389123e-01 4.592426828308830977e+00
2.474355587987357719e-01 4.129063954899407918e+00
2.487766729381326314e-01 3.788421146340937185e+00
2.501177870775294632e-01 3.520881673947314994e+00
2.514589012169263227e-01 3.393189622692332819e+00
2.528000153563231822e-01 2.971521281954480287e+00
2.541411294957200417e-01 3.153618314630818986e+00
2.554822436351169013e-01 2.995041820571756830e+00
2.568233577745137608e-01 2.233514465411587935e+00
2.581644719139106203e-01 2.748211270111383442e+00
2.595055860533074243e-01 2.862080919035633997e+00
2.608467001927042839e-01 2.948005352205470331e+00
2.621878143321011434e-01 2.928308063049925636e+00
2.635289284714980029e-01 2.471234133299489599e+00
2.648700426108948625e-01 2.636908026514191761e+00
2.662111567502916665e-01 3.282875102263190570e+00
2.675522708896885260e-01 2.924058597356875566e+00
2.688933850290853855e-01 2.362147388919865421e+00
2.702344991684822451e-01 2.794228042195456396e+00
2.715756133078791046e-01 3.608051115635063866e+00
2.729167274472759641e-01 3.569058861720037612e+00
2.742578415866727681e-01 3.597678463798715143e+00
2.755989557260696277e-01 2.780469513884781918e+00
2.769400698654664872e-01 2.943430193364889647e+00
2.782811840048633467e-01 3.116820395387435383e+00
2.796222981442602062e-01 2.860565917502015054e+00
2.809634122836570103e-01 3.160003653635158116e+00
2.823045264230538698e-01 2.872796438828444821e+00
2.836456405624507293e-01 3.296979315325884841e+00
2.849867547018475888e-01 3.540927503030303569e+00
2.863278688412444484e-01 3.243928341598305565e+00
2.876689829806413079e-01 3.356887321541989877e+00
2.890100971200381674e-01 3.589300902754573031e+00
2.903512112594350270e-01 3.316173223378996227e+00
2.916923253988318865e-01 3.934441035009513143e+00
2.930334395382287460e-01 3.871955402212336139e+00
2.943745536776256055e-01 3.671402473221348828e+00
2.957156678170224096e-01 3.699677315469060090e+00
2.970567819564192691e-01 3.830363372581160775e+00
2.983978960958161286e-01 4.052414269285719683e+00
2.997390102352129881e-01 3.820465594976354851e+00
3.010801243746098477e-01 3.871261839777503155e+00
3.024212385140067072e-01 3.868645266767629209e+00
3.037623526534035112e-01 4.121069829508428484e+00
3.051034667928003707e-01 3.997920289044614606e+00
3.064445809321972303e-01 4.157447034766633465e+00
3.077856950715940898e-01 4.161683745678530499e+00
3.091268092109909493e-01 4.066254609457189417e+00
3.104679233503877533e-01 4.473006799120483379e+00
3.118090374897846129e-01 4.497636228160175165e+00
3.131501516291814724e-01 4.469068989551360005e+00
3.144912657685783319e-01 4.253365742711423536e+00
3.158323799079751915e-01 3.758398870553421034e+00
3.171734940473720510e-01 3.511513063025518022e+00
3.185146081867689105e-01 4.154721216655630656e+00
3.198557223261657700e-01 4.678049805808711881e+00
3.211968364655626296e-01 4.505288398809611294e+00
3.225379506049594891e-01 4.547194359560677412e+00
3.238790647443563486e-01 4.849007576647849760e+00
3.252201788837532082e-01 4.390518236211590875e+00
3.265612930231500122e-01 4.195052227228089237e+00
3.279024071625468717e-01 4.334755475175157358e+00
3.292435213019437312e-01 4.330568515160123866e+00
3.305846354413405908e-01 4.340186739404046534e+00
3.319257495807374503e-01 3.917355833900359130e+00
3.332668637201342543e-01 3.702376543905387507e+00
3.346079778595311138e-01 3.925691876729374030e+00
3.359490919989279734e-01 3.973713856983806636e+00
3.372902061383248329e-01 3.816005846385166933e+00
3.386313202777216924e-01 4.426616560896746932e+00
3.399724344171185519e-01 3.917257847981858276e+00
3.413135485565153560e-01 3.551879542174702920e+00
3.426546626959122155e-01 3.655561554736081575e+00
3.439957768353090750e-01 3.580951127416227564e+00
3.453368909747059345e-01 3.324065449971541852e+00
3.466780051141027941e-01 3.663690069837954866e+00
3.480191192534995981e-01 3.786674047724588377e+00
3.493602333928964576e-01 3.708685261232503194e+00
3.507013475322933171e-01 3.778843653856469587e+00
3.520424616716901767e-01 3.531804699287306448e+00
3.533835758110870362e-01 3.223811646021772503e+00
3.547246899504838957e-01 3.044450614601657890e+00
3.560658040898807553e-01 3.104052414134599758e+00
3.574069182292776148e-01 2.988959900412240245e+00
3.587480323686744743e-01 2.716170842531866469e+00
3.600891465080713338e-01 3.071381377459985629e+00
3.614302606474681934e-01 2.889417506098681088e+00
3.627713747868649974e-01 2.963998445374969037e+00
3.641124889262618569e-01 2.747241822317889159e+00
3.654536030656587164e-01 2.139225437117190154e+00
3.667947172050555760e-01 2.156155745312489103e+00
3.681358313444524355e-01 2.941923847067329234e+00
3.694769454838492950e-01 2.832660639369834144e+00
3.708180596232460990e-01 2.763589210112101568e+00
3.721591737626429586e-01 2.321298273949352620e+00
3.735002879020398181e-01 2.783084211439856404e+00
3.748414020414366776e-01 2.463172928623720281e+00
3.761825161808335372e-01 2.087541574407268286e+00
3.775236303202303967e-01 1.666343933100307595e+00
3.788647444596272007e-01 2.102209003593713987e+00
3.802058585990240602e-01 2.274510069925582911e+00
3.815469727384209198e-01 2.419453852256310711e+00
3.828880868778177793e-01 2.450047980424898242e+00
3.842292010172146388e-01 1.807079595534162308e+00
3.855703151566114428e-01 1.899599107262105235e+00
3.869114292960083024e-01 1.964815446204042360e+00
3.882525434354051619e-01 1.341940667189547298e+00
3.895936575748020214e-01 1.139398314783520050e+00
3.909347717141988809e-01 1.110102008231663717e+00
3.922758858535957405e-01 1.635001445763677452e+00
3.936169999929926000e-01 2.216861369112464786e+00
3.949581141323894595e-01 1.570689301544163641e+00
3.962992282717863191e-01 1.343463447673940436e+00
3.976403424111831786e-01 1.621321231526415829e+00
3.989814565505800381e-01 1.185263735605659008e+00
4.003225706899768976e-01 9.677530242149146034e-01
4.016636848293737572e-01 1.280183533011765462e+00
4.030047989687706167e-01 1.260041525574948196e+00
4.043459131081674207e-01 1.169677939322625093e+00
4.056870272475643358e-01 1.194350039443953904e+00
4.070281413869611398e-01 9.889228894873554054e-01
4.083692555263580548e-01 1.041586901004563970e+00
4.097103696657548588e-01 1.005318437661095743e+00
4.110514838051517739e-01 1.152296622300447382e+00
4.123925979445485779e-01 1.042203413422370772e+00
4.137337120839453819e-01 7.509073156367946922e-01
4.150748262233422969e-01 6.460688851637073071e-01
4.164159403627391010e-01 6.786803356408768195e-01
4.177570545021360160e-01 5.317122696506473289e-01
4.190981686415328200e-01 6.746941871616911612e-01
4.204392827809296240e-01 5.931225641580155639e-01
4.217803969203265391e-01 6.821727499289949037e-01
4.231215110597233431e-01 5.385911829933789363e-01
4.244626251991202581e-01 6.232795941693964892e-01
4.258037393385170621e-01 6.996568350797431890e-01
4.271448534779138662e-01 5.939881125292814090e-01
4.284859676173107812e-01 6.943676381831238587e-01
4.298270817567075852e-01 5.086494380361585854e-01
4.311681958961045003e-01 7.353175343704734246e-01
4.325093100355013043e-01 7.923724858258509585e-01
4.338504241748981638e-01 6.593047342900177910e-01
4.351915383142950233e-01 7.425336666290149878e-01
4.365326524536918829e-01 7.650488985986356738e-01
4.378737665930887424e-01 5.401291837973261067e-01
4.392148807324856019e-01 3.888048346429897606e-01
4.405559948718824614e-01 2.667422643820671624e-01
4.418971090112793210e-01 9.199056622885777301e-01
4.432382231506761250e-01 8.527821076170880588e-01
4.445793372900730400e-01 5.338334947142158171e-01
4.459204514294698440e-01 0.000000000000000000e+00
4.472615655688667591e-01 1.950359252563558243e-01
4.486026797082635631e-01 6.000353364107269272e-01
4.499437938476603671e-01 5.362049677006481829e-01
4.512849079870572822e-01 4.658198935608197644e-01
4.526260221264540862e-01 4.966056468115951361e-01
4.539671362658510012e-01 9.295241586010121182e-01
4.553082504052478052e-01 1.047275904108900590e+00
4.566493645446446092e-01 3.754223390880255806e-01
4.579904786840415243e-01 1.728445004938805596e-01
4.593315928234383283e-01 9.726678912087294293e-02
4.606727069628352433e-01 4.684425422694786789e-01
4.620138211022320474e-01 5.911324396915276225e-01
4.633549352416289624e-01 6.940603533345779397e-02
4.646960493810257664e-01 1.317221243510431350e-01
4.660371635204225704e-01 3.949079158436319403e-01
4.673782776598194855e-01 5.393133870606376945e-01
4.687193917992162895e-01 8.577408692726251616e-01
4.700605059386132045e-01 8.644904685464709360e-01
4.714016200780100085e-01 5.702011265335400481e-01
4.727427342174068681e-01 4.247709448384782149e-01
4.740838483568037276e-01 4.020792670457211671e-01
4.754249624962005871e-01 5.326957457404120078e-01
4.767660766355974467e-01 3.447382596748269634e-01
4.781071907749943062e-01 3.296838203808434287e-01
4.794483049143911102e-01 5.452828390028727767e-01
4.807894190537880252e-01 7.858484265219374265e-01
4.821305331931848293e-01 8.300367898339970907e-01
4.834716473325817443e-01 3.802495082054448972e-01
4.848127614719785483e-01 3.677926884990299072e-01
4.861538756113753523e-01 5.760649549519882839e-01
4.874949897507722674e-01 5.564753962797865938e-01
4.888361038901690714e-01 6.142739066710021234e-01
4.901772180295659864e-01 5.555727221092681134e-01
4.915183321689627904e-01 6.743923137568472725e-01
4.928594463083597055e-01 6.109482622595550083e-01
4.942005604477565095e-01 7.970970676759137064e-01
4.955416745871533135e-01 4.354540812746350298e-01
4.968827887265502286e-01 5.433725069874171254e-01
4.982239028659470326e-01 4.970509334040897897e-01
4.995650170053439476e-01 4.447359046480414690e-01
5.009061311447408071e-01 5.570861490813570072e-01
5.022472452841375556e-01 2.423241610300195248e-01
5.035883594235345262e-01 6.578281385003066362e-01
5.049294735629312747e-01 8.765886107102218716e-01
5.062705877023282452e-01 7.422177909103666593e-01
5.076117018417249938e-01 9.542715195364053216e-01
5.089528159811218533e-01 9.080444344940445944e-01
5.102939301205187128e-01 6.511011339087460215e-01
5.116350442599155723e-01 5.580997809853656122e-01
5.129761583993124319e-01 2.720436157658312482e-01
5.143172725387092914e-01 2.795209353416225895e-01
5.156583866781061509e-01 3.907721597042979056e-01
5.169995008175030105e-01 2.896913445811293286e-01
5.183406149568997590e-01 3.899665112332613148e-01
5.196817290962967295e-01 5.751689155759578398e-01
5.210228432356934780e-01 4.111523938890258023e-01
5.223639573750904486e-01 8.168636931788171296e-01
5.237050715144871971e-01 6.711389956382305400e-01
5.250461856538840566e-01 2.799739392063216314e-01
5.263872997932809161e-01 6.698912736385409517e-01
5.277284139326777757e-01 9.610397470569722600e-01
5.290695280720746352e-01 7.606807089903000474e-01
5.304106422114714947e-01 8.627564716831059854e-01
5.317517563508683542e-01 7.420877917129686807e-01
5.330928704902652138e-01 6.701025956966262243e-01
5.344339846296620733e-01 4.450708596560701835e-01
5.357750987690589328e-01 4.783521471762810506e-01
5.371162129084557924e-01 7.177575947015100155e-01
5.384573270478525409e-01 7.141682224094694220e-01
5.397984411872495114e-01 8.562765873250626214e-01
5.411395553266462599e-01 1.096098650125377105e+00
5.424806694660432305e-01 9.308783906435778022e-01
5.438217836054399790e-01 5.633757328491526550e-01
5.451628977448369495e-01 7.114249812934900774e-01
5.465040118842336980e-01 5.217713104272476698e-01
5.478451260236305576e-01 7.600679998798227643e-01
5.491862401630274171e-01 6.110453068413761457e-01
5.505273543024242766e-01 3.107088278806813264e-01
5.518684684418211361e-01 4.780859761948690334e-01
5.532095825812179957e-01 7.226998883408981555e-01
5.545506967206147442e-01 3.974559905745636001e-01
