# q (1/Angstrom), Intensity (arb)
2.078726924066784734e-02 5.178399459244080845e+02
2.212838338006469993e-02 8.419040682261743314e+02
2.346949751946154905e-02 1.206371279513442232e+03
2.481061165885840164e-02 1.720667522334570549e+03
2.615172579825525423e-02 1.968590343948440022e+03
2.749283993765210335e-02 2.062033144941144656e+03
2.883395407704895941e-02 2.143677951891086650e+03
3.017506821644580506e-02 2.197532148771685115e+03
3.151618235584265765e-02 2.202948578893447575e+03
3.285729649523951718e-02 2.195755407845498667e+03
3.419841063463636283e-02 2.181188682620716918e+03
3.553952477403321542e-02 2.161379808306056475e+03
3.688063891343006800e-02 2.138196260520791384e+03
3.822175305282692059e-02 2.117114772529495440e+03
3.956286719222376624e-02 2.089985158017333106e+03
4.090398133162062577e-02 2.063209159591558091e+03
4.224509547101747142e-02 2.032992125348998570e+03
4.358620961041432401e-02 2.002603350961179331e+03
4.492732374981117660e-02 1.963965372923535824e+03
4.626843788920802919e-02 1.941366178050274357e+03
4.760955202860488178e-02 1.923442804210505983e+03
4.895066616800172743e-02 1.894845032784914338e+03
5.029178030739858696e-02 1.857205330413679349e+03
5.163289444679544649e-02 1.822893210851119420e+03
5.297400858619229214e-02 1.796288093470317335e+03
5.431512272558913779e-02 1.761711447311259690e+03
5.565623686498599731e-02 1.720507547766317202e+03
5.699735100438284990e-02 1.678243011641889325e+03
5.833846514377969555e-02 1.640198541254313795e+03
5.967957928317654814e-02 1.602547099058858521e+03
6.102069342257340767e-02 1.560291247830682778e+03
6.236180756197025332e-02 1.519711040499650608e+03
6.370292170136709897e-02 1.482317243180166770e+03
6.504403584076395850e-02 1.444488040523614018e+03
6.638514998016080415e-02 1.405892352495036903e+03
6.772626411955766368e-02 1.359683927947129632e+03
6.906737825895450933e-02 1.316293460911737611e+03
7.040849239835136886e-02 1.273151167443757913e+03
7.174960653774821451e-02 1.228998053694443797e+03
7.309072067714506016e-02 1.181391713006670670e+03
7.443183481654190581e-02 1.139009614444487170e+03
7.577294895593877921e-02 1.096694659195701888e+03
7.711406309533562486e-02 1.055629531514807468e+03
7.845517723473247051e-02 1.011265100221925536e+03
7.979629137412933004e-02 9.722074526318691596e+02
8.113740551352617569e-02 9.330685656766112288e+02
8.247851965292302134e-02 8.960342274454192193e+02
8.381963379231988087e-02 8.598758811141137812e+02
8.516074793171674040e-02 8.206142352785343519e+02
8.650186207111358605e-02 7.822458729328415075e+02
8.784297621051043170e-02 7.452017154956639615e+02
8.918409034990729123e-02 7.113367110896289205e+02
9.052520448930413688e-02 6.787721314711827745e+02
9.186631862870098253e-02 6.473169789339356157e+02
9.320743276809784206e-02 6.165499341110161140e+02
9.454854690749470159e-02 5.845907469944463628e+02
9.588966104689154724e-02 5.530385789846611715e+02
9.723077518628839289e-02 5.251856022535066586e+02
9.857188932568525241e-02 4.954277780025814764e+02
9.991300346508209806e-02 4.685118989555385269e+02
1.012541176044789437e-01 4.431780701744596627e+02
1.025952317438758032e-01 4.175086956496903099e+02
1.039363458832726350e-01 3.909666781299413287e+02
1.052774600226694945e-01 3.662605591411287378e+02
1.066185741620663541e-01 3.447075002226140441e+02
1.079596883014631858e-01 3.246221534835907505e+02
1.093008024408600454e-01 3.029038854612601313e+02
1.106419165802569049e-01 2.825927264968168515e+02
1.119830307196537506e-01 2.646315647082853957e+02
1.133241448590506101e-01 2.463857680827704542e+02
1.146652589984474419e-01 2.289310023398636531e+02
1.160063731378443014e-01 2.112301447372033465e+02
1.173474872772411609e-01 1.956240554124484845e+02
1.186886014166380066e-01 1.808298090401723641e+02
1.200297155560348661e-01 1.666783149250097722e+02
1.213708296954317256e-01 1.550378992111239711e+02
1.227119438348285574e-01 1.424399030547436951e+02
1.240530579742254169e-01 1.309243149596360070e+02
1.253941721136222764e-01 1.191686403557400808e+02
1.267352862530191082e-01 1.078528195383843382e+02
1.280764003924159677e-01 9.953502636184063590e+01
1.294175145318128273e-01 9.114900124398420189e+01
1.307586286712096590e-01 8.183617946459131076e+01
1.320997428106065186e-01 7.430272739767475798e+01
1.334408569500033781e-01 6.662110975897216747e+01
1.347819710894002376e-01 5.944940064532082147e+01
1.361230852287970972e-01 5.358115652896158565e+01
1.374641993681939289e-01 4.857941506867254589e+01
1.388053135075907885e-01 4.385740447633007477e+01
1.401464276469876480e-01 3.809737321755805795e+01
1.414875417863844798e-01 3.474638385436081478e+01
1.428286559257813393e-01 3.040474153977915250e+01
1.441697700651781988e-01 2.682633580770733772e+01
1.455108842045750306e-01 2.424453300517357945e+01
1.468519983439718901e-01 2.100270407581892584e+01
1.481931124833687219e-01 1.898744288903291988e+01
1.495342266227655814e-01 1.759641688603049658e+01
1.508753407621624687e-01 1.509541124015203195e+01
1.522164549015593005e-01 1.384153813453994530e+01
1.535575690409561600e-01 1.286759042207800974e+01
1.548986831803530195e-01 1.196970895288040992e+01
1.562397973197498513e-01 1.052341695145938161e+01
1.575809114591467108e-01 9.404479428429638688e+00
1.589220255985435704e-01 9.694223313541073139e+00
1.602631397379404021e-01 9.288898018591225991e+00
1.616042538773372617e-01 8.734540496321542946e+00
1.629453680167341212e-01 8.473054681952945089e+00
1.642864821561309530e-01 8.304298507478875990e+00
1.656275962955278125e-01 9.017858752001046696e+00
1.669687104349246720e-01 9.006366683675324225e+00
1.683098245743215315e-01 9.669159781107225626e+00
1.696509387137183911e-01 1.029605483535088695e+01
1.709920528531152228e-01 1.044644117865010458e+01
1.723331669925120824e-01 1.097875160620009183e+01
1.736742811319089419e-01 1.080676561218773202e+01
1.750153952713057737e-01 1.144600750871238404e+01
1.763565094107026332e-01 1.215229530867324570e+01
1.776976235500994927e-01 1.245338813109584919e+01
1.790387376894963245e-01 1.328546557647250381e+01
1.803798518288931840e-01 1.401581220214427503e+01
1.817209659682900158e-01 1.367724022225820590e+01
1.830620801076868753e-01 1.396164137869973842e+01
1.844031942470837349e-01 1.564884851404980282e+01
1.857443083864805944e-01 1.639959645429691193e+01
1.870854225258774539e-01 1.641279943444730804e+01
1.884265366652743134e-01 1.647404102126972703e+01
1.897676508046711452e-01 1.657560014818000127e+01
1.911087649440680047e-01 1.684246252410410705e+01
1.924498790834648643e-01 1.685784553381623141e+01
1.937909932228616960e-01 1.733153210864155369e+01
1.951321073622585556e-01 1.635102446851730917e+01
1.964732215016554151e-01 1.649036450523793462e+01
1.978143356410522469e-01 1.724853399406438825e+01
1.991554497804491064e-01 1.765755764735862954e+01
2.004965639198459382e-01 1.733347753051404538e+01
2.018376780592427977e-01 1.717431445027411030e+01
2.031787921986396572e-01 1.747949694419655486e+01
2.045199063380365168e-01 1.682170052434481988e+01
2.058610204774333763e-01 1.685944843924085035e+01
2.072021346168302081e-01 1.680300697323369263e+01
2.085432487562270676e-01 1.662878270881539322e+01
2.098843628956239271e-01 1.606208061432242573e+01
2.112254770350207866e-01 1.603875801579754068e+01
2.125665911744176462e-01 1.587549237293265492e+01
2.139077053138144502e-01 1.540273721045774380e+01
2.152488194532113097e-01 1.554027905103789919e+01
2.165899335926081692e-01 1.526760762509688618e+01
2.179310477320050288e-01 1.384565066707077108e+01
2.192721618714018883e-01 1.386547938212105180e+01
2.206132760107987478e-01 1.314168669658472766e+01
2.219543901501955796e-01 1.280912819470070474e+01
2.232955042895924391e-01 1.224581933655042576e+01
2.246366184289892987e-01 1.169125290295984598e+01
2.259777325683861582e-01 1.184401513435882691e+01
2.273188467077830177e-01 1.125168216237585739e+01
2.286599608471798217e-01 1.048168206197860286e+01
2.300010749865766813e-01 9.895967924460805420e+00
2.313421891259735408e-01 9.210111503463537019e+00
2.326833032653704003e-01 8.635563490654533325e+00
2.340244174047672598e-01 8.313537497181002323e+00
2.353655315441641194e-01 7.624198777584325626e+00
2.367066456835609234e-01 7.485000185108518167e+00
2.380477598229577829e-01 7.246240588978679398e+00
2.393888739623546424e-01 7.070137829239811822e+00
2.407299881017515020e-01 6.580215114670068033e+00
2.420711022411483615e-01 6.387277865194732840e+00
2.434122163805451933e-01 4.817321236583865129e+00
2.447533305199420528e-01 4.705634175402011010e+00
2.460944446593389123e-01 4.811222635229384537e+00
2.474355587987357719e-01 5.012224806232239871e+00
2.487766729381326314e-01 4.632960365197092756e+00
2.501177870775294632e-01 4.062336646079131697e+00
2.514589012169263227e-01 3.608930927525733523e+00
2.528000153563231822e-01 3.012711589738671591e+00
2.541411294957200417e-01 3.053688637044757570e+00
2.554822436351169013e-01 2.907332113017758957e+00
2.568233577745137608e-01 2.517250756169303827e+00
2.581644719139106203e-01 2.270469675882651472e+00
2.595055860533074243e-01 2.446030634344310783e+00
2.608467001927042839e-01 2.347161512768892067e+00
2.621878143321011434e-01 2.434913224061858728e+00
2.635289284714980029e-01 2.539672818764501017e+00
2.648700426108948625e-01 1.746091179533109994e+00
2.662111567502916665e-01 2.109841095107952924e+00
2.675522708896885260e-01 2.145073953041531922e+00
2.688933850290853855e-01 1.765627551637436454e+00
2.702344991684822451e-01 2.224943968433464647e+00
2.715756133078791046e-01 2.418502217801560050e+00
2.729167274472759641e-01 1.987727736466126771e+00
2.742578415866727681e-01 2.019677746478578229e+00
2.755989557260696277e-01 1.630982419050866383e+00
2.769400698654664872e-01 1.647466297251796163e+00
2.782811840048633467e-01 1.766254142420805806e+00
2.796222981442602062e-01 1.281940028930165454e+00
2.809634122836570103e-01 1.469783046515416913e+00
2.823045264230538698e-01 1.129511958104700398e+00
2.836456405624507293e-01 1.335057763631837702e+00
2.849867547018475888e-01 1.370033670407948989e+00
2.863278688412444484e-01 1.460711128809094816e+00
2.876689829806413079e-01 1.742345810912425463e+00
2.890100971200381674e-01 1.670805256358931956e+00
2.903512112594350270e-01 1.466693369954683135e+00
2.916923253988318865e-01 1.231451615952806833e+00
2.930334395382287460e-01 1.532960096772200131e+00
2.943745536776256055e-01 2.473595764677526176e+00
2.957156678170224096e-01 2.437236652462829056e+00
2.970567819564192691e-01 2.345816505320939882e+00
2.983978960958161286e-01 2.208881798129681329e+00
2.997390102352129881e-01 2.213877235270302890e+00
3.010801243746098477e-01 2.326525872485575519e+00
3.024212385140067072e-01 2.446426920946976225e+00
3.037623526534035112e-01 2.634507248653747524e+00
3.051034667928003707e-01 2.219970939533624232e+00
3.064445809321972303e-01 2.325989415066885613e+00
3.077856950715940898e-01 2.838769592092546645e+00
3.091268092109909493e-01 2.449317075375461172e+00
3.104679233503877533e-01 2.664253159597848253e+00
3.118090374897846129e-01 2.274510229309186116e+00
3.131501516291814724e-01 2.101641286101752826e+00
3.144912657685783319e-01 2.046858922640623746e+00
3.158323799079751915e-01 1.901535605002393936e+00
3.171734940473720510e-01 1.683058032429002537e+00
3.185146081867689105e-01 2.098261151316108908e+00
3.198557223261657700e-01 2.407697451167763347e+00
3.211968364655626296e-01 2.202941195327213109e+00
3.225379506049594891e-01 2.170561485049475436e+00
3.238790647443563486e-01 2.447797637221142963e+00
3.252201788837532082e-01 2.265374336120956400e+00
3.265612930231500122e-01 2.131405580641214215e+00
3.279024071625468717e-01 2.423191742268386406e+00
3.292435213019437312e-01 2.636521347982267116e+00
3.305846354413405908e-01 2.296830551409399845e+00
3.319257495807374503e-01 2.269723478453613552e+00
3.332668637201342543e-01 1.862644211297777019e+00
3.346079778595311138e-01 1.840736781748759654e+00
3.359490919989279734e-01 1.959777955556319284e+00
3.372902061383248329e-01 1.808895594324866352e+00
3.386313202777216924e-01 2.077111103813948034e+00
3.399724344171185519e-01 1.468206967507626359e+00
3.413135485565153560e-01 1.292189371972796152e+00
3.426546626959122155e-01 9.531072026477716008e-01
3.439957768353090750e-01 1.244928199777064037e+00
3.453368909747059345e-01 1.466521805406145518e+00
3.466780051141027941e-01 1.544423187461731573e+00
3.480191192534995981e-01 1.285115519740429590e+00
3.493602333928964576e-01 1.028058412705902924e+00
3.507013475322933171e-01 1.282824450379735026e+00
3.520424616716901767e-01 1.186997957011229232e+00
3.533835758110870362e-01 1.148474852134810931e+00
3.547246899504838957e-01 1.000103159065801606e+00
3.560658040898807553e-01 9.486870042748449805e-01
3.574069182292776148e-01 8.039591031626969198e-01
3.587480323686744743e-01 7.418776615888162951e-01
3.600891465080713338e-01 1.231232648883931802e+00
3.614302606474681934e-01 1.344873863940179604e+00
3.627713747868649974e-01 1.383001065650859118e+00
3.641124889262618569e-01 1.396776483314297934e+00
3.654536030656587164e-01 9.332058740839812572e-01
3.667947172050555760e-01 6.501941093382015424e-01
3.681358313444524355e-01 9.593148862215628014e-01
3.694769454838492950e-01 7.162320324449638065e-01
3.708180596232460990e-01 1.088997198436501890e+00
3.721591737626429586e-01 1.044162209369631000e+00
3.735002879020398181e-01 9.964021454701850189e-01
3.748414020414366776e-01 7.019271499964077066e-01
3.761825161808335372e-01 6.728507755495058973e-01
3.775236303202303967e-01 5.382783867051585958e-01
3.788647444596272007e-01 7.517562248759190879e-01
3.802058585990240602e-01 8.375779519929196226e-01
3.815469727384209198e-01 1.070236451119448873e+00
3.828880868778177793e-01 1.459479487726021318e+00
3.842292010172146388e-01 9.039389445908270204e-01
3.855703151566114428e-01 7.234150516805257780e-01
3.869114292960083024e-01 7.573010223675709085e-01
3.882525434354051619e-01 4.846653919221921569e-01
3.895936575748020214e-01 5.250471661302356097e-01
3.909347717141988809e-01 7.240447411883366158e-01
3.922758858535957405e-01 8.677784619786379494e-01
3.936169999929926000e-01 1.048214282072123638e+00
3.949581141323894595e-01 5.169173356690208720e-01
3.962992282717863191e-01 9.084917837527157758e-01
3.976403424111831786e-01 1.090398090271257558e+00
3.989814565505800381e-01 8.850169702058039434e-01
4.003225706899768976e-01 7.069492792270182235e-01
4.016636848293737572e-01 9.921824796505163135e-01
4.030047989687706167e-01 8.776174072797431336e-01
4.043459131081674207e-01 8.582614437850537570e-01
4.056870272475643358e-01 8.768619522226899221e-01
4.070281413869611398e-01 7.140514663856549760e-01
4.083692555263580548e-01 6.500756116031638498e-01
4.097103696657548588e-01 7.786689440036980159e-01
4.110514838051517739e-01 8.921473469731537875e-01
4.123925979445485779e-01 6.889481807078610132e-01
4.137337120839453819e-01 8.023295357928859062e-01
4.150748262233422969e-01 6.511201807472772884e-01
4.164159403627391010e-01 6.960184442712744612e-01
4.177570545021360160e-01 7.041821484935297804e-01
4.190981686415328200e-01 7.860752313616856668e-01
4.204392827809296240e-01 6.773012863477347878e-01
4.217803969203265391e-01 9.676821849566792366e-01
4.231215110597233431e-01 7.870400164186719394e-01
4.244626251991202581e-01 6.089763410170192515e-01
4.258037393385170621e-01 8.815575772407200361e-01
4.271448534779138662e-01 8.708812915981170022e-01
4.284859676173107812e-01 1.164426377187687933e+00
4.298270817567075852e-01 1.280361881762004828e+00
4.311681958961045003e-01 1.324173155603340035e+00
4.325093100355013043e-01 1.106916641030032622e+00
4.338504241748981638e-01 9.863760079417716042e-01
4.351915383142950233e-01 9.077310905907793881e-01
4.365326524536918829e-01 1.018003284990356860e+00
4.378737665930887424e-01 1.000525278110060867e+00
4.392148807324856019e-01 5.680748000647994900e-01
4.405559948718824614e-01 8.905746558361826715e-01
4.418971090112793210e-01 1.248782174630449049e+00
4.432382231506761250e-01 9.882231504757115204e-01
4.445793372900730400e-01 7.534004033194889871e-01
4.459204514294698440e-01 5.453660440118497377e-01
4.472615655688667591e-01 6.491327645244950872e-01
4.486026797082635631e-01 7.220360272206320928e-01
4.499437938476603671e-01 7.882804660970563759e-01
4.512849079870572822e-01 6.519780280673472816e-01
4.526260221264540862e-01 9.434761118729682039e-01
4.539671362658510012e-01 9.636238094184861325e-01
4.553082504052478052e-01 6.577975057935674386e-01
4.566493645446446092e-01 3.424508404486843460e-01
4.579904786840415243e-01 3.799647994223462888e-01
4.593315928234383283e-01 6.596930221761638791e-01
4.606727069628352433e-01 6.210828340170948536e-01
4.620138211022320474e-01 4.906853757377334091e-01
4.633549352416289624e-01 4.545977446692930357e-01
4.646960493810257664e-01 5.872253240803004815e-01
4.660371635204225704e-01 9.723345810055832317e-01
4.673782776598194855e-01 9.295878629926903614e-01
4.687193917992162895e-01 1.032735458699839626e+00
4.700605059386132045e-01 7.681216004721207469e-01
4.714016200780100085e-01 3.225900982468203892e-01
4.727427342174068681e-01 4.268627294375164638e-01
4.740838483568037276e-01 5.468900433216816737e-01
4.754249624962005871e-01 3.405195932652276269e-01
4.767660766355974467e-01 3.127707694123458282e-01
4.781071907749943062e-01 4.188909828549967074e-01
4.794483049143911102e-01 6.359258541071994841e-01
4.807894190537880252e-01 6.302834520615192559e-01
4.821305331931848293e-01 4.373916923976608473e-01
4.834716473325817443e-01 3.851309206200355106e-01
4.848127614719785483e-01 5.434617942227291110e-01
4.861538756113753523e-01 7.695158953460250473e-01
4.874949897507722674e-01 8.677592819381771960e-01
4.888361038901690714e-01 7.857501817166792080e-01
4.901772180295659864e-01 5.519581759390987941e-01
4.915183321689627904e-01 6.203480263376164316e-01
4.928594463083597055e-01 5.609659570133587181e-01
4.942005604477565095e-01 6.262294766984197736e-01
4.955416745871533135e-01 5.458762967358552487e-01
4.968827887265502286e-01 6.621015730677157762e-01
4.982239028659470326e-01 6.234921933982704445e-01
4.995650170053439476e-01 4.743864707607556852e-01
5.009061311447408071e-01 4.754262942346798582e-01
5.022472452841375556e-01 1.775924340338406182e-01
5.035883594235345262e-01 5.683405092532325398e-01
5.049294735629312747e-01 3.826557657255662548e-01
5.062705877023282452e-01 6.087865897741124854e-01
5.076117018417249938e-01 5.475250549404648837e-01
5.089528159811218533e-01 5.645441362302605626e-01
5.102939301205187128e-01 2.445659094046135351e-01
5.116350442599155723e-01 2.351157086095696513e-01
5.129761583993124319e-01 1.833018797664109911e-01
5.143172725387092914e-01 3.427101457164667409e-01
5.156583866781061509e-01 7.093245428755068360e-02
5.169995008175030105e-01 0.000000000000000000e+00
5.183406149568997590e-01 3.534679931747817250e-01
5.196817290962967295e-01 3.845197887152806970e-01
5.210228432356934780e-01 3.356446341562957514e-03
5.223639573750904486e-01 2.878333027965922497e-01
5.237050715144871971e-01 3.674238774839153621e-01
5.250461856538840566e-01 3.276053781185765956e-01
5.263872997932809161e-01 6.158231450660380801e-01
5.277284139326777757e-01 6.715889255634621691e-01
5.290695280720746352e-01 5.410133745125023097e-01
5.304106422114714947e-01 5.643293677355458726e-01
5.317517563508683542e-01 1.412437302245521664e-01
5.330928704902652138e-01 1.659769057550803950e-01
5.344339846296620733e-01 3.290027704718241353e-01
5.357750987690589328e-01 2.578744863426365441e-01
5.371162129084557924e-01 6.873409175727971387e-01
5.384573270478525409e-01 6.818365914991062482e-01
5.397984411872495114e-01 7.976332123907710070e-01
5.411395553266462599e-01 1.002869804215258398e+00
5.424806694660432305e-01 8.135134103248375936e-01
5.438217836054399790e-01 3.835298059359857348e-01
5.451628977448369495e-01 3.544938012980978215e-01
5.465040118842336980e-01 4.879557624009933647e-01
5.478451260236305576e-01 4.181888611495878649e-01
5.491862401630274171e-01 4.218888451571558562e-01
5.505273543024242766e-01 3.143534155235627736e-01
5.518684684418211361e-01 2.559744318284202791e-01
5.532095825812179957e-01 2.267995884326197142e-01
5.545506967206147442e-01 3.718930359520982165e-01
