# q (1/Angstrom), Intensity (arb)
2.078726924066784734e-02 5.373152602759942056e+02
2.212838338006469993e-02 8.684665577959767688e+02
2.346949751946154905e-02 1.242677830933858331e+03
2.481061165885840164e-02 1.760918024916518334e+03
2.615172579825525423e-02 2.007945234819282177e+03
2.749283993765210335e-02 2.112655878800927439e+03
2.883395407704895941e-02 2.203430842753199158e+03
3.017506821644580506e-02 2.247737653051612142e+03
3.151618235584265765e-02 2.252288203154621442e+03
3.285729649523951718e-02 2.247937685194712685e+03
3.419841063463636283e-02 2.228335706346977986e+03
3.553952477403321542e-02 2.212881530864265187e+03
3.688063891343006800e-02 2.185759964460905849e+03
3.822175305282692059e-02 2.159056136873649848e+03
3.956286719222376624e-02 2.132045373736938018e+03
4.090398133162062577e-02 2.108836225727406145e+03
4.224509547101747142e-02 2.077430497042773368e+03
4.358620961041432401e-02 2.048143170998894675e+03
4.492732374981117660e-02 2.018272917818607311e+03
4.626843788920802919e-02 1.985663782852378745e+03
4.760955202860488178e-02 1.969451521925510406e+03
4.895066616800172743e-02 1.940203065556977435e+03
5.029178030739858696e-02 1.903023855173013771e+03
5.163289444679544649e-02 1.868767172754681724e+03
5.297400858619229214e-02 1.835963125596738337e+03
5.431512272558913779e-02 1.802010595259286447e+03
5.565623686498599731e-02 1.758887080030967581e+03
5.699735100438284990e-02 1.714923830749276476e+03
5.833846514377969555e-02 1.677041022703938552e+03
5.967957928317654814e-02 1.641783100320337553e+03
6.102069342257340767e-02 1.597382337687522522e+03
6.236180756197025332e-02 1.557259750343366022e+03
6.370292170136709897e-02 1.514240320450654508e+03
6.504403584076395850e-02 1.477684000691399433e+03
6.638514998016080415e-02 1.437671539890981421e+03
6.772626411955766368e-02 1.395526191525111926e+03
6.906737825895450933e-02 1.346489630884101871e+03
7.040849239835136886e-02 1.300990035924766062e+03
7.174960653774821451e-02 1.255482724317261500e+03
7.309072067714506016e-02 1.210949382683990962e+03
7.443183481654190581e-02 1.167720622299481647e+03
7.577294895593877921e-02 1.126676217297201674e+03
7.711406309533562486e-02 1.081100642500949107e+03
7.845517723473247051e-02 1.036360370676275124e+03
7.979629137412933004e-02 9.982902972450422112e+02
8.113740551352617569e-02 9.590029172550342764e+02
8.247851965292302134e-02 9.180549425848528244e+02
8.381963379231988087e-02 8.806954392443310553e+02
8.516074793171674040e-02 8.415616390359037950e+02
8.650186207111358605e-02 8.027565435197038823e+02
8.784297621051043170e-02 7.667176286350185137e+02
8.918409034990729123e-02 7.318684234919810478e+02
9.052520448930413688e-02 6.963996402589845047e+02
9.186631862870098253e-02 6.619039026907689731e+02
9.320743276809784206e-02 6.295444070466728590e+02
9.454854690749470159e-02 5.973972516560528447e+02
9.588966104689154724e-02 5.673018064884414571e+02
9.723077518628839289e-02 5.383467315948787473e+02
9.857188932568525241e-02 5.068866316308773321e+02
9.991300346508209806e-02 4.766702347415461531e+02
1.012541176044789437e-01 4.512713370658906342e+02
1.025952317438758032e-01 4.261608596453623932e+02
1.039363458832726350e-01 3.997554233940447261e+02
1.052774600226694945e-01 3.755241636824709417e+02
1.066185741620663541e-01 3.527308283011099093e+02
1.079596883014631858e-01 3.306186159403716829e+02
1.093008024408600454e-01 3.093088487474822159e+02
1.106419165802569049e-01 2.893939368452815302e+02
1.119830307196537506e-01 2.709933108415298193e+02
1.133241448590506101e-01 2.542581828316305916e+02
1.146652589984474419e-01 2.355108393588132003e+02
1.160063731378443014e-01 2.163305349515234752e+02
1.173474872772411609e-01 2.012473558195512169e+02
1.186886014166380066e-01 1.857735006647113210e+02
1.200297155560348661e-01 1.717174327370267406e+02
1.213708296954317256e-01 1.576374395502234051e+02
1.227119438348285574e-01 1.449175843887709902e+02
1.240530579742254169e-01 1.327800636983227491e+02
1.253941721136222764e-01 1.208660420740994397e+02
1.267352862530191082e-01 1.112986817556030417e+02
1.280764003924159677e-01 1.012239923404258235e+02
1.294175145318128273e-01 9.189629017949748402e+01
1.307586286712096590e-01 8.375468379882644854e+01
1.320997428106065186e-01 7.544285015510713777e+01
1.334408569500033781e-01 6.727885676653600910e+01
1.347819710894002376e-01 6.181064948400349124e+01
1.361230852287970972e-01 5.580825423786713202e+01
1.374641993681939289e-01 4.930518035008891786e+01
1.388053135075907885e-01 4.422610358881267700e+01
1.401464276469876480e-01 3.905793858078530434e+01
1.414875417863844798e-01 3.470748173570198958e+01
1.428286559257813393e-01 3.078367371727838986e+01
1.441697700651781988e-01 2.800728123298392802e+01
1.455108842045750306e-01 2.510628975216580727e+01
1.468519983439718901e-01 2.159610027766397877e+01
1.481931124833687219e-01 1.925461991640374038e+01
1.495342266227655814e-01 1.720009731347558102e+01
1.508753407621624687e-01 1.583244586949676602e+01
1.522164549015593005e-01 1.439404091483194748e+01
1.535575690409561600e-01 1.309545617171279730e+01
1.548986831803530195e-01 1.222878524268358547e+01
1.562397973197498513e-01 1.124384813090505020e+01
1.575809114591467108e-01 1.035406277345015269e+01
1.589220255985435704e-01 1.017870592554284315e+01
1.602631397379404021e-01 9.581116100010603986e+00
1.616042538773372617e-01 8.694097758417271393e+00
1.629453680167341212e-01 8.709048303203815067e+00
1.642864821561309530e-01 9.085766913170772341e+00
1.656275962955278125e-01 9.409583043976226691e+00
1.669687104349246720e-01 9.133085273762674205e+00
1.683098245743215315e-01 9.950724471250623537e+00
1.696509387137183911e-01 1.028381898121479310e+01
1.709920528531152228e-01 1.118339810931446721e+01
1.723331669925120824e-01 1.175758282140968447e+01
1.736742811319089419e-01 1.119188422863336996e+01
1.750153952713057737e-01 1.226618997004672451e+01
1.763565094107026332e-01 1.269741007057302795e+01
1.776976235500994927e-01 1.240543269024072970e+01
1.790387376894963245e-01 1.292749560127565189e+01
1.803798518288931840e-01 1.389109322741040842e+01
1.817209659682900158e-01 1.445401002730001494e+01
1.830620801076868753e-01 1.511742940363686216e+01
1.844031942470837349e-01 1.516183875665851133e+01
1.857443083864805944e-01 1.541361958158300638e+01
1.870854225258774539e-01 1.641811386747239965e+01
1.884265366652743134e-01 1.642518789482190300e+01
1.897676508046711452e-01 1.752191887616200461e+01
1.911087649440680047e-01 1.806388548798963711e+01
1.924498790834648643e-01 1.785674642014660662e+01
1.937909932228616960e-01 1.817417767552903740e+01
1.951321073622585556e-01 1.813051616611316774e+01
1.964732215016554151e-01 1.775447250513914810e+01
1.978143356410522469e-01 1.810938595151161223e+01
1.991554497804491064e-01 1.808651911900874154e+01
2.004965639198459382e-01 1.754540545816487906e+01
2.018376780592427977e-01 1.797192022151946844e+01
2.031787921986396572e-01 1.761209531658363403e+01
2.045199063380365168e-01 1.763630783324146023e+01
2.058610204774333763e-01 1.783672317148064224e+01
2.072021346168302081e-01 1.778175179915110959e+01
2.085432487562270676e-01 1.776086692089045016e+01
2.098843628956239271e-01 1.699758787159791495e+01
2.112254770350207866e-01 1.669870714163384662e+01
2.125665911744176462e-01 1.654644273742150062e+01
2.139077053138144502e-01 1.575249130216052151e+01
2.152488194532113097e-01 1.518184077776140839e+01
2.165899335926081692e-01 1.543563427665539223e+01
2.179310477320050288e-01 1.473046961523618847e+01
2.192721618714018883e-01 1.464339680877985472e+01
2.206132760107987478e-01 1.335609264402189922e+01
2.219543901501955796e-01 1.322237350766118880e+01
2.232955042895924391e-01 1.306263004059952948e+01
2.246366184289892987e-01 1.217519864140696484e+01
2.259777325683861582e-01 1.169826471263739620e+01
2.273188467077830177e-01 1.109533383675682217e+01
2.286599608471798217e-01 1.077380164996422707e+01
2.300010749865766813e-01 1.049603697772668909e+01
2.313421891259735408e-01 1.009473781418147098e+01
2.326833032653704003e-01 9.119302753470492462e+00
2.340244174047672598e-01 8.694195760223692560e+00
2.353655315441641194e-01 8.353006167237580826e+00
2.367066456835609234e-01 7.723350809197697231e+00
2.380477598229577829e-01 7.278445514798278282e+00
2.393888739623546424e-01 6.863891422010809151e+00
2.407299881017515020e-01 6.518334421501421616e+00
2.420711022411483615e-01 6.601685947458392434e+00
2.434122163805451933e-01 5.492493507924677942e+00
2.447533305199420528e-01 5.260586495744973945e+00
2.460944446593389123e-01 5.021317745369628938e+00
2.474355587987357719e-01 4.428658298958382034e+00
2.487766729381326314e-01 4.350588610382459365e+00
2.501177870775294632e-01 3.906926303162549630e+00
2.514589012169263227e-01 4.013446546628642864e+00
2.528000153563231822e-01 3.822642290195020109e+00
2.541411294957200417e-01 3.749947558759657795e+00
2.554822436351169013e-01 3.521487363859534980e+00
2.568233577745137608e-01 2.805550936755267344e+00
2.581644719139106203e-01 2.425116558807090428e+00
2.595055860533074243e-01 2.540036158150684287e+00
2.608467001927042839e-01 2.936549477801435160e+00
2.621878143321011434e-01 2.541591725381010747e+00
2.635289284714980029e-01 1.994194298511615671e+00
2.648700426108948625e-01 1.921699422368718047e+00
2.662111567502916665e-01 1.966665638350022505e+00
2.675522708896885260e-01 1.898292111849599451e+00
2.688933850290853855e-01 1.718226411291340128e+00
2.702344991684822451e-01 2.206652470125774812e+00
2.715756133078791046e-01 2.863177633491673646e+00
2.729167274472759641e-01 2.025835431351879379e+00
2.742578415866727681e-01 2.161464300715948639e+00
2.755989557260696277e-01 2.024169465239850751e+00
2.769400698654664872e-01 2.127291307959765732e+00
2.782811840048633467e-01 2.059112341349049302e+00
2.796222981442602062e-01 1.745460536964245080e+00
2.809634122836570103e-01 1.664668302090660745e+00
2.823045264230538698e-01 1.653846716632102698e+00
2.836456405624507293e-01 1.910847942433278490e+00
2.849867547018475888e-01 1.731691217707634678e+00
2.863278688412444484e-01 1.759312319301770344e+00
2.876689829806413079e-01 1.970650835531444045e+00
2.890100971200381674e-01 2.023715070336223221e+00
2.903512112594350270e-01 1.657626621991610705e+00
2.916923253988318865e-01 1.843294937880344264e+00
2.930334395382287460e-01 2.048776042318351642e+00
2.943745536776256055e-01 2.502298910163318624e+00
2.957156678170224096e-01 2.382296976710151171e+00
2.970567819564192691e-01 2.171229223253277496e+00
2.983978960958161286e-01 2.347652042854747378e+00
2.997390102352129881e-01 2.421632059247528446e+00
3.010801243746098477e-01 2.561770879380077304e+00
3.024212385140067072e-01 2.733904902531023140e+00
3.037623526534035112e-01 2.798611410634222807e+00
3.051034667928003707e-01 2.584904628023991791e+00
3.064445809321972303e-01 2.786246561540906441e+00
3.077856950715940898e-01 3.036602408694179189e+00
3.091268092109909493e-01 2.442258935222326954e+00
3.104679233503877533e-01 2.765370977612761294e+00
3.118090374897846129e-01 2.672538012011727915e+00
3.131501516291814724e-01 2.634014657191769970e+00
3.144912657685783319e-01 2.428777523375373448e+00
3.158323799079751915e-01 2.432644102167941469e+00
3.171734940473720510e-01 2.348363930457566084e+00
3.185146081867689105e-01 2.533053386638485449e+00
3.198557223261657700e-01 2.305242432471274583e+00
3.211968364655626296e-01 2.348856528827298007e+00
3.225379506049594891e-01 2.842559729762243137e+00
3.238790647443563486e-01 2.799349556242319181e+00
3.252201788837532082e-01 2.374450638426452542e+00
3.265612930231500122e-01 2.042628523191211798e+00
3.279024071625468717e-01 2.431985347353034399e+00
3.292435213019437312e-01 2.224270601705484296e+00
3.305846354413405908e-01 2.269002281258096332e+00
3.319257495807374503e-01 2.249841956340915772e+00
3.332668637201342543e-01 1.922194065104051219e+00
3.346079778595311138e-01 1.724638617019706999e+00
3.359490919989279734e-01 2.219140532763205442e+00
3.372902061383248329e-01 1.805912910362096113e+00
3.386313202777216924e-01 2.126077844689348240e+00
3.399724344171185519e-01 1.662386007209974537e+00
3.413135485565153560e-01 1.447164658461915110e+00
3.426546626959122155e-01 1.605748144740402950e+00
3.439957768353090750e-01 1.586126925895044337e+00
3.453368909747059345e-01 1.497452033538365868e+00
3.466780051141027941e-01 1.554319315889742370e+00
3.480191192534995981e-01 1.331575594082508474e+00
3.493602333928964576e-01 1.104046518049699444e+00
3.507013475322933171e-01 1.067198929258253770e+00
3.520424616716901767e-01 1.444500390692795122e+00
3.533835758110870362e-01 1.257679635620405634e+00
3.547246899504838957e-01 9.473316163388290079e-01
3.560658040898807553e-01 8.466861307126549718e-01
3.574069182292776148e-01 7.930238290747411156e-01
3.587480323686744743e-01 8.347408102078901493e-01
3.600891465080713338e-01 1.486555273650225217e+00
3.614302606474681934e-01 1.372717866210351190e+00
3.627713747868649974e-01 1.399942729063312186e+00
3.641124889262618569e-01 1.066604561292891162e+00
3.654536030656587164e-01 9.161474107505682696e-01
3.667947172050555760e-01 8.149646514581831980e-01
3.681358313444524355e-01 8.818580460143010669e-01
3.694769454838492950e-01 9.303013280937335594e-01
3.708180596232460990e-01 1.351607322795004507e+00
3.721591737626429586e-01 1.163585781356061943e+00
3.735002879020398181e-01 1.162293037956814601e+00
3.748414020414366776e-01 9.770771970818401542e-01
3.761825161808335372e-01 8.752682559817657193e-01
3.775236303202303967e-01 7.214581905895727232e-01
3.788647444596272007e-01 9.977919328259616805e-01
3.802058585990240602e-01 9.898178593071378373e-01
3.815469727384209198e-01 1.036092776462055554e+00
3.828880868778177793e-01 1.361743738815093252e+00
3.842292010172146388e-01 9.342428844381203135e-01
3.855703151566114428e-01 7.514529090904460418e-01
3.869114292960083024e-01 4.695575232108382124e-01
3.882525434354051619e-01 2.717469640582521606e-01
3.895936575748020214e-01 4.452862194898727921e-01
3.909347717141988809e-01 6.210984000090888912e-01
3.922758858535957405e-01 8.194747358695906314e-01
3.936169999929926000e-01 1.129329871159356458e+00
3.949581141323894595e-01 5.587938875928983862e-01
3.962992282717863191e-01 9.605071365581068221e-01
3.976403424111831786e-01 1.010067394227206705e+00
3.989814565505800381e-01 8.351200522895538825e-01
4.003225706899768976e-01 1.116559229612846593e+00
4.016636848293737572e-01 1.065281079933811270e+00
4.030047989687706167e-01 8.905091963640927588e-01
4.043459131081674207e-01 1.276780661990514432e+00
4.056870272475643358e-01 1.082590969975328221e+00
4.070281413869611398e-01 9.322733317043230272e-01
4.083692555263580548e-01 8.063155699262836151e-01
4.097103696657548588e-01 1.083797382372253537e+00
4.110514838051517739e-01 1.431634515885903625e+00
4.123925979445485779e-01 1.502709341408206001e+00
4.137337120839453819e-01 1.053223550162854849e+00
4.150748262233422969e-01 7.152795591353111604e-01
4.164159403627391010e-01 6.916848873685808030e-01
4.177570545021360160e-01 9.612097445835416920e-01
4.190981686415328200e-01 9.623790621744205964e-01
4.204392827809296240e-01 7.061086930147979501e-01
4.217803969203265391e-01 1.028908224389233794e+00
4.231215110597233431e-01 9.116976526060653896e-01
4.244626251991202581e-01 7.975341692831747764e-01
4.258037393385170621e-01 9.055357860463359998e-01
4.271448534779138662e-01 1.222323338404500248e+00
4.284859676173107812e-01 1.111921236066663710e+00
4.298270817567075852e-01 1.035303683347322590e+00
4.311681958961045003e-01 1.233333611939102070e+00
4.325093100355013043e-01 9.753148609100250610e-01
4.338504241748981638e-01 9.295328877173076876e-01
4.351915383142950233e-01 9.870857424358945309e-01
4.365326524536918829e-01 1.130039955123692152e+00
4.378737665930887424e-01 8.733269874897899854e-01
4.392148807324856019e-01 6.616111556053638765e-01
4.405559948718824614e-01 9.267027244612791037e-01
4.418971090112793210e-01 1.227445023002530888e+00
4.432382231506761250e-01 1.073389043173051505e+00
4.445793372900730400e-01 8.104475712957892597e-01
4.459204514294698440e-01 6.822369568584818467e-01
4.472615655688667591e-01 5.578140601420713551e-01
4.486026797082635631e-01 6.393909469618535013e-01
4.499437938476603671e-01 9.456094020483547524e-01
4.512849079870572822e-01 1.063525248265982270e+00
4.526260221264540862e-01 9.754991141400637389e-01
4.539671362658510012e-01 1.007986537051507980e+00
4.553082504052478052e-01 1.159469386585804784e+00
4.566493645446446092e-01 9.647948667205170636e-01
4.579904786840415243e-01 7.077565844776714243e-01
4.593315928234383283e-01 6.944734002954078278e-01
4.606727069628352433e-01 9.300250240319130057e-01
4.620138211022320474e-01 8.148344337864372733e-01
4.633549352416289624e-01 5.169618786996323934e-01
4.646960493810257664e-01 5.575794321248679353e-01
4.660371635204225704e-01 7.256087815750404957e-01
4.673782776598194855e-01 1.025333935208834646e+00
4.687193917992162895e-01 1.125795507717988642e+00
4.700605059386132045e-01 9.022027412129745017e-01
4.714016200780100085e-01 5.409862127603091153e-01
4.727427342174068681e-01 5.672611004802874390e-01
4.740838483568037276e-01 5.299795252143937319e-01
4.754249624962005871e-01 4.399901746995027452e-01
4.767660766355974467e-01 3.715508458307468231e-01
4.781071907749943062e-01 6.692221335836876506e-01
4.794483049143911102e-01 8.699852235737637329e-01
4.807894190537880252e-01 8.598250684574821889e-01
4.821305331931848293e-01 6.671526007159442884e-01
4.834716473325817443e-01 2.019887932518287244e-01
4.848127614719785483e-01 6.198248678512641163e-01
4.861538756113753523e-01 9.183638974198871097e-01
4.874949897507722674e-01 8.778591089081402288e-01
4.888361038901690714e-01 7.997895758963551316e-01
4.901772180295659864e-01 5.930946590084218428e-01
4.915183321689627904e-01 1.868648750383457013e-01
4.928594463083597055e-01 2.977313396186289651e-01
4.942005604477565095e-01 7.449448990179234897e-01
4.955416745871533135e-01 8.456200173714805146e-01
4.968827887265502286e-01 5.991974811289537683e-01
4.982239028659470326e-01 2.953558734367689453e-01
4.995650170053439476e-01 5.495275793705118872e-01
5.009061311447408071e-01 5.260822058793053202e-01
5.022472452841375556e-01 0.000000000000000000e+00
5.035883594235345262e-01 6.922023600558375733e-01
5.049294735629312747e-01 7.969119435632947557e-01
5.062705877023282452e-01 8.269156126477810176e-01
5.076117018417249938e-01 8.502974643786274100e-01
5.089528159811218533e-01 5.410890072799432460e-01
5.102939301205187128e-01 3.999709888028135651e-01
5.116350442599155723e-01 7.407328997780311397e-01
5.129761583993124319e-01 5.526174815736624168e-01
5.143172725387092914e-01 3.432717279303361124e-01
5.156583866781061509e-01 3.184513277117702046e-01
5.169995008175030105e-01 9.770685813462876013e-02
5.183406149568997590e-01 1.588622701495410183e-01
5.196817290962967295e-01 5.102361548495082388e-01
5.210228432356934780e-01 2.776502330061774160e-01
5.223639573750904486e-01 3.878178686351390070e-01
5.237050715144871971e-01 7.206845236875949468e-01
5.250461856538840566e-01 5.825110162674036474e-01
5.263872997932809161e-01 6.141493244455844547e-01
5.277284139326777757e-01 9.034428618902694552e-01
5.290695280720746352e-01 5.913255290188814683e-01
5.304106422114714947e-01 6.393056131112331286e-01
5.317517563508683542e-01 7.243183333294709314e-01
5.330928704902652138e-01 6.550467495846419297e-01
5.344339846296620733e-01 6.006084709746346562e-01
5.357750987690589328e-01 6.890138655723561101e-01
5.371162129084557924e-01 1.090742662690836084e+00
5.384573270478525409e-01 9.658169101122666689e-01
5.397984411872495114e-01 9.834353484965632219e-01
5.411395553266462599e-01 9.542296981864666350e-01
5.424806694660432305e-01 6.860823645789011493e-01
5.438217836054399790e-01 3.919063635999080475e-01
5.451628977448369495e-01 3.728580196090121035e-01
5.465040118842336980e-01 4.663857326019709149e-01
5.478451260236305576e-01 7.523391664304313053e-01
5.491862401630274171e-01 6.527466355310878043e-01
5.505273543024242766e-01 7.132628463472627800e-01
5.518684684418211361e-01 3.416952367270482682e-01
5.532095825812179957e-01 4.764303099481068671e-01
5.545506967206147442e-01 6.779296985358769234e-01
