# q (1/Angstrom), Intensity (arb)
2.078726924066784734e-02 8.631949999602672960e+02
2.212838338006469993e-02 1.389375283262029370e+03
2.346949751946154905e-02 1.975452168733890403e+03
2.481061165885840164e-02 2.796644914001482448e+03
2.615172579825525423e-02 3.204185051778388697e+03
2.749283993765210335e-02 3.371031946173649430e+03
2.883395407704895941e-02 3.498785779389726486e+03
3.017506821644580506e-02 3.568995082332789480e+03
3.151618235584265765e-02 3.576818304238988276e+03
3.285729649523951718e-02 3.561411761166849374e+03
3.419841063463636283e-02 3.535419055405910967e+03
3.553952477403321542e-02 3.500026426409275700e+03
3.688063891343006800e-02 3.461551961500767902e+03
3.822175305282692059e-02 3.428479647580699293e+03
3.956286719222376624e-02 3.383628347880629008e+03
4.090398133162062577e-02 3.337628808263939845e+03
4.224509547101747142e-02 3.290995013833864505e+03
4.358620961041432401e-02 3.245211325113567909e+03
4.492732374981117660e-02 3.194766875757086382e+03
4.626843788920802919e-02 3.156041701434422066e+03
4.760955202860488178e-02 3.114719231377549931e+03
4.895066616800172743e-02 3.069292704326435341e+03
5.029178030739858696e-02 3.020378887630068675e+03
5.163289444679544649e-02 2.966709417585099345e+03
5.297400858619229214e-02 2.914857269027783786e+03
5.431512272558913779e-02 2.863332739299815330e+03
5.565623686498599731e-02 2.802018559524540251e+03
5.699735100438284990e-02 2.736810344419963712e+03
5.833846514377969555e-02 2.677710331263840089e+03
5.967957928317654814e-02 2.621495412296431368e+03
6.102069342257340767e-02 2.558218013940950641e+03
6.236180756197025332e-02 2.486797945007648650e+03
6.370292170136709897e-02 2.422253976077413427e+03
6.504403584076395850e-02 2.366167844791234984e+03
6.638514998016080415e-02 2.300416007485859609e+03
6.772626411955766368e-02 2.228534008897558124e+03
6.906737825895450933e-02 2.158524478229626311e+03
7.040849239835136886e-02 2.090259543054964070e+03
7.174960653774821451e-02 2.018349513717150558e+03
7.309072067714506016e-02 1.945891002406901407e+03
7.443183481654190581e-02 1.881440179696838413e+03
7.577294895593877921e-02 1.816289010760156998e+03
7.711406309533562486e-02 1.751876130341022417e+03
7.845517723473247051e-02 1.688486410922823552e+03
7.979629137412933004e-02 1.618857957008377298e+03
8.113740551352617569e-02 1.554638225396127382e+03
8.247851965292302134e-02 1.492103577343890493e+03
8.381963379231988087e-02 1.434048326285781741e+03
8.516074793171674040e-02 1.373683898528710870e+03
8.650186207111358605e-02 1.314195726915294017e+03
8.784297621051043170e-02 1.253768684759709004e+03
8.918409034990729123e-02 1.197889261103797708e+03
9.052520448930413688e-02 1.142420636213144235e+03
9.186631862870098253e-02 1.091315084114731917e+03
9.320743276809784206e-02 1.037552483921390831e+03
9.454854690749470159e-02 9.837631421588154126e+02
9.588966104689154724e-02 9.351467968849590306e+02
9.723077518628839289e-02 8.906406788174484745e+02
9.857188932568525241e-02 8.450588367954734395e+02
9.991300346508209806e-02 8.010411414176421658e+02
1.012541176044789437e-01 7.570091485688539024e+02
1.025952317438758032e-01 7.140023842867350368e+02
1.039363458832726350e-01 6.719318791728047700e+02
1.052774600226694945e-01 6.315162332875427182e+02
1.066185741620663541e-01 5.941543794792305562e+02
1.079596883014631858e-01 5.600957929192607025e+02
1.093008024408600454e-01 5.272450321930473365e+02
1.106419165802569049e-01 4.925381389312027522e+02
1.119830307196537506e-01 4.610483298741895624e+02
1.133241448590506101e-01 4.311699155168489597e+02
1.146652589984474419e-01 3.992981204711189775e+02
1.160063731378443014e-01 3.719917652187560861e+02
1.173474872772411609e-01 3.477279475871260956e+02
1.186886014166380066e-01 3.224550541069493192e+02
1.200297155560348661e-01 2.979152236475705990e+02
1.213708296954317256e-01 2.758998416858631231e+02
1.227119438348285574e-01 2.549873777903899850e+02
1.240530579742254169e-01 2.337778404339535427e+02
1.253941721136222764e-01 2.144652531388194632e+02
1.267352862530191082e-01 1.980390242219812649e+02
1.280764003924159677e-01 1.825901824327080476e+02
1.294175145318128273e-01 1.674948532103403807e+02
1.307586286712096590e-01 1.531051519315404335e+02
1.320997428106065186e-01 1.396210807891147283e+02
1.334408569500033781e-01 1.258394813852436300e+02
1.347819710894002376e-01 1.143643281493413610e+02
1.361230852287970972e-01 1.026642578456819308e+02
1.374641993681939289e-01 9.312497718391031754e+01
1.388053135075907885e-01 8.438277797088315424e+01
1.401464276469876480e-01 7.515034150967730397e+01
1.414875417863844798e-01 6.768983561617503142e+01
1.428286559257813393e-01 5.989000632567768889e+01
1.441697700651781988e-01 5.450997288428231968e+01
1.455108842045750306e-01 4.962562090653173641e+01
1.468519983439718901e-01 4.359015141379248348e+01
1.481931124833687219e-01 3.940830155367621046e+01
1.495342266227655814e-01 3.591641308567156443e+01
1.508753407621624687e-01 3.181667757253904938e+01
1.522164549015593005e-01 2.823276726356098720e+01
1.535575690409561600e-01 2.655701728652999805e+01
1.548986831803530195e-01 2.424910992500792872e+01
1.562397973197498513e-01 2.090796639583408023e+01
1.575809114591467108e-01 1.961311399268052469e+01
1.589220255985435704e-01 1.944942476218356830e+01
1.602631397379404021e-01 1.868151954400174475e+01
1.616042538773372617e-01 1.721032328434806402e+01
1.629453680167341212e-01 1.626906996767755231e+01
1.642864821561309530e-01 1.580109014288264291e+01
1.656275962955278125e-01 1.613743497552695771e+01
1.669687104349246720e-01 1.595344526543478025e+01
1.683098245743215315e-01 1.632997394207298214e+01
1.696509387137183911e-01 1.721434594513911520e+01
1.709920528531152228e-01 1.776430371792612561e+01
1.723331669925120824e-01 1.822816133857867271e+01
1.736742811319089419e-01 1.887634942699703799e+01
1.750153952713057737e-01 1.990011193308068016e+01
1.763565094107026332e-01 1.999306702941238711e+01
1.776976235500994927e-01 2.041335037398201280e+01
1.790387376894963245e-01 2.221230962971222311e+01
1.803798518288931840e-01 2.280634093062943180e+01
1.817209659682900158e-01 2.249446195880311450e+01
1.830620801076868753e-01 2.321858296081144601e+01
1.844031942470837349e-01 2.390109313244337841e+01
1.857443083864805944e-01 2.447677194396818834e+01
1.870854225258774539e-01 2.520202676018931243e+01
1.884265366652743134e-01 2.624766566471163287e+01
1.897676508046711452e-01 2.726140807246612496e+01
1.911087649440680047e-01 2.766782010030591721e+01
1.924498790834648643e-01 2.791845747503680286e+01
1.937909932228616960e-01 2.877326894018915482e+01
1.951321073622585556e-01 2.800457212200387858e+01
1.964732215016554151e-01 2.786714026187547688e+01
1.978143356410522469e-01 2.878729366535112888e+01
1.991554497804491064e-01 2.952741274241648739e+01
2.004965639198459382e-01 2.949280323126255610e+01
2.018376780592427977e-01 2.909383294832888112e+01
2.031787921986396572e-01 2.822197657745452659e+01
2.045199063380365168e-01 2.868593148193887998e+01
2.058610204774333763e-01 2.884523820099290958e+01
2.072021346168302081e-01 2.853873183786726031e+01
2.085432487562270676e-01 2.871411621122364011e+01
2.098843628956239271e-01 2.851410109415560612e+01
2.112254770350207866e-01 2.786769347933989138e+01
2.125665911744176462e-01 2.709673789253226062e+01
2.139077053138144502e-01 2.647408892879097664e+01
2.152488194532113097e-01 2.684786222754068774e+01
2.165899335926081692e-01 2.695048704109537141e+01
2.179310477320050288e-01 2.531115633513965690e+01
2.192721618714018883e-01 2.459415243065303969e+01
2.206132760107987478e-01 2.311927082895201124e+01
2.219543901501955796e-01 2.316784344850422883e+01
2.232955042895924391e-01 2.315710648024027307e+01
2.246366184289892987e-01 2.284098696530331551e+01
2.259777325683861582e-01 2.200950511678590260e+01
2.273188467077830177e-01 2.111957989689868498e+01
2.286599608471798217e-01 2.101018804324520772e+01
2.300010749865766813e-01 1.975630037505764847e+01
2.313421891259735408e-01 1.883908301867202795e+01
2.326833032653704003e-01 1.772932373331647682e+01
2.340244174047672598e-01 1.671529342834807608e+01
2.353655315441641194e-01 1.597781984432238289e+01
2.367066456835609234e-01 1.512518779674628888e+01
2.380477598229577829e-01 1.413778629575203638e+01
2.393888739623546424e-01 1.321918605321080520e+01
2.407299881017515020e-01 1.301389516629370746e+01
2.420711022411483615e-01 1.336094645755194676e+01
2.434122163805451933e-01 1.196647995935961717e+01
2.447533305199420528e-01 1.090409034255492315e+01
2.460944446593389123e-01 1.065470555628542115e+01
2.474355587987357719e-01 1.057820505410703049e+01
2.487766729381326314e-01 9.891596072294063902e+00
2.501177870775294632e-01 8.882174026411306045e+00
2.514589012169263227e-01 7.889810193688845175e+00
2.528000153563231822e-01 7.022404829620171540e+00
2.541411294957200417e-01 7.735123477635966083e+00
2.554822436351169013e-01 7.369559987208461393e+00
2.568233577745137608e-01 5.903331600600154161e+00
2.581644719139106203e-01 5.628795293735151972e+00
2.595055860533074243e-01 5.755804757593296017e+00
2.608467001927042839e-01 6.307914144153841107e+00
2.621878143321011434e-01 5.280189881680882991e+00
2.635289284714980029e-01 5.038907608045050779e+00
2.648700426108948625e-01 5.342944733506513444e+00
2.662111567502916665e-01 4.569955114999999068e+00
2.675522708896885260e-01 4.220226014595994002e+00
2.688933850290853855e-01 4.049341254634910570e+00
2.702344991684822451e-01 4.232210785295677624e+00
2.715756133078791046e-01 5.095695381004304636e+00
2.729167274472759641e-01 4.558493498498265240e+00
2.742578415866727681e-01 4.361987986274911577e+00
2.755989557260696277e-01 3.721196500574237120e+00
2.769400698654664872e-01 3.925470326161274670e+00
2.782811840048633467e-01 3.994944004515716074e+00
2.796222981442602062e-01 3.649509461749715911e+00
2.809634122836570103e-01 3.437974636387167493e+00
2.823045264230538698e-01 2.836156202891572775e+00
2.836456405624507293e-01 3.423355585357938935e+00
2.849867547018475888e-01 3.182849036824464406e+00
2.863278688412444484e-01 3.204283854775027862e+00
2.876689829806413079e-01 4.120112459393880044e+00
2.890100971200381674e-01 3.940892836179827441e+00
2.903512112594350270e-01 3.191112765351064695e+00
2.916923253988318865e-01 3.620758607971865217e+00
2.930334395382287460e-01 4.060394553118214844e+00
2.943745536776256055e-01 4.390588145454145774e+00
2.957156678170224096e-01 4.048619132832953937e+00
2.970567819564192691e-01 3.978305175049044351e+00
2.983978960958161286e-01 4.111252273597955309e+00
2.997390102352129881e-01 4.055160625663518204e+00
3.010801243746098477e-01 4.437659758224313578e+00
3.024212385140067072e-01 4.194189218782398143e+00
3.037623526534035112e-01 4.630334166622276371e+00
3.051034667928003707e-01 4.798756818534769764e+00
3.064445809321972303e-01 5.010928896594407433e+00
3.077856950715940898e-01 5.367643621116556574e+00
3.091268092109909493e-01 4.440236932435638550e+00
3.104679233503877533e-01 5.014735929224045208e+00
3.118090374897846129e-01 5.064738275908183596e+00
3.131501516291814724e-01 4.527487798739826985e+00
3.144912657685783319e-01 4.110161683946998323e+00
3.158323799079751915e-01 4.178522257219114522e+00
3.171734940473720510e-01 4.001687931750893767e+00
3.185146081867689105e-01 4.618168449709699530e+00
3.198557223261657700e-01 4.972516077036445381e+00
3.211968364655626296e-01 4.637313071544639342e+00
3.225379506049594891e-01 4.908527790171291372e+00
3.238790647443563486e-01 4.927262622233413936e+00
3.252201788837532082e-01 4.917451471514326045e+00
3.265612930231500122e-01 4.645823759374309248e+00
3.279024071625468717e-01 4.460330178582552207e+00
3.292435213019437312e-01 4.066739539642171053e+00
3.305846354413405908e-01 4.264482682389242996e+00
3.319257495807374503e-01 4.058265247680452603e+00
3.332668637201342543e-01 3.322885335026271036e+00
3.346079778595311138e-01 3.628280723167648603e+00
3.359490919989279734e-01 4.108818456396576835e+00
3.372902061383248329e-01 3.723134245206964010e+00
3.386313202777216924e-01 4.426547518180939278e+00
3.399724344171185519e-01 3.898908114943267833e+00
3.413135485565153560e-01 3.687349803778346313e+00
3.426546626959122155e-01 3.732095991878367158e+00
3.439957768353090750e-01 3.998501432722207483e+00
3.453368909747059345e-01 3.515349629564752831e+00
3.466780051141027941e-01 3.573986026021486850e+00
3.480191192534995981e-01 3.628573064259754233e+00
3.493602333928964576e-01 3.139630606670976931e+00
3.507013475322933171e-01 3.082697934694635933e+00
3.520424616716901767e-01 3.345625081754590724e+00
3.533835758110870362e-01 3.150928669080244049e+00
3.547246899504838957e-01 2.461666922468296548e+00
3.560658040898807553e-01 2.405855145293159580e+00
3.574069182292776148e-01 2.770103756778070192e+00
3.587480323686744743e-01 2.550822259093067146e+00
3.600891465080713338e-01 2.854116046567099829e+00
3.614302606474681934e-01 2.762694135291653197e+00
3.627713747868649974e-01 3.028563089767175143e+00
3.641124889262618569e-01 2.866961346735394045e+00
3.654536030656587164e-01 2.420286893200142231e+00
3.667947172050555760e-01 2.306309292133192912e+00
3.681358313444524355e-01 2.501361768821951159e+00
3.694769454838492950e-01 2.760585322598515745e+00
3.708180596232460990e-01 2.662438716715712417e+00
3.721591737626429586e-01 2.393885021327804452e+00
3.735002879020398181e-01 2.823807745593583718e+00
3.748414020414366776e-01 2.247310584335608041e+00
3.761825161808335372e-01 2.177659617835018935e+00
3.775236303202303967e-01 2.024470119003737523e+00
3.788647444596272007e-01 2.007289878884691348e+00
3.802058585990240602e-01 2.118199414170604200e+00
3.815469727384209198e-01 2.499528607791617674e+00
3.828880868778177793e-01 2.716192402242455728e+00
3.842292010172146388e-01 1.830886749494396781e+00
3.855703151566114428e-01 1.595220324998024353e+00
3.869114292960083024e-01 1.720083633521795718e+00
3.882525434354051619e-01 1.456711627806868137e+00
3.895936575748020214e-01 1.088449745688777170e+00
3.909347717141988809e-01 1.386343131154291086e+00
3.922758858535957405e-01 2.013410715083196578e+00
3.936169999929926000e-01 2.534812555944583323e+00
3.949581141323894595e-01 1.626941181651659463e+00
3.962992282717863191e-01 2.522886567333699759e+00
3.976403424111831786e-01 3.056686513266114957e+00
3.989814565505800381e-01 2.335575922824077111e+00
4.003225706899768976e-01 1.806877720551383959e+00
4.016636848293737572e-01 2.115517359337317771e+00
4.030047989687706167e-01 2.147009702554143473e+00
4.043459131081674207e-01 2.203545145867508381e+00
4.056870272475643358e-01 2.219126132234208626e+00
4.070281413869611398e-01 1.986898791074253268e+00
4.083692555263580548e-01 1.754026748455700613e+00
4.097103696657548588e-01 1.785326929799794016e+00
4.110514838051517739e-01 2.290306697271233816e+00
4.123925979445485779e-01 1.965656619445084630e+00
4.137337120839453819e-01 2.009968800036133985e+00
4.150748262233422969e-01 2.153205513625735534e+00
4.164159403627391010e-01 2.056387085543732951e+00
4.177570545021360160e-01 1.942771250430823216e+00
4.190981686415328200e-01 1.803056216063922079e+00
4.204392827809296240e-01 1.506017767213478464e+00
4.217803969203265391e-01 1.617541222117509392e+00
4.231215110597233431e-01 1.467620262164373912e+00
4.244626251991202581e-01 1.473948468906201015e+00
4.258037393385170621e-01 1.757038876665674820e+00
4.271448534779138662e-01 2.196063609701454311e+00
4.284859676173107812e-01 2.452338242727236661e+00
4.298270817567075852e-01 2.449786763379975696e+00
4.311681958961045003e-01 3.530245080672045788e+00
4.325093100355013043e-01 2.656363411541846631e+00
4.338504241748981638e-01 1.862760045939722886e+00
4.351915383142950233e-01 2.453390221095858692e+00
4.365326524536918829e-01 2.343972569789173122e+00
4.378737665930887424e-01 2.235583331786983763e+00
4.392148807324856019e-01 1.539810738437523696e+00
4.405559948718824614e-01 1.583534693707349561e+00
4.418971090112793210e-01 2.551845983050739619e+00
4.432382231506761250e-01 2.062329657594716537e+00
4.445793372900730400e-01 1.276932821580771815e+00
4.459204514294698440e-01 1.120542987898389242e+00
4.472615655688667591e-01 1.912223522106401674e+00
4.486026797082635631e-01 1.873944236941497365e+00
4.499437938476603671e-01 2.041500793576147998e+00
4.512849079870572822e-01 2.222098332755763295e+00
4.526260221264540862e-01 2.016121354879444993e+00
4.539671362658510012e-01 2.428568630017323926e+00
4.553082504052478052e-01 2.387812569435993737e+00
4.566493645446446092e-01 1.401657598547458861e+00
4.579904786840415243e-01 1.333534167267060866e+00
4.593315928234383283e-01 1.789317243029231008e+00
4.606727069628352433e-01 1.996126034983831232e+00
4.620138211022320474e-01 1.540391518876432997e+00
4.633549352416289624e-01 1.326819481353439301e+00
4.646960493810257664e-01 1.372718042419052153e+00
4.660371635204225704e-01 1.855724723990562097e+00
4.673782776598194855e-01 2.252675046088100430e+00
4.687193917992162895e-01 2.013035099276734741e+00
4.700605059386132045e-01 1.941670338251853423e+00
4.714016200780100085e-01 1.415321047536309607e+00
4.727427342174068681e-01 1.417225711537000166e+00
4.740838483568037276e-01 1.279213796217504751e+00
4.754249624962005871e-01 1.539409108109680346e+00
4.767660766355974467e-01 1.354948103949439542e+00
4.781071907749943062e-01 1.283828806053818994e+00
4.794483049143911102e-01 1.311601092594003148e+00
4.807894190537880252e-01 1.083264686393192733e+00
4.821305331931848293e-01 1.417313573763834711e+00
4.834716473325817443e-01 1.209576430426338334e+00
4.848127614719785483e-01 1.265323485553949467e+00
4.861538756113753523e-01 1.458106812215660852e+00
4.874949897507722674e-01 1.633709928851729387e+00
4.888361038901690714e-01 1.342622989626690355e+00
4.901772180295659864e-01 1.315225896548199103e+00
4.915183321689627904e-01 1.021877609842718471e+00
4.928594463083597055e-01 1.293510513344358515e+00
4.942005604477565095e-01 1.486923905488168884e+00
4.955416745871533135e-01 1.284140253682636512e+00
4.968827887265502286e-01 1.145109327568022195e+00
4.982239028659470326e-01 1.006491999818052818e+00
4.995650170053439476e-01 9.946637809552214549e-01
5.009061311447408071e-01 7.253309016941500431e-01
5.022472452841375556e-01 6.148781449169575808e-01
5.035883594235345262e-01 1.323921660023927416e+00
5.049294735629312747e-01 1.288655932730037534e+00
5.062705877023282452e-01 1.458705749801552543e+00
5.076117018417249938e-01 1.218754801320756087e+00
5.089528159811218533e-01 6.550954807407975977e-01
5.102939301205187128e-01 6.551538797521914148e-01
5.116350442599155723e-01 9.753421318190049760e-01
5.129761583993124319e-01 7.273703200514063383e-01
5.143172725387092914e-01 5.098841414879728973e-01
5.156583866781061509e-01 1.745207574717113630e-01
5.169995008175030105e-01 3.100667334741018522e-01
5.183406149568997590e-01 4.593299893457754024e-01
5.196817290962967295e-01 4.494138809619698804e-01
5.210228432356934780e-01 1.288748389858369592e-01
5.223639573750904486e-01 7.726279550083745562e-01
5.237050715144871971e-01 1.096814628523517854e+00
5.250461856538840566e-01 9.366235157516911158e-01
5.263872997932809161e-01 1.192445996885041382e+00
5.277284139326777757e-01 1.423601074062503358e+00
5.290695280720746352e-01 1.145011563415209821e+00
5.304106422114714947e-01 1.181331948093983897e+00
5.317517563508683542e-01 1.042600897029345219e+00
5.330928704902652138e-01 8.668199104409666234e-01
5.344339846296620733e-01 8.673912521498579054e-01
5.357750987690589328e-01 1.156751919349517266e+00
5.371162129084557924e-01 1.499292150496955855e+00
5.384573270478525409e-01 1.098792688444859778e+00
5.397984411872495114e-01 1.171147047884119274e+00
5.411395553266462599e-01 1.181574757649144658e+00
5.424806694660432305e-01 1.219264239858944165e+00
5.438217836054399790e-01 9.400497898763120475e-01
5.451628977448369495e-01 9.405153978173643736e-01
5.465040118842336980e-01 9.125406154169439787e-01
5.478451260236305576e-01 1.184143206784256108e+00
5.491862401630274171e-01 9.400503583372881167e-01
5.505273543024242766e-01 7.582028840861880781e-01
5.518684684418211361e-01 3.948685433718281956e-01
5.532095825812179957e-01 5.993091209711991496e-01
5.545506967206147442e-01 7.781301687246866550e-01
