# q (1/Angstrom), Intensity (arb)
2.078726924066784734e-02 5.237935413406202088e+02
2.212838338006469993e-02 8.477886468549711481e+02
2.346949751946154905e-02 1.205434522280205783e+03
2.481061165885840164e-02 1.717128082451388309e+03
2.615172579825525423e-02 1.966767317074025641e+03
2.749283993765210335e-02 2.067165023661926625e+03
2.883395407704895941e-02 2.148959843053241002e+03
3.017506821644580506e-02 2.195417019759036975e+03
3.151618235584265765e-02 2.199744454653494358e+03
3.285729649523951718e-02 2.188094034609460323e+03
3.419841063463636283e-02 2.169682773511098276e+03
3.553952477403321542e-02 2.150453913602809735e+03
3.688063891343006800e-02 2.129259960607247194e+03
3.822175305282692059e-02 2.107732315017739893e+03
3.956286719222376624e-02 2.085852738457878786e+03
4.090398133162062577e-02 2.058077071805252672e+03
4.224509547101747142e-02 2.024823298936392803e+03
4.358620961041432401e-02 1.995016810160901059e+03
4.492732374981117660e-02 1.958502273680024928e+03
4.626843788920802919e-02 1.933605826404014579e+03
4.760955202860488178e-02 1.917514555028496261e+03
4.895066616800172743e-02 1.882163697456282762e+03
5.029178030739858696e-02 1.849969366120438963e+03
5.163289444679544649e-02 1.819206957606173091e+03
5.297400858619229214e-02 1.786608754253538791e+03
5.431512272558913779e-02 1.754673692560205609e+03
5.565623686498599731e-02 1.715535879966055973e+03
5.699735100438284990e-02 1.669547330985233202e+03
5.833846514377969555e-02 1.635988218406521810e+03
5.967957928317654814e-02 1.598915139220874153e+03
6.102069342257340767e-02 1.561098735098531961e+03
6.236180756197025332e-02 1.516722425221193816e+03
6.370292170136709897e-02 1.480181810911072716e+03
6.504403584076395850e-02 1.441184167889138280e+03
6.638514998016080415e-02 1.400539062995048425e+03
6.772626411955766368e-02 1.354582794080236454e+03
6.906737825895450933e-02 1.309748100767867982e+03
7.040849239835136886e-02 1.266733360913865226e+03
7.174960653774821451e-02 1.226294228302468582e+03
7.309072067714506016e-02 1.186106787247802231e+03
7.443183481654190581e-02 1.142539339710368495e+03
7.577294895593877921e-02 1.098612598982651662e+03
7.711406309533562486e-02 1.055846075835142301e+03
7.845517723473247051e-02 1.015442163299128651e+03
7.979629137412933004e-02 9.760013314329611376e+02
8.113740551352617569e-02 9.355634340502056148e+02
8.247851965292302134e-02 8.981626276643374922e+02
8.381963379231988087e-02 8.610769143476949239e+02
8.516074793171674040e-02 8.236206627813775185e+02
8.650186207111358605e-02 7.868278874688814994e+02
8.784297621051043170e-02 7.499340748152676497e+02
8.918409034990729123e-02 7.175504255265756228e+02
9.052520448930413688e-02 6.865430004346505939e+02
9.186631862870098253e-02 6.497905973800619677e+02
9.320743276809784206e-02 6.185525226878514786e+02
9.454854690749470159e-02 5.873354750095456893e+02
9.588966104689154724e-02 5.572607993016384853e+02
9.723077518628839289e-02 5.289767775895925297e+02
9.857188932568525241e-02 5.002774567093237579e+02
9.991300346508209806e-02 4.719853166297523899e+02
1.012541176044789437e-01 4.470215153886096004e+02
1.025952317438758032e-01 4.194077933325723393e+02
1.039363458832726350e-01 3.954594970452485541e+02
1.052774600226694945e-01 3.719808755162992497e+02
1.066185741620663541e-01 3.490736034653056095e+02
1.079596883014631858e-01 3.268420860235177656e+02
1.093008024408600454e-01 3.061378669798449437e+02
1.106419165802569049e-01 2.858296230404025664e+02
1.119830307196537506e-01 2.659061103766317160e+02
1.133241448590506101e-01 2.481424138929671699e+02
1.146652589984474419e-01 2.328107059271740127e+02
1.160063731378443014e-01 2.159742038766605674e+02
1.173474872772411609e-01 1.992536909951842006e+02
1.186886014166380066e-01 1.845005265892380351e+02
1.200297155560348661e-01 1.699349048957462571e+02
1.213708296954317256e-01 1.556932616708839987e+02
1.227119438348285574e-01 1.446055112853257469e+02
1.240530579742254169e-01 1.335360874869626286e+02
1.253941721136222764e-01 1.216603711095952889e+02
1.267352862530191082e-01 1.110773699631637328e+02
1.280764003924159677e-01 1.020288575073165163e+02
1.294175145318128273e-01 9.277339331746452444e+01
1.307586286712096590e-01 8.351353379916139374e+01
1.320997428106065186e-01 7.530951898689686175e+01
1.334408569500033781e-01 6.725708039542826100e+01
1.347819710894002376e-01 6.131452111428158958e+01
1.361230852287970972e-01 5.586598741983445393e+01
1.374641993681939289e-01 4.988261480766951195e+01
1.388053135075907885e-01 4.414483340678994239e+01
1.401464276469876480e-01 3.861157837664451620e+01
1.414875417863844798e-01 3.513379783820769831e+01
1.428286559257813393e-01 3.120926482927804102e+01
1.441697700651781988e-01 2.852873130868411522e+01
1.455108842045750306e-01 2.474520462442606572e+01
1.468519983439718901e-01 2.127407548722661090e+01
1.481931124833687219e-01 1.924733452713341819e+01
1.495342266227655814e-01 1.723759890847865961e+01
1.508753407621624687e-01 1.544276693616578200e+01
1.522164549015593005e-01 1.377946794789671969e+01
1.535575690409561600e-01 1.316790109679922693e+01
1.548986831803530195e-01 1.227138694144710485e+01
1.562397973197498513e-01 1.050043049220400349e+01
1.575809114591467108e-01 9.485022364040744947e+00
1.589220255985435704e-01 9.496244048005010541e+00
1.602631397379404021e-01 9.369080146288496280e+00
1.616042538773372617e-01 9.257821575802438474e+00
1.629453680167341212e-01 8.681749809293222597e+00
1.642864821561309530e-01 8.275487014033927835e+00
1.656275962955278125e-01 8.595505838160107714e+00
1.669687104349246720e-01 8.411793163758190417e+00
1.683098245743215315e-01 9.111618848087957190e+00
1.696509387137183911e-01 9.504033560717005003e+00
1.709920528531152228e-01 9.892851887111532960e+00
1.723331669925120824e-01 1.036793022260576436e+01
1.736742811319089419e-01 1.065331802475398604e+01
1.750153952713057737e-01 1.161130766508854606e+01
1.763565094107026332e-01 1.167008459095535500e+01
1.776976235500994927e-01 1.186059802167110888e+01
1.790387376894963245e-01 1.327278049191876619e+01
1.803798518288931840e-01 1.374920390072603027e+01
1.817209659682900158e-01 1.322350192609731323e+01
1.830620801076868753e-01 1.405801776271779602e+01
1.844031942470837349e-01 1.436587836061636381e+01
1.857443083864805944e-01 1.501227749946649226e+01
1.870854225258774539e-01 1.573835563855161013e+01
1.884265366652743134e-01 1.611703987796703075e+01
1.897676508046711452e-01 1.657913736959672235e+01
1.911087649440680047e-01 1.630420967690976397e+01
1.924498790834648643e-01 1.647005472809603077e+01
1.937909932228616960e-01 1.693957519760492403e+01
1.951321073622585556e-01 1.653506654889413596e+01
1.964732215016554151e-01 1.683160754216923749e+01
1.978143356410522469e-01 1.714013384641835103e+01
1.991554497804491064e-01 1.699517420965081271e+01
2.004965639198459382e-01 1.702613543299109722e+01
2.018376780592427977e-01 1.705367131586137930e+01
2.031787921986396572e-01 1.700365518922859565e+01
2.045199063380365168e-01 1.729766456208101033e+01
2.058610204774333763e-01 1.688520376929872668e+01
2.072021346168302081e-01 1.647989781221868100e+01
2.085432487562270676e-01 1.653404127250870204e+01
2.098843628956239271e-01 1.612255353032639960e+01
2.112254770350207866e-01 1.602183505230613036e+01
2.125665911744176462e-01 1.601944595590762788e+01
2.139077053138144502e-01 1.508928532288520330e+01
2.152488194532113097e-01 1.510928044818281535e+01
2.165899335926081692e-01 1.481859236986785788e+01
2.179310477320050288e-01 1.409519509309686214e+01
2.192721618714018883e-01 1.388466150134887300e+01
2.206132760107987478e-01 1.302344985832671398e+01
2.219543901501955796e-01 1.249666964705714634e+01
2.232955042895924391e-01 1.261096906252501526e+01
2.246366184289892987e-01 1.264960874210515840e+01
2.259777325683861582e-01 1.197818460756157322e+01
2.273188467077830177e-01 1.065627951141409824e+01
2.286599608471798217e-01 1.020661651794519287e+01
2.300010749865766813e-01 1.019355839436377664e+01
2.313421891259735408e-01 9.539846113518549942e+00
2.326833032653704003e-01 8.780134784549076699e+00
2.340244174047672598e-01 8.328357880776025013e+00
2.353655315441641194e-01 7.567724712901267026e+00
2.367066456835609234e-01 7.330199602453731700e+00
2.380477598229577829e-01 7.101436587544711188e+00
2.393888739623546424e-01 6.965707207703545123e+00
2.407299881017515020e-01 6.929745013251036312e+00
2.420711022411483615e-01 7.238000747545200397e+00
2.434122163805451933e-01 5.872070452572728527e+00
2.447533305199420528e-01 5.158592967658918838e+00
2.460944446593389123e-01 4.646466272697708177e+00
2.474355587987357719e-01 4.656784000989006245e+00
2.487766729381326314e-01 4.401453738064574850e+00
2.501177870775294632e-01 4.190608392970091245e+00
2.514589012169263227e-01 3.865328308201640084e+00
2.528000153563231822e-01 3.845483625067402045e+00
2.541411294957200417e-01 3.793012211626503927e+00
2.554822436351169013e-01 3.484694589869974379e+00
2.568233577745137608e-01 2.948636883020029131e+00
2.581644719139106203e-01 2.492290679443911472e+00
2.595055860533074243e-01 2.621397333243493222e+00
2.608467001927042839e-01 2.418731628189135563e+00
2.621878143321011434e-01 2.062698507117119107e+00
2.635289284714980029e-01 2.032820943804196645e+00
2.648700426108948625e-01 1.839819553234647742e+00
2.662111567502916665e-01 2.206989606084178490e+00
2.675522708896885260e-01 2.031078684482380936e+00
2.688933850290853855e-01 1.547853501566990531e+00
2.702344991684822451e-01 1.606216457184956425e+00
2.715756133078791046e-01 2.123267147355079487e+00
2.729167274472759641e-01 2.315144526928818891e+00
2.742578415866727681e-01 1.862016086226674361e+00
2.755989557260696277e-01 1.083471933994701430e+00
2.769400698654664872e-01 1.492864792789688977e+00
2.782811840048633467e-01 1.875709367770213021e+00
2.796222981442602062e-01 1.543188656706959705e+00
2.809634122836570103e-01 1.681313533964001294e+00
2.823045264230538698e-01 1.673791616184516329e+00
2.836456405624507293e-01 1.532415379656669074e+00
2.849867547018475888e-01 1.321755440894762046e+00
2.863278688412444484e-01 1.173730340893385460e+00
2.876689829806413079e-01 1.631327160036590840e+00
2.890100971200381674e-01 2.097361921159830445e+00
2.903512112594350270e-01 1.433588456895009244e+00
2.916923253988318865e-01 2.158013627245509269e+00
2.930334395382287460e-01 2.358977096485219249e+00
2.943745536776256055e-01 2.400160006310017025e+00
2.957156678170224096e-01 2.096726294598965978e+00
2.970567819564192691e-01 2.074612592388618282e+00
2.983978960958161286e-01 1.989195512664636567e+00
2.997390102352129881e-01 2.046623699440132782e+00
3.010801243746098477e-01 2.364163964174395005e+00
3.024212385140067072e-01 2.253784616783107708e+00
3.037623526534035112e-01 2.407540589501692807e+00
3.051034667928003707e-01 2.401047249282129314e+00
3.064445809321972303e-01 2.448716562771352301e+00
3.077856950715940898e-01 2.484484091001405659e+00
3.091268092109909493e-01 2.379245058413800962e+00
3.104679233503877533e-01 2.395226076099973511e+00
3.118090374897846129e-01 3.004605549960800204e+00
3.131501516291814724e-01 2.978006206200518591e+00
3.144912657685783319e-01 2.452948379854092309e+00
3.158323799079751915e-01 2.279858819577768259e+00
3.171734940473720510e-01 1.904328028891228541e+00
3.185146081867689105e-01 2.298754662046121666e+00
3.198557223261657700e-01 2.582230816730486822e+00
3.211968364655626296e-01 2.254386033104964326e+00
3.225379506049594891e-01 2.369803345166502595e+00
3.238790647443563486e-01 2.403545297730047992e+00
3.252201788837532082e-01 2.558949249749190358e+00
3.265612930231500122e-01 2.419743506420729773e+00
3.279024071625468717e-01 2.655296832693309739e+00
3.292435213019437312e-01 2.307042719010539145e+00
3.305846354413405908e-01 2.062137317198022401e+00
3.319257495807374503e-01 1.890558409708603449e+00
3.332668637201342543e-01 1.736396904136753960e+00
3.346079778595311138e-01 1.551150915592913293e+00
3.359490919989279734e-01 1.941670744269458737e+00
3.372902061383248329e-01 1.808713342936442814e+00
3.386313202777216924e-01 2.502201991490423438e+00
3.399724344171185519e-01 2.301846420894861467e+00
3.413135485565153560e-01 1.851991145466030275e+00
3.426546626959122155e-01 1.373278521733993784e+00
3.439957768353090750e-01 1.549810512357680636e+00
3.453368909747059345e-01 1.673326403226909065e+00
3.466780051141027941e-01 1.695600903482230137e+00
3.480191192534995981e-01 1.730014033735400858e+00
3.493602333928964576e-01 1.201002534092253882e+00
3.507013475322933171e-01 7.926368474736591452e-01
3.520424616716901767e-01 1.319591211207537640e+00
3.533835758110870362e-01 1.116845392316960783e+00
3.547246899504838957e-01 7.853102873551023322e-01
3.560658040898807553e-01 7.893927573492192096e-01
3.574069182292776148e-01 1.150652501790105475e+00
3.587480323686744743e-01 1.277343395538949267e+00
3.600891465080713338e-01 1.152031510148319171e+00
3.614302606474681934e-01 1.207054195581008571e+00
3.627713747868649974e-01 1.307304605316787161e+00
3.641124889262618569e-01 1.370072879925047005e+00
3.654536030656587164e-01 1.026277068147408045e+00
3.667947172050555760e-01 6.412618993704626291e-01
3.681358313444524355e-01 1.163354064852555325e+00
3.694769454838492950e-01 1.030463697951958579e+00
3.708180596232460990e-01 1.256368530042351495e+00
3.721591737626429586e-01 1.206355981484477979e+00
3.735002879020398181e-01 1.156891022840596861e+00
3.748414020414366776e-01 9.395993215065772119e-01
3.761825161808335372e-01 8.250512135897736243e-01
3.775236303202303967e-01 7.525907528903132970e-01
3.788647444596272007e-01 1.506958242980445561e+00
3.802058585990240602e-01 1.368002722844849472e+00
3.815469727384209198e-01 9.466462459748328229e-01
3.828880868778177793e-01 1.248053172277138856e+00
3.842292010172146388e-01 1.090066933031479834e+00
3.855703151566114428e-01 1.161924682821364740e+00
3.869114292960083024e-01 9.158503074696824342e-01
3.882525434354051619e-01 6.978591173700863237e-01
3.895936575748020214e-01 4.822155568257784353e-01
3.909347717141988809e-01 5.829883640047768267e-01
3.922758858535957405e-01 7.600559169323020114e-01
3.936169999929926000e-01 1.085280386166296296e+00
3.949581141323894595e-01 5.509883546773295393e-01
3.962992282717863191e-01 6.961950526801530259e-01
3.976403424111831786e-01 1.237631955649355575e+00
3.989814565505800381e-01 1.300369584507024001e+00
4.003225706899768976e-01 1.088832568683244517e+00
4.016636848293737572e-01 1.163770284823591794e+00
4.030047989687706167e-01 1.264511040032999745e+00
4.043459131081674207e-01 1.056024280417133809e+00
4.056870272475643358e-01 9.336907413884603102e-01
4.070281413869611398e-01 4.931923287512276488e-01
4.083692555263580548e-01 5.461818270751805926e-01
4.097103696657548588e-01 4.674159314645933705e-01
4.110514838051517739e-01 9.432294399671050655e-01
4.123925979445485779e-01 1.119049300938335989e+00
4.137337120839453819e-01 1.051394163121770475e+00
4.150748262233422969e-01 1.035993179131629915e+00
4.164159403627391010e-01 1.088304305159297769e+00
4.177570545021360160e-01 9.235360126672205183e-01
4.190981686415328200e-01 6.588685746846820734e-01
4.204392827809296240e-01 6.970494735984615886e-01
4.217803969203265391e-01 1.249999997702474275e+00
4.231215110597233431e-01 1.038702335863334270e+00
4.244626251991202581e-01 1.054776519779565547e+00
4.258037393385170621e-01 1.083905286930658463e+00
4.271448534779138662e-01 1.107964999519886362e+00
4.284859676173107812e-01 1.080224632059895384e+00
4.298270817567075852e-01 8.801171225951165411e-01
4.311681958961045003e-01 1.052022095470839247e+00
4.325093100355013043e-01 1.380794291690222053e+00
4.338504241748981638e-01 1.131072807071937802e+00
4.351915383142950233e-01 7.326261963430198421e-01
4.365326524536918829e-01 1.069636743866198003e+00
4.378737665930887424e-01 1.445314194212244274e+00
4.392148807324856019e-01 9.789638658450527942e-01
4.405559948718824614e-01 1.228629078406704878e+00
4.418971090112793210e-01 1.539325722812378672e+00
4.432382231506761250e-01 1.110528512616120622e+00
4.445793372900730400e-01 7.225757316767627003e-01
4.459204514294698440e-01 9.205354530724605411e-01
4.472615655688667591e-01 9.386720778522814612e-01
4.486026797082635631e-01 1.108865135077813591e+00
4.499437938476603671e-01 1.051712416070429867e+00
4.512849079870572822e-01 1.096098191934885335e+00
4.526260221264540862e-01 1.055191516314891942e+00
4.539671362658510012e-01 1.288174624446348560e+00
4.553082504052478052e-01 1.521306912453830762e+00
4.566493645446446092e-01 8.575036227854937465e-01
4.579904786840415243e-01 4.526775151839856903e-01
4.593315928234383283e-01 8.305787904633774588e-01
4.606727069628352433e-01 8.495769439715488147e-01
4.620138211022320474e-01 7.785189265871323983e-01
4.633549352416289624e-01 4.813993620862220268e-01
4.646960493810257664e-01 6.860749047900469577e-01
4.660371635204225704e-01 7.576904507524062637e-01
4.673782776598194855e-01 9.583624907253422975e-01
4.687193917992162895e-01 9.882254410249800003e-01
4.700605059386132045e-01 9.841239073383079017e-01
4.714016200780100085e-01 6.469674564342895451e-01
4.727427342174068681e-01 7.068265188183957548e-01
4.740838483568037276e-01 6.669832023683710531e-01
4.754249624962005871e-01 5.155067901901162486e-01
4.767660766355974467e-01 4.877099577143368947e-01
4.781071907749943062e-01 7.366705756029574559e-01
4.794483049143911102e-01 7.074193730083138121e-01
4.807894190537880252e-01 8.222232876589288253e-01
4.821305331931848293e-01 8.122095295534137449e-01
4.834716473325817443e-01 6.137970034330848534e-01
4.848127614719785483e-01 6.338221387998714818e-01
4.861538756113753523e-01 7.330195509707309043e-01
4.874949897507722674e-01 9.145494545172709877e-01
4.888361038901690714e-01 7.998148372052966693e-01
4.901772180295659864e-01 6.379280444207182654e-01
4.915183321689627904e-01 4.203968005189011592e-01
4.928594463083597055e-01 6.367017168323201304e-01
4.942005604477565095e-01 7.878366989732086267e-01
4.955416745871533135e-01 6.412488994886160754e-01
4.968827887265502286e-01 6.875803061840528585e-01
4.982239028659470326e-01 4.994899597168966920e-01
4.995650170053439476e-01 4.319242183724512074e-01
5.009061311447408071e-01 5.892631260381975267e-01
5.022472452841375556e-01 4.512558855847359496e-01
5.035883594235345262e-01 7.564580703060457267e-01
5.049294735629312747e-01 6.863118063021005355e-01
5.062705877023282452e-01 7.701444607279412935e-01
5.076117018417249938e-01 7.776880480082937197e-01
5.089528159811218533e-01 5.886135727623695857e-01
5.102939301205187128e-01 3.161781979992497327e-01
5.116350442599155723e-01 4.362193414291084537e-01
5.129761583993124319e-01 3.394972520305898911e-01
5.143172725387092914e-01 2.808709576336951841e-01
5.156583866781061509e-01 2.277022902995540221e-01
5.169995008175030105e-01 0.000000000000000000e+00
5.183406149568997590e-01 1.443521729341910032e-01
5.196817290962967295e-01 5.732392377427046881e-01
5.210228432356934780e-01 2.992131757128504432e-01
5.223639573750904486e-01 4.035843992920860046e-01
5.237050715144871971e-01 4.580404692286421664e-01
5.250461856538840566e-01 6.024412299440911056e-01
5.263872997932809161e-01 9.082233896929707839e-01
5.277284139326777757e-01 1.224565061337365535e+00
5.290695280720746352e-01 8.906560183396834418e-01
5.304106422114714947e-01 1.031932557417562180e+00
5.317517563508683542e-01 8.166130793103079100e-01
5.330928704902652138e-01 4.013581044993230762e-01
5.344339846296620733e-01 4.815162256802452134e-01
5.357750987690589328e-01 5.487505343732053120e-01
5.371162129084557924e-01 8.465547379861959598e-01
5.384573270478525409e-01 8.818114042564673127e-01
5.397984411872495114e-01 8.862274421529079405e-01
5.411395553266462599e-01 8.049912476796947658e-01
5.424806694660432305e-01 8.363789388710074491e-01
5.438217836054399790e-01 6.681236153308773851e-01
5.451628977448369495e-01 5.276873058229938351e-01
5.465040118842336980e-01 3.729132706151716548e-01
5.478451260236305576e-01 3.985310921284082042e-01
5.491862401630274171e-01 3.762202330081692025e-01
5.505273543024242766e-01 3.157617808611732357e-01
5.518684684418211361e-01 5.023524071481730857e-01
5.532095825812179957e-01 6.910674729746943967e-01
5.545506967206147442e-01 5.974241280319532166e-01
