# q (1/Angstrom), Intensity (arb)
2.029070354705860696e-02 1.607256738520897670e+03
2.133125244372399004e-02 1.598698612065698626e+03
2.237180134038937659e-02 1.589335545102067272e+03
2.341235023705475968e-02 1.584225144552250185e+03
2.445289913372014276e-02 1.569440217867657339e+03
2.549344803038552584e-02 1.554768536807380087e+03
2.653399692705091240e-02 1.533978764533598678e+03
2.757454582371629548e-02 1.516420171397860486e+03
2.861509472038167856e-02 1.499781498782694143e+03
2.965564361704706164e-02 1.487721366435057917e+03
3.069619251371244473e-02 1.464462834389788441e+03
3.173674141037782781e-02 1.441328338837581214e+03
3.277729030704321089e-02 1.422178948393903511e+03
3.381783920370859398e-02 1.402689802770831420e+03
3.485838810037397706e-02 1.380848537185812120e+03
3.589893699703936014e-02 1.357218874809352656e+03
3.693948589370474322e-02 1.330818847628551794e+03
3.798003479037012631e-02 1.305208249663227207e+03
3.902058368703550939e-02 1.281428003504136313e+03
4.006113258370089247e-02 1.256002033357010305e+03
4.110168148036627556e-02 1.231737991524958261e+03
4.214223037703165864e-02 1.203593609049281667e+03
4.318277927369704866e-02 1.180858232686591919e+03
4.422332817036243174e-02 1.153103948067486726e+03
4.526387706702781483e-02 1.128709954752232306e+03
4.630442596369319791e-02 1.102456967935146167e+03
4.734497486035858099e-02 1.078734683465022499e+03
4.838552375702396408e-02 1.049927363365499787e+03
4.942607265368934716e-02 1.023915651692598772e+03
5.046662155035473024e-02 9.969059256623779675e+02
5.150717044702011332e-02 9.709420194152487511e+02
5.254771934368549641e-02 9.468405162740781407e+02
5.358826824035087949e-02 9.229219966254493102e+02
5.462881713701626257e-02 8.973210561294681611e+02
5.566936603368164566e-02 8.689848548054470712e+02
5.670991493034702874e-02 8.411585834364625498e+02
5.775046382701241182e-02 8.140760466016853343e+02
5.879101272367779490e-02 7.897236614498889367e+02
5.983156162034317799e-02 7.650682845669576864e+02
6.087211051700856107e-02 7.401979396132940110e+02
6.191265941367394415e-02 7.172549781557401047e+02
6.295320831033933417e-02 6.919771715102152712e+02
6.399375720700471726e-02 6.662717632426299588e+02
6.503430610367010034e-02 6.418461827440213483e+02
6.607485500033548342e-02 6.190854873503468525e+02
6.711540389700086651e-02 5.964496751214279584e+02
6.815595279366624959e-02 5.730095349437908681e+02
6.919650169033163267e-02 5.500239891641969052e+02
7.023705058699701576e-02 5.280464133197256160e+02
7.127759948366239884e-02 5.046620119679375307e+02
7.231814838032778192e-02 4.839333414713839829e+02
7.335869727699316500e-02 4.651959435295738103e+02
7.439924617365854809e-02 4.441488039330989750e+02
7.543979507032393117e-02 4.238366030383768930e+02
7.648034396698931425e-02 4.045551910740788344e+02
7.752089286365469734e-02 3.859065496550029479e+02
7.856144176032008042e-02 3.680868229837038257e+02
7.960199065698546350e-02 3.498449668162048170e+02
8.064253955365084658e-02 3.328171390295093488e+02
8.168308845031622967e-02 3.164579865029081702e+02
8.272363734698161275e-02 2.997566486544851614e+02
8.376418624364699583e-02 2.835603210576538800e+02
8.480473514031239279e-02 2.676028725882837307e+02
8.584528403697777588e-02 2.530097240642453755e+02
8.688583293364315896e-02 2.386586922129991422e+02
8.792638183030854204e-02 2.248458496258516277e+02
8.896693072697392513e-02 2.119665539389433491e+02
9.000747962363930821e-02 1.993584987681529412e+02
9.104802852030469129e-02 1.862752406589445116e+02
9.208857741697007437e-02 1.741459327824902061e+02
9.312912631363545746e-02 1.631805794743223146e+02
9.416967521030084054e-02 1.517317024133740233e+02
9.521022410696622362e-02 1.413981240037897464e+02
9.625077300363160671e-02 1.318024772164322087e+02
9.729132190029698979e-02 1.219711947202060998e+02
9.833187079696237287e-02 1.138523399348069063e+02
9.937241969362775595e-02 1.045806485747837087e+02
1.004129685902931390e-01 9.576992310274050624e+01
1.014535174869585221e-01 8.803569070443398914e+01
1.024940663836239052e-01 8.143145533620082688e+01
1.035346152802892883e-01 7.385562198785288501e+01
1.045751641769546714e-01 6.785926408701648427e+01
1.056157130736200545e-01 6.171384280015624313e+01
1.066562619702854375e-01 5.527110233370132164e+01
1.076968108669508206e-01 5.014788981698556825e+01
1.087373597636162037e-01 4.523206017446940308e+01
1.097779086602815868e-01 4.060138325959496797e+01
1.108184575569469699e-01 3.613784367629099137e+01
1.118590064536123529e-01 3.261129756044115879e+01
1.128995553502777360e-01 2.849906410663144740e+01
1.139401042469431191e-01 2.525828405787509467e+01
1.149806531436085022e-01 2.231158657936094869e+01
1.160212020402738853e-01 1.954295812159924495e+01
1.170617509369392684e-01 1.650853601946630889e+01
1.181022998336046514e-01 1.408120334133995755e+01
1.191428487302700345e-01 1.235636482282323811e+01
1.201833976269354176e-01 1.012818754516330344e+01
1.212239465236008007e-01 8.280106535165288051e+00
1.222644954202661838e-01 7.250122379208971068e+00
1.233050443169315669e-01 6.440528614400427898e+00
1.243455932135969499e-01 5.240258107233447760e+00
1.253861421102623330e-01 4.157605699802598309e+00
1.264266910069277161e-01 3.589324331869224949e+00
1.274672399035930992e-01 2.821600741058677642e+00
1.285077888002584823e-01 2.187346118647923277e+00
1.295483376969238654e-01 1.817917206469076064e+00
1.305888865935892484e-01 1.733818967810176304e+00
1.316294354902546315e-01 1.748682471948306727e+00
1.326699843869200146e-01 1.486033858520116269e+00
1.337105332835853977e-01 1.683994870142015543e+00
1.347510821802507808e-01 1.621977205700641633e+00
1.357916310769161639e-01 1.833690739796839608e+00
1.368321799735815469e-01 2.230211638737557678e+00
1.378727288702469300e-01 2.881221466940601772e+00
1.389132777669123131e-01 2.984598531401449151e+00
1.399538266635776962e-01 3.223293688432075754e+00
1.409943755602430793e-01 3.707677996125617881e+00
1.420349244569084624e-01 4.571587044280949641e+00
1.430754733535738454e-01 4.908341343084909880e+00
1.441160222502392285e-01 5.592470018895621564e+00
1.451565711469046116e-01 6.463488800019245417e+00
1.461971200435699947e-01 7.086545410142768731e+00
1.472376689402353778e-01 7.387576181239040807e+00
1.482782178369007609e-01 7.464153593431312572e+00
1.493187667335661439e-01 8.179800562822471477e+00
1.503593156302315270e-01 8.638507273959696420e+00
1.513998645268969101e-01 8.766411439522837412e+00
1.524404134235622932e-01 9.372381659905471452e+00
1.534809623202276763e-01 1.021285553362909582e+01
1.545215112168930593e-01 1.049808734564716772e+01
1.555620601135584424e-01 1.082048444869265680e+01
1.566026090102238255e-01 1.140465771009900919e+01
1.576431579068892086e-01 1.184427918903776344e+01
1.586837068035545917e-01 1.181608444014493742e+01
1.597242557002199748e-01 1.237870670400892337e+01
1.607648045968853578e-01 1.246136846275599197e+01
1.618053534935507409e-01 1.238019062656757541e+01
1.628459023902161240e-01 1.270540581923589230e+01
1.638864512868815071e-01 1.242611539253215014e+01
1.649270001835468902e-01 1.290970235159730706e+01
1.659675490802122733e-01 1.295315399947325119e+01
1.670080979768776563e-01 1.314547355896358027e+01
1.680486468735430672e-01 1.365935402185606407e+01
1.690891957702084503e-01 1.368218345913220091e+01
1.701297446668738333e-01 1.340967874453792774e+01
1.711702935635392164e-01 1.350699360388642134e+01
1.722108424602045995e-01 1.329477452208950439e+01
1.732513913568699826e-01 1.367704261311438430e+01
1.742919402535353657e-01 1.353758844329484035e+01
1.753324891502007488e-01 1.288672091159343580e+01
1.763730380468661318e-01 1.273785627370800810e+01
1.774135869435315149e-01 1.249326488479708885e+01
1.784541358401968980e-01 1.224192983893055242e+01
1.794946847368622811e-01 1.207454532406283576e+01
1.805352336335276642e-01 1.153314827107718443e+01
1.815757825301930473e-01 1.105005705422445317e+01
1.826163314268584303e-01 1.090829836009335807e+01
1.836568803235238134e-01 1.066884691463018342e+01
1.846974292201891965e-01 1.044628064742813933e+01
1.857379781168545796e-01 9.668915586246157545e+00
1.867785270135199627e-01 9.528432171977812004e+00
1.878190759101853458e-01 9.182208858557341813e+00
1.888596248068507288e-01 9.131130819335709248e+00
1.899001737035161119e-01 8.880872627517394591e+00
1.909407226001814950e-01 8.237467036512164498e+00
1.919812714968468781e-01 7.753473477477658804e+00
1.930218203935122612e-01 7.669932726463972728e+00
1.940623692901776443e-01 7.208231155739703411e+00
1.951029181868430273e-01 6.381622941789821368e+00
1.961434670835084104e-01 6.057767645257253974e+00
1.971840159801737935e-01 5.804094315216900668e+00
1.982245648768391766e-01 5.459093158279532787e+00
1.992651137735045597e-01 5.268415253831872036e+00
2.003056626701699428e-01 4.964392805692973809e+00
2.013462115668353813e-01 4.624196387528975549e+00
2.023867604635007644e-01 4.520644927505578892e+00
2.034273093601661475e-01 3.963550496114159216e+00
2.044678582568315306e-01 3.437914318844701000e+00
2.055084071534969137e-01 3.460759827114504361e+00
2.065489560501622968e-01 3.362083185903376403e+00
2.075895049468276798e-01 2.869225382672365043e+00
2.086300538434930629e-01 2.791165431490043147e+00
2.096706027401584460e-01 2.425064866809613306e+00
2.107111516368238291e-01 1.953222503065386917e+00
2.117517005334892122e-01 2.003981000326501061e+00
2.127922494301545953e-01 1.954978266186174096e+00
2.138327983268199783e-01 1.734716939561973703e+00
2.148733472234853614e-01 1.512285931878352585e+00
2.159138961201507445e-01 1.119498735439968584e+00
2.169544450168161276e-01 1.258435323592852484e+00
2.179949939134815107e-01 1.064815369559180880e+00
2.190355428101468938e-01 1.171542516934465539e+00
2.200760917068122768e-01 1.350761429703986494e+00
2.211166406034776599e-01 9.323895938132658046e-01
2.221571895001430430e-01 6.734902689570745338e-01
2.231977383968084261e-01 6.945596194933685297e-01
2.242382872934738092e-01 6.842440229140116514e-01
2.252788361901391923e-01 6.825687983194477226e-01
2.263193850868045753e-01 9.657622134064958175e-01
2.273599339834699584e-01 8.464943636962729556e-01
2.284004828801353415e-01 8.637095361351896372e-01
2.294410317768007246e-01 9.429081595547366135e-01
2.304815806734661077e-01 7.858334242749549503e-01
2.315221295701314908e-01 7.009535862599811651e-01
2.325626784667968738e-01 6.675101634089521951e-01
2.336032273634622569e-01 5.641640055740353432e-01
2.346437762601276400e-01 5.230653342366160530e-01
2.356843251567930231e-01 8.067403395644134889e-01
2.367248740534584062e-01 7.821977399540394060e-01
2.377654229501237892e-01 8.996743155416595528e-01
2.388059718467891723e-01 1.193265533702241754e+00
2.398465207434545554e-01 1.393313695082039061e+00
2.408870696401199385e-01 1.037471858931329649e+00
2.419276185367853216e-01 1.260695660595700929e+00
2.429681674334507047e-01 1.369582192959132527e+00
2.440087163301160877e-01 1.319048201915368423e+00
2.450492652267814708e-01 1.491269028582262735e+00
2.460898141234468539e-01 1.702588518702846443e+00
2.471303630201122370e-01 1.603509068661583825e+00
2.481709119167776201e-01 1.527537437894430639e+00
2.492114608134430032e-01 1.805222865006918198e+00
2.502520097101083585e-01 1.838732552797328168e+00
2.512925586067737416e-01 2.055393389170799168e+00
2.523331075034391247e-01 2.152972120460205474e+00
2.533736564001045077e-01 2.069318757196956682e+00
2.544142052967698908e-01 2.043871728872009186e+00
2.554547541934352739e-01 1.899416231630816299e+00
2.564953030901006570e-01 2.105914701783234477e+00
2.575358519867660401e-01 2.275515978700042297e+00
2.585764008834314231e-01 2.338298570594673720e+00
2.596169497800968062e-01 2.454405676664080715e+00
2.606574986767621893e-01 2.068061093209671242e+00
2.616980475734275724e-01 2.065487097477575418e+00
2.627385964700929555e-01 2.119681693368814734e+00
2.637791453667583386e-01 2.238190687104957277e+00
2.648196942634237216e-01 2.154806586978679661e+00
2.658602431600891047e-01 2.303092091517271456e+00
2.669007920567544878e-01 2.577369424418648691e+00
2.679413409534198709e-01 2.598120495339045988e+00
2.689818898500852540e-01 2.387950013497725621e+00
2.700224387467506371e-01 2.306279472502207994e+00
2.710629876434160201e-01 2.375048711397862888e+00
2.721035365400814032e-01 2.597475238915009754e+00
2.731440854367467863e-01 2.622194399136478893e+00
2.741846343334121694e-01 2.469154391829064821e+00
2.752251832300775525e-01 2.168876553506510874e+00
2.762657321267429356e-01 2.134647599301974452e+00
2.773062810234083186e-01 2.088434976444453639e+00
2.783468299200737017e-01 1.951356558173468869e+00
2.793873788167390848e-01 1.698126201720651096e+00
2.804279277134044679e-01 1.788346314275528925e+00
2.814684766100698510e-01 2.068501873405228508e+00
2.825090255067352341e-01 2.028835121216221893e+00
2.835495744034006171e-01 1.905077861883498258e+00
2.845901233000660002e-01 1.874340028566802374e+00
2.856306721967313833e-01 1.784684174578135440e+00
2.866712210933967664e-01 1.464392733947583736e+00
2.877117699900621495e-01 1.178559296201857620e+00
2.887523188867275326e-01 1.431687288519970735e+00
2.897928677833929156e-01 1.447253951494655411e+00
2.908334166800582987e-01 1.239295743093499880e+00
2.918739655767236818e-01 1.065953241639299165e+00
2.929145144733890649e-01 1.246082928596731421e+00
2.939550633700544480e-01 1.229573522943891106e+00
2.949956122667198311e-01 1.129732344778975772e+00
2.960361611633852141e-01 1.238766166327149421e+00
2.970767100600505972e-01 1.255126866093515758e+00
2.981172589567159803e-01 1.050557229008340698e+00
2.991578078533813634e-01 9.564264150753309934e-01
3.001983567500468020e-01 9.388080081566521073e-01
3.012389056467121851e-01 7.919662039602606285e-01
3.022794545433775681e-01 8.306433980041987297e-01
3.033200034400429512e-01 6.916104457358613899e-01
3.043605523367083343e-01 7.205033949098655910e-01
3.054011012333737174e-01 8.735056175665540934e-01
3.064416501300391005e-01 9.451743161134515958e-01
3.074821990267044836e-01 5.978523423245007962e-01
3.085227479233698666e-01 5.902164360874735394e-01
3.095632968200352497e-01 5.013561085035362908e-01
3.106038457167006328e-01 4.563654688042149132e-01
3.116443946133660159e-01 6.259454084608826463e-01
3.126849435100313990e-01 7.085419998577435763e-01
3.137254924066967821e-01 6.072501838946671171e-01
3.147660413033621651e-01 4.650915494498448766e-01
3.158065902000275482e-01 4.798418875189298660e-01
3.168471390966929313e-01 4.616502595559737188e-01
3.178876879933583144e-01 4.720004823664254445e-01
3.189282368900236975e-01 3.346288763861728910e-01
3.199687857866890806e-01 3.352317224252168160e-01
3.210093346833544636e-01 2.481555281537879409e-01
3.220498835800198467e-01 1.914112538382539697e-01
3.230904324766852298e-01 3.221476565411620641e-01
3.241309813733506129e-01 5.519731903000106854e-01
3.251715302700159960e-01 5.428226149328168049e-01
3.262120791666813790e-01 6.891098894335314640e-01
3.272526280633467621e-01 7.249133148803963422e-01
3.282931769600121452e-01 5.732987243171265845e-01
3.293337258566775283e-01 5.689165969307019566e-01
3.303742747533429114e-01 4.325508889076026264e-01
3.314148236500082945e-01 5.089957194039769206e-01
3.324553725466736775e-01 4.831280413498504345e-01
3.334959214433390606e-01 5.996381906477701307e-01
3.345364703400044437e-01 6.889620922133268266e-01
3.355770192366698268e-01 6.128512032447197555e-01
3.366175681333352099e-01 7.234603563155417305e-01
3.376581170300005930e-01 6.965723776058432293e-01
3.386986659266659760e-01 7.080125124145837390e-01
3.397392148233313591e-01 8.790535013599374281e-01
3.407797637199967422e-01 7.191807227217132947e-01
3.418203126166621253e-01 7.722398401742012197e-01
3.428608615133275084e-01 9.020310124788082362e-01
3.439014104099928915e-01 7.460205314774093210e-01
3.449419593066582745e-01 8.687659031298302637e-01
3.459825082033236576e-01 1.037866378674337398e+00
3.470230570999890407e-01 7.691961868042938022e-01
3.480636059966544238e-01 7.395012044304820620e-01
3.491041548933198069e-01 8.960926316923369939e-01
3.501447037899851900e-01 1.030873803330692340e+00
3.511852526866505730e-01 9.433615958286516445e-01
3.522258015833159561e-01 8.838357109955623514e-01
3.532663504799813392e-01 1.008798401611930018e+00
3.543068993766467223e-01 8.957946177880806715e-01
3.553474482733121054e-01 7.058010184293870282e-01
3.563879971699774885e-01 8.525621808010903635e-01
3.574285460666428715e-01 6.262070541698392390e-01
3.584690949633082546e-01 6.204489553441696614e-01
3.595096438599736377e-01 7.107687173264594094e-01
3.605501927566390208e-01 7.812258157190399288e-01
3.615907416533044039e-01 9.156477536625615699e-01
3.626312905499697870e-01 7.591611675034926066e-01
3.636718394466351700e-01 6.065247178221326863e-01
3.647123883433005531e-01 9.251488604580053732e-01
3.657529372399659362e-01 1.069511855973217962e+00
3.667934861366313193e-01 9.020709163855293866e-01
3.678340350332967024e-01 8.119854582954140199e-01
3.688745839299620854e-01 7.391639382506483003e-01
3.699151328266274685e-01 7.770729396826681068e-01
3.709556817232928516e-01 6.927095739235689109e-01
3.719962306199582347e-01 8.422489662715584302e-01
3.730367795166236178e-01 7.562973896307454424e-01
3.740773284132890009e-01 7.125439766812604603e-01
3.751178773099543839e-01 7.675626467372467232e-01
3.761584262066197670e-01 9.357459469878151026e-01
3.771989751032851501e-01 1.025222803302479946e+00
3.782395239999505332e-01 8.001688483693065734e-01
3.792800728966159163e-01 7.800145152612216748e-01
3.803206217932812994e-01 7.778999915394564368e-01
3.813611706899466824e-01 7.529683097218473620e-01
3.824017195866120655e-01 8.591289304123144177e-01
3.834422684832774486e-01 7.004381220229447536e-01
3.844828173799428317e-01 6.713344349127403632e-01
3.855233662766082148e-01 7.439989893219163264e-01
3.865639151732735979e-01 6.724535086145912999e-01
3.876044640699389809e-01 5.823502528910289300e-01
3.886450129666043640e-01 5.641753004913176994e-01
3.896855618632697471e-01 5.926122385648078250e-01
3.907261107599351302e-01 3.857174058791272842e-01
3.917666596566005133e-01 5.785427762108774630e-01
3.928072085532658964e-01 6.665966491012085271e-01
3.938477574499312794e-01 6.235889751383005830e-01
3.948883063465966625e-01 5.914095252466395891e-01
3.959288552432620456e-01 5.115963851479996549e-01
3.969694041399274287e-01 5.518595172173625940e-01
3.980099530365928118e-01 7.200093907097304680e-01
3.990505019332581949e-01 6.053002586350579861e-01
4.000910508299235779e-01 5.144078776673381981e-01
4.011315997265889610e-01 5.437119726417378729e-01
4.021721486232543441e-01 4.659049309649816450e-01
4.032126975199197272e-01 6.134709125571298216e-01
4.042532464165851103e-01 6.000736041189256298e-01
4.052937953132504934e-01 5.542951978982415540e-01
4.063343442099158764e-01 7.955277785712269178e-01
4.073748931065812595e-01 6.960490512113537420e-01
4.084154420032466426e-01 5.313181989499717872e-01
4.094559908999120257e-01 3.655411347560253432e-01
4.104965397965774088e-01 4.286202262341127778e-01
4.115370886932427918e-01 2.965890493247336224e-01
4.125776375899081749e-01 4.272374064711819130e-01
4.136181864865735580e-01 5.696801692304021003e-01
4.146587353832389411e-01 6.861987183140882962e-01
4.156992842799043242e-01 5.728557850405486818e-01
4.167398331765697073e-01 3.998975445365644532e-01
4.177803820732350903e-01 4.423859058584405091e-01
4.188209309699004734e-01 5.663285190811926384e-01
4.198614798665658565e-01 4.400904276244119728e-01
4.209020287632312396e-01 2.675021534160570980e-01
4.219425776598966227e-01 1.420510299581536628e-01
4.229831265565620058e-01 3.233944618841739782e-01
4.240236754532273888e-01 5.525413282513760294e-01
4.250642243498927719e-01 3.975657125009881554e-01
4.261047732465581550e-01 4.494039613715976600e-01
4.271453221432235381e-01 5.970847545097264231e-01
4.281858710398889212e-01 4.543924580672715763e-01
4.292264199365543043e-01 3.956942940834018430e-01
4.302669688332196873e-01 5.028087751206058442e-01
4.313075177298850704e-01 5.585344300377421689e-01
4.323480666265504535e-01 4.246603166238287486e-01
4.333886155232158366e-01 4.955370654692146104e-01
4.344291644198812197e-01 7.572010098829728975e-01
