# q (1/Angstrom), Intensity (arb)
2.029070354705860696e-02 1.604024293817392845e+03
2.133125244372399004e-02 1.594406972201810731e+03
2.237180134038937659e-02 1.584205089381694052e+03
2.341235023705475968e-02 1.568275398668010212e+03
2.445289913372014276e-02 1.555926867956141677e+03
2.549344803038552584e-02 1.545398724342962169e+03
2.653399692705091240e-02 1.528534347701797287e+03
2.757454582371629548e-02 1.508547109550976984e+03
2.861509472038167856e-02 1.494171352323844303e+03
2.965564361704706164e-02 1.479830592975275295e+03
3.069619251371244473e-02 1.458469764434606304e+03
3.173674141037782781e-02 1.435835650972698431e+03
3.277729030704321089e-02 1.412317379699238472e+03
3.381783920370859398e-02 1.389176621096049530e+03
3.485838810037397706e-02 1.367356342014653137e+03
3.589893699703936014e-02 1.346234573354264967e+03
3.693948589370474322e-02 1.323212338925184213e+03
3.798003479037012631e-02 1.295819747653227978e+03
3.902058368703550939e-02 1.275559998090109048e+03
4.006113258370089247e-02 1.249618863020330537e+03
4.110168148036627556e-02 1.226270270970886941e+03
4.214223037703165864e-02 1.200209981772821038e+03
4.318277927369704866e-02 1.173313410852475727e+03
4.422332817036243174e-02 1.149617265561578279e+03
4.526387706702781483e-02 1.126329362791108451e+03
4.630442596369319791e-02 1.099508394264176786e+03
4.734497486035858099e-02 1.072547383008551606e+03
4.838552375702396408e-02 1.046802387793573644e+03
4.942607265368934716e-02 1.018882955928266369e+03
5.046662155035473024e-02 9.957533932873136564e+02
5.150717044702011332e-02 9.668937983300426140e+02
5.254771934368549641e-02 9.388573598399780167e+02
5.358826824035087949e-02 9.137117940725613607e+02
5.462881713701626257e-02 8.890008123597747272e+02
5.566936603368164566e-02 8.653261431762531402e+02
5.670991493034702874e-02 8.373331903855897735e+02
5.775046382701241182e-02 8.122413634942604403e+02
5.879101272367779490e-02 7.870953203958389395e+02
5.983156162034317799e-02 7.618927945156691521e+02
6.087211051700856107e-02 7.363178076201204476e+02
6.191265941367394415e-02 7.114799115484138383e+02
6.295320831033933417e-02 6.868318395370250755e+02
6.399375720700471726e-02 6.617062982213133182e+02
6.503430610367010034e-02 6.382883437835320137e+02
6.607485500033548342e-02 6.142503134164287530e+02
6.711540389700086651e-02 5.922241887667418041e+02
6.815595279366624959e-02 5.712598977982172528e+02
6.919650169033163267e-02 5.482430029872647310e+02
7.023705058699701576e-02 5.273156854835069680e+02
7.127759948366239884e-02 5.049776866234270187e+02
7.231814838032778192e-02 4.828394966148105709e+02
7.335869727699316500e-02 4.612462041401744273e+02
7.439924617365854809e-02 4.420637111321057660e+02
7.543979507032393117e-02 4.206161910045008767e+02
7.648034396698931425e-02 4.021869937242090600e+02
7.752089286365469734e-02 3.847270209510436416e+02
7.856144176032008042e-02 3.653648261236008352e+02
7.960199065698546350e-02 3.485740838250134743e+02
8.064253955365084658e-02 3.308359322777430407e+02
8.168308845031622967e-02 3.133062456332751822e+02
8.272363734698161275e-02 2.965196443152286747e+02
8.376418624364699583e-02 2.811684908424141440e+02
8.480473514031239279e-02 2.665458919359462016e+02
8.584528403697777588e-02 2.502831575275591831e+02
8.688583293364315896e-02 2.356560280503584295e+02
8.792638183030854204e-02 2.222453878308188564e+02
8.896693072697392513e-02 2.089446927419926965e+02
9.000747962363930821e-02 1.963712044031562982e+02
9.104802852030469129e-02 1.833516628220597795e+02
9.208857741697007437e-02 1.730857555359836795e+02
9.312912631363545746e-02 1.618564117596914116e+02
9.416967521030084054e-02 1.493054178480602729e+02
9.521022410696622362e-02 1.394361758008972743e+02
9.625077300363160671e-02 1.297935875223289486e+02
9.729132190029698979e-02 1.210311716955694550e+02
9.833187079696237287e-02 1.117767393731433998e+02
9.937241969362775595e-02 1.026557591914508691e+02
1.004129685902931390e-01 9.514122385170784924e+01
1.014535174869585221e-01 8.757105880546822618e+01
1.024940663836239052e-01 8.091171349499677490e+01
1.035346152802892883e-01 7.411315652315919067e+01
1.045751641769546714e-01 6.739935722405357410e+01
1.056157130736200545e-01 6.115418258691583731e+01
1.066562619702854375e-01 5.569853151036696204e+01
1.076968108669508206e-01 5.059098974548068384e+01
1.087373597636162037e-01 4.494361689122521852e+01
1.097779086602815868e-01 4.010671167836394346e+01
1.108184575569469699e-01 3.629827737564059476e+01
1.118590064536123529e-01 3.230173625980793872e+01
1.128995553502777360e-01 2.861687876320956647e+01
1.139401042469431191e-01 2.505476984277551011e+01
1.149806531436085022e-01 2.205384391487841711e+01
1.160212020402738853e-01 1.867458843370896204e+01
1.170617509369392684e-01 1.621510902686395639e+01
1.181022998336046514e-01 1.416643391435004773e+01
1.191428487302700345e-01 1.198920802630668447e+01
1.201833976269354176e-01 1.008192806059459556e+01
1.212239465236008007e-01 9.057922703348292970e+00
1.222644954202661838e-01 8.128613548895241792e+00
1.233050443169315669e-01 6.547818988358262260e+00
1.243455932135969499e-01 5.293952685985804152e+00
1.253861421102623330e-01 4.122068969791371273e+00
1.264266910069277161e-01 3.510158252684192348e+00
1.274672399035930992e-01 3.394299821228671021e+00
1.285077888002584823e-01 3.032056651916235523e+00
1.295483376969238654e-01 2.694808403833402366e+00
1.305888865935892484e-01 2.353973193933683206e+00
1.316294354902546315e-01 1.835329538447343367e+00
1.326699843869200146e-01 1.882874082504013558e+00
1.337105332835853977e-01 1.872359813984914467e+00
1.347510821802507808e-01 2.216863313231229426e+00
1.357916310769161639e-01 2.644633702274774123e+00
1.368321799735815469e-01 2.814670438696467158e+00
1.378727288702469300e-01 3.037775514027206469e+00
1.389132777669123131e-01 3.292911001603329169e+00
1.399538266635776962e-01 4.060575227716967106e+00
1.409943755602430793e-01 4.230145396269030300e+00
1.420349244569084624e-01 4.768662462166336269e+00
1.430754733535738454e-01 5.351313404006639018e+00
1.441160222502392285e-01 5.693182296237246476e+00
1.451565711469046116e-01 6.087417415408634014e+00
1.461971200435699947e-01 6.472831840848645157e+00
1.472376689402353778e-01 7.217892320591257516e+00
1.482782178369007609e-01 7.845210312380821449e+00
1.493187667335661439e-01 8.397157555691141084e+00
1.503593156302315270e-01 8.884229302078612278e+00
1.513998645268969101e-01 9.250384510734811272e+00
1.524404134235622932e-01 1.000508668360680176e+01
1.534809623202276763e-01 1.055424413912038872e+01
1.545215112168930593e-01 1.111102046756619544e+01
1.555620601135584424e-01 1.140568238498900655e+01
1.566026090102238255e-01 1.149616438892998005e+01
1.576431579068892086e-01 1.171737579078896729e+01
1.586837068035545917e-01 1.204972075211110294e+01
1.597242557002199748e-01 1.249501438127915520e+01
1.607648045968853578e-01 1.264831913355815374e+01
1.618053534935507409e-01 1.281438428528559825e+01
1.628459023902161240e-01 1.296329745859986815e+01
1.638864512868815071e-01 1.325758212040098272e+01
1.649270001835468902e-01 1.358097839861282097e+01
1.659675490802122733e-01 1.329861496384719644e+01
1.670080979768776563e-01 1.327914170336885391e+01
1.680486468735430672e-01 1.345534793245179728e+01
1.690891957702084503e-01 1.353081384276800847e+01
1.701297446668738333e-01 1.349109319861641865e+01
1.711702935635392164e-01 1.352181068307239542e+01
1.722108424602045995e-01 1.350767604030134805e+01
1.732513913568699826e-01 1.344162149399404171e+01
1.742919402535353657e-01 1.369621579638299735e+01
1.753324891502007488e-01 1.311480459835839341e+01
1.763730380468661318e-01 1.273757015289256955e+01
1.774135869435315149e-01 1.232995636862084510e+01
1.784541358401968980e-01 1.199642783877918006e+01
1.794946847368622811e-01 1.184698309965766683e+01
1.805352336335276642e-01 1.165325941798457166e+01
1.815757825301930473e-01 1.123516400667447712e+01
1.826163314268584303e-01 1.085814536610050496e+01
1.836568803235238134e-01 1.101173840179974661e+01
1.846974292201891965e-01 1.082296485956806364e+01
1.857379781168545796e-01 1.026403714878436801e+01
1.867785270135199627e-01 9.858072489603816990e+00
1.878190759101853458e-01 9.526456199693615901e+00
1.888596248068507288e-01 9.092975265099759952e+00
1.899001737035161119e-01 8.692756401097295083e+00
1.909407226001814950e-01 8.494213988167395257e+00
1.919812714968468781e-01 8.115719435595718068e+00
1.930218203935122612e-01 7.593510219836790753e+00
1.940623692901776443e-01 6.983349794671340760e+00
1.951029181868430273e-01 6.706421924868767093e+00
1.961434670835084104e-01 6.359173609990591558e+00
1.971840159801737935e-01 5.902012477553295611e+00
1.982245648768391766e-01 5.576718996484146373e+00
1.992651137735045597e-01 5.472454432619318965e+00
2.003056626701699428e-01 5.115188356911538392e+00
2.013462115668353813e-01 4.778533386430819263e+00
2.023867604635007644e-01 4.631641254741900582e+00
2.034273093601661475e-01 4.274994160720517300e+00
2.044678582568315306e-01 4.027189628343066374e+00
2.055084071534969137e-01 3.747466529691649839e+00
2.065489560501622968e-01 3.442245419637153248e+00
2.075895049468276798e-01 3.062940865204097918e+00
2.086300538434930629e-01 2.763683767168522820e+00
2.096706027401584460e-01 2.547872752836326526e+00
2.107111516368238291e-01 2.429244806197907280e+00
2.117517005334892122e-01 2.074838145816045198e+00
2.127922494301545953e-01 2.058380345624929220e+00
2.138327983268199783e-01 1.689366581361248620e+00
2.148733472234853614e-01 1.713541964520899796e+00
2.159138961201507445e-01 1.664301098615805330e+00
2.169544450168161276e-01 1.518704821722305809e+00
2.179949939134815107e-01 1.357807157223746231e+00
2.190355428101468938e-01 1.411839741868799791e+00
2.200760917068122768e-01 1.336756473594430616e+00
2.211166406034776599e-01 1.026134146828571403e+00
2.221571895001430430e-01 7.261856840042426597e-01
2.231977383968084261e-01 5.917530852461183599e-01
2.242382872934738092e-01 8.653880719380957487e-01
2.252788361901391923e-01 1.023898719077074304e+00
2.263193850868045753e-01 1.035630725050349810e+00
2.273599339834699584e-01 1.327148533460633217e+00
2.284004828801353415e-01 1.160252977905425809e+00
2.294410317768007246e-01 7.331055279425129356e-01
2.304815806734661077e-01 8.395828304724837210e-01
2.315221295701314908e-01 9.142817882812828145e-01
2.325626784667968738e-01 1.106987616151815956e+00
2.336032273634622569e-01 1.218779339012140639e+00
2.346437762601276400e-01 1.163093640689840669e+00
2.356843251567930231e-01 1.346025440805810547e+00
2.367248740534584062e-01 1.419884468653432208e+00
2.377654229501237892e-01 1.431064972016436343e+00
2.388059718467891723e-01 9.390198249151104903e-01
2.398465207434545554e-01 1.235398370603327578e+00
2.408870696401199385e-01 1.556425952821935965e+00
2.419276185367853216e-01 1.494020363916540362e+00
2.429681674334507047e-01 1.471045590502853884e+00
2.440087163301160877e-01 1.567328286176355334e+00
2.450492652267814708e-01 1.626052056129122292e+00
2.460898141234468539e-01 1.773599880542512608e+00
2.471303630201122370e-01 1.917622938705427771e+00
2.481709119167776201e-01 1.766874655991724552e+00
2.492114608134430032e-01 2.058712754465929606e+00
2.502520097101083585e-01 2.140148948764920789e+00
2.512925586067737416e-01 2.256019233589373840e+00
2.523331075034391247e-01 2.302732255230264258e+00
2.533736564001045077e-01 2.146750349578145034e+00
2.544142052967698908e-01 2.226494086320371935e+00
2.554547541934352739e-01 2.434625729487169821e+00
2.564953030901006570e-01 2.334277697186145417e+00
2.575358519867660401e-01 2.079208143878300774e+00
2.585764008834314231e-01 2.388793755221211512e+00
2.596169497800968062e-01 2.439372777967115269e+00
2.606574986767621893e-01 2.577947649701762600e+00
2.616980475734275724e-01 2.451857978773343660e+00
2.627385964700929555e-01 2.276625217660509293e+00
2.637791453667583386e-01 2.436943438452974675e+00
2.648196942634237216e-01 2.226006589266326330e+00
2.658602431600891047e-01 2.373675530677729739e+00
2.669007920567544878e-01 2.458350045308090870e+00
2.679413409534198709e-01 2.688149608528458856e+00
2.689818898500852540e-01 2.612280406170359726e+00
2.700224387467506371e-01 2.530323548688759416e+00
2.710629876434160201e-01 2.765665337803017820e+00
2.721035365400814032e-01 2.439766702117069030e+00
2.731440854367467863e-01 2.254158511357704953e+00
2.741846343334121694e-01 2.215040664896559264e+00
2.752251832300775525e-01 2.229921389118032948e+00
2.762657321267429356e-01 1.961055056009385567e+00
2.773062810234083186e-01 2.087021901729521289e+00
2.783468299200737017e-01 2.223754688711714778e+00
2.793873788167390848e-01 2.060885236361020389e+00
2.804279277134044679e-01 2.004238016560680791e+00
2.814684766100698510e-01 2.217003401874340085e+00
2.825090255067352341e-01 2.200414385111461257e+00
2.835495744034006171e-01 2.034258256454553049e+00
2.845901233000660002e-01 1.901383509504896097e+00
2.856306721967313833e-01 1.745747914113845667e+00
2.866712210933967664e-01 1.861799361034627509e+00
2.877117699900621495e-01 1.799156724489730408e+00
2.887523188867275326e-01 1.849111923207573227e+00
2.897928677833929156e-01 1.523088102549500888e+00
2.908334166800582987e-01 1.532880917183312874e+00
2.918739655767236818e-01 1.604545554071453495e+00
2.929145144733890649e-01 1.405128603606740967e+00
2.939550633700544480e-01 1.335475287163919944e+00
2.949956122667198311e-01 1.459206032421178634e+00
2.960361611633852141e-01 1.486594908057259801e+00
2.970767100600505972e-01 1.178689703162010716e+00
2.981172589567159803e-01 1.164759747708018267e+00
2.991578078533813634e-01 1.065369607920008121e+00
3.001983567500468020e-01 1.028508788371468086e+00
3.012389056467121851e-01 9.629541349001335959e-01
3.022794545433775681e-01 8.392546350783796072e-01
3.033200034400429512e-01 8.454066796623180835e-01
3.043605523367083343e-01 9.084904397051722924e-01
3.054011012333737174e-01 1.023791268748215799e+00
3.064416501300391005e-01 8.530340569847147947e-01
3.074821990267044836e-01 8.422699847446075694e-01
3.085227479233698666e-01 8.966718523421874920e-01
3.095632968200352497e-01 8.635216010127919617e-01
3.106038457167006328e-01 6.448359048139202798e-01
3.116443946133660159e-01 5.506050410719502963e-01
3.126849435100313990e-01 4.736062546806891760e-01
3.137254924066967821e-01 6.913639503808717279e-01
3.147660413033621651e-01 6.961049759792636848e-01
3.158065902000275482e-01 5.723596588317683143e-01
3.168471390966929313e-01 6.678250473195355141e-01
3.178876879933583144e-01 5.766808886606291651e-01
3.189282368900236975e-01 5.047449518419249159e-01
3.199687857866890806e-01 5.966273327611304467e-01
3.210093346833544636e-01 6.645297186212957286e-01
3.220498835800198467e-01 7.039410487999155919e-01
3.230904324766852298e-01 8.511325491611607674e-01
3.241309813733506129e-01 6.755994336565471770e-01
3.251715302700159960e-01 6.780077307128387076e-01
3.262120791666813790e-01 6.302578993744134550e-01
3.272526280633467621e-01 5.410237768834136318e-01
3.282931769600121452e-01 5.868560143985597222e-01
3.293337258566775283e-01 6.671858066927178754e-01
3.303742747533429114e-01 6.691175432049867311e-01
3.314148236500082945e-01 8.434043303743266051e-01
3.324553725466736775e-01 8.287639988644208699e-01
3.334959214433390606e-01 8.083086278317956896e-01
3.345364703400044437e-01 8.167001341531516800e-01
3.355770192366698268e-01 8.022938813015159099e-01
3.366175681333352099e-01 7.274135064540523388e-01
3.376581170300005930e-01 7.978649993529991491e-01
3.386986659266659760e-01 8.299028581804073212e-01
3.397392148233313591e-01 8.888241038658577509e-01
3.407797637199967422e-01 8.565924552262060843e-01
3.418203126166621253e-01 9.688567691050131714e-01
3.428608615133275084e-01 8.384758160426635243e-01
3.439014104099928915e-01 8.943051032990823046e-01
3.449419593066582745e-01 9.353840776753976627e-01
3.459825082033236576e-01 8.851675940928807051e-01
3.470230570999890407e-01 1.053832141123709931e+00
3.480636059966544238e-01 1.057173271726547625e+00
3.491041548933198069e-01 9.112156848786767682e-01
3.501447037899851900e-01 8.576266337683478014e-01
3.511852526866505730e-01 1.008761902906574193e+00
3.522258015833159561e-01 1.180967724233443761e+00
3.532663504799813392e-01 1.026382983972908391e+00
3.543068993766467223e-01 1.062665309120351509e+00
3.553474482733121054e-01 1.019150779131702933e+00
3.563879971699774885e-01 9.840313158978730712e-01
3.574285460666428715e-01 8.885067127917380958e-01
3.584690949633082546e-01 9.913501260007215876e-01
3.595096438599736377e-01 1.069127937022372521e+00
3.605501927566390208e-01 1.047533017924394017e+00
3.615907416533044039e-01 1.102333852817434234e+00
3.626312905499697870e-01 1.201923657729185635e+00
3.636718394466351700e-01 1.223846774997070952e+00
3.647123883433005531e-01 1.162178213624642353e+00
3.657529372399659362e-01 1.118340441369046090e+00
3.667934861366313193e-01 9.810298161450994314e-01
3.678340350332967024e-01 1.037985555277195715e+00
3.688745839299620854e-01 9.922695782103829742e-01
3.699151328266274685e-01 9.172848273725371371e-01
3.709556817232928516e-01 1.065468871020193831e+00
3.719962306199582347e-01 9.791753712849633473e-01
3.730367795166236178e-01 9.302717625253720257e-01
3.740773284132890009e-01 8.719467157410960567e-01
3.751178773099543839e-01 9.065395281326509291e-01
3.761584262066197670e-01 7.063921583414227712e-01
3.771989751032851501e-01 6.831808945672150912e-01
3.782395239999505332e-01 9.174507339285256080e-01
3.792800728966159163e-01 9.712925166797319321e-01
3.803206217932812994e-01 7.934024918697879514e-01
3.813611706899466824e-01 9.651058442279349947e-01
3.824017195866120655e-01 1.027470663867294576e+00
3.834422684832774486e-01 7.085065183192007510e-01
3.844828173799428317e-01 7.732886394612883407e-01
3.855233662766082148e-01 1.008472681880842714e+00
3.865639151732735979e-01 7.894497605507595495e-01
3.876044640699389809e-01 5.407397934740814094e-01
3.886450129666043640e-01 7.279131789116100038e-01
3.896855618632697471e-01 8.047604948899405031e-01
3.907261107599351302e-01 7.007662433856900464e-01
3.917666596566005133e-01 4.373523972096968748e-01
3.928072085532658964e-01 0.000000000000000000e+00
3.938477574499312794e-01 8.027625555142066105e-01
3.948883063465966625e-01 7.312377640674725399e-01
3.959288552432620456e-01 8.080451355436117922e-01
3.969694041399274287e-01 6.243054437954498326e-01
3.980099530365928118e-01 4.173114717353030301e-01
3.990505019332581949e-01 5.609955504166670437e-01
4.000910508299235779e-01 4.589814268270302478e-01
4.011315997265889610e-01 4.611013070599128127e-01
4.021721486232543441e-01 4.071741071741570295e-01
4.032126975199197272e-01 5.153576459286597355e-01
4.042532464165851103e-01 7.734529016710922633e-01
4.052937953132504934e-01 6.695825060009461538e-01
4.063343442099158764e-01 4.863905650429245497e-01
4.073748931065812595e-01 5.473311764867290208e-01
4.084154420032466426e-01 7.493802183675200013e-01
4.094559908999120257e-01 8.100652495563771538e-01
4.104965397965774088e-01 6.931795078890026218e-01
4.115370886932427918e-01 5.961621784757014098e-01
4.125776375899081749e-01 6.681676227854183026e-01
4.136181864865735580e-01 7.791674372467802812e-01
4.146587353832389411e-01 3.601095577238453416e-01
4.156992842799043242e-01 5.729918190361757979e-01
4.167398331765697073e-01 5.948499510940372659e-01
4.177803820732350903e-01 4.508571801996197337e-01
4.188209309699004734e-01 6.999992994524362189e-01
4.198614798665658565e-01 5.970569273510086816e-01
4.209020287632312396e-01 5.817485177799532892e-01
4.219425776598966227e-01 5.479497653657716683e-01
4.229831265565620058e-01 7.984059612831444497e-01
4.240236754532273888e-01 6.315729657884752157e-01
4.250642243498927719e-01 6.555263045590713489e-01
4.261047732465581550e-01 5.608574684549125777e-01
4.271453221432235381e-01 4.882814023403305725e-01
4.281858710398889212e-01 4.492173475807064165e-01
4.292264199365543043e-01 7.033045507513904226e-01
4.302669688332196873e-01 6.595240912348963036e-01
4.313075177298850704e-01 5.256202097727502576e-01
4.323480666265504535e-01 6.374681717727739283e-01
4.333886155232158366e-01 4.974789760754880774e-01
4.344291644198812197e-01 5.640549517083428555e-01
