# q (1/Angstrom), Intensity (arb)
2.029070354705860696e-02 1.666956665824784523e+03
2.133125244372399004e-02 1.659932770652886120e+03
2.237180134038937659e-02 1.643471319343016603e+03
2.341235023705475968e-02 1.632092456230747757e+03
2.445289913372014276e-02 1.619126451456712402e+03
2.549344803038552584e-02 1.603564953304202618e+03
2.653399692705091240e-02 1.585445286845184455e+03
2.757454582371629548e-02 1.568768557444659564e+03
2.861509472038167856e-02 1.548379836511807980e+03
2.965564361704706164e-02 1.528019504263422505e+03
3.069619251371244473e-02 1.501320956168050998e+03
3.173674141037782781e-02 1.487038052609620081e+03
3.277729030704321089e-02 1.464663022632755656e+03
3.381783920370859398e-02 1.445025339112682104e+03
3.485838810037397706e-02 1.416309004144445908e+03
3.589893699703936014e-02 1.392681512821824526e+03
3.693948589370474322e-02 1.369153251078455014e+03
3.798003479037012631e-02 1.342952014438798642e+03
3.902058368703550939e-02 1.317913124969931232e+03
4.006113258370089247e-02 1.292345101012743726e+03
4.110168148036627556e-02 1.265522722456137672e+03
4.214223037703165864e-02 1.239613872092335669e+03
4.318277927369704866e-02 1.212383401815463003e+03
4.422332817036243174e-02 1.189485916067675362e+03
4.526387706702781483e-02 1.159206726606973234e+03
4.630442596369319791e-02 1.132681626649989539e+03
4.734497486035858099e-02 1.108422944842620382e+03
4.838552375702396408e-02 1.082405569854503256e+03
4.942607265368934716e-02 1.053362135495355915e+03
5.046662155035473024e-02 1.025509800053577919e+03
5.150717044702011332e-02 9.977216914256647442e+02
5.254771934368549641e-02 9.738697343323428868e+02
5.358826824035087949e-02 9.486598206733464167e+02
5.462881713701626257e-02 9.232043296600066924e+02
5.566936603368164566e-02 8.922663349384907860e+02
5.670991493034702874e-02 8.660476887954818039e+02
5.775046382701241182e-02 8.388957959602307710e+02
5.879101272367779490e-02 8.144116482263664238e+02
5.983156162034317799e-02 7.894197996289427692e+02
6.087211051700856107e-02 7.631699068657617318e+02
6.191265941367394415e-02 7.366912169722152157e+02
6.295320831033933417e-02 7.108769077187912444e+02
6.399375720700471726e-02 6.848607008858914469e+02
6.503430610367010034e-02 6.631556358917938496e+02
6.607485500033548342e-02 6.402155551375429923e+02
6.711540389700086651e-02 6.162080810872685106e+02
6.815595279366624959e-02 5.930618242826518554e+02
6.919650169033163267e-02 5.696017986783884908e+02
7.023705058699701576e-02 5.462267335084187607e+02
7.127759948366239884e-02 5.238373033839254731e+02
7.231814838032778192e-02 5.007183461211036501e+02
7.335869727699316500e-02 4.787382547340999395e+02
7.439924617365854809e-02 4.592980756651694492e+02
7.543979507032393117e-02 4.391687258064199000e+02
7.648034396698931425e-02 4.186948237299545212e+02
7.752089286365469734e-02 4.008769139616841812e+02
7.856144176032008042e-02 3.816702485931959927e+02
7.960199065698546350e-02 3.628010813181577419e+02
8.064253955365084658e-02 3.452942202682335164e+02
8.168308845031622967e-02 3.271974543563870839e+02
8.272363734698161275e-02 3.105624371215467363e+02
8.376418624364699583e-02 2.949368867233703213e+02
8.480473514031239279e-02 2.783756119609865891e+02
8.584528403697777588e-02 2.634901357525255889e+02
8.688583293364315896e-02 2.481259096758274154e+02
8.792638183030854204e-02 2.340133017920942393e+02
8.896693072697392513e-02 2.199892202061661806e+02
9.000747962363930821e-02 2.067692553029427245e+02
9.104802852030469129e-02 1.935173118040079601e+02
9.208857741697007437e-02 1.811048981973991374e+02
9.312912631363545746e-02 1.698806487551426869e+02
9.416967521030084054e-02 1.574008303897771270e+02
9.521022410696622362e-02 1.468989742321731455e+02
9.625077300363160671e-02 1.369175071563527410e+02
9.729132190029698979e-02 1.260184143509310957e+02
9.833187079696237287e-02 1.162882998502431491e+02
9.937241969362775595e-02 1.075122345825619021e+02
1.004129685902931390e-01 1.002276940298112038e+02
1.014535174869585221e-01 9.155968832812916958e+01
1.024940663836239052e-01 8.416079984185209639e+01
1.035346152802892883e-01 7.747200308881407693e+01
1.045751641769546714e-01 6.972965239564788931e+01
1.056157130736200545e-01 6.320702347391399201e+01
1.066562619702854375e-01 5.788458532019740232e+01
1.076968108669508206e-01 5.281962893471255427e+01
1.087373597636162037e-01 4.784456387225076668e+01
1.097779086602815868e-01 4.305192666151756953e+01
1.108184575569469699e-01 3.775340327859590417e+01
1.118590064536123529e-01 3.344788690985172508e+01
1.128995553502777360e-01 3.006487515985498504e+01
1.139401042469431191e-01 2.667950972093519724e+01
1.149806531436085022e-01 2.335991811845284616e+01
1.160212020402738853e-01 1.987069975051263526e+01
1.170617509369392684e-01 1.759380675363004798e+01
1.181022998336046514e-01 1.541848989325521302e+01
1.191428487302700345e-01 1.314329543941475364e+01
1.201833976269354176e-01 1.105757838193699527e+01
1.212239465236008007e-01 9.528773438017399400e+00
1.222644954202661838e-01 7.696077364284967359e+00
1.233050443169315669e-01 6.369409682301281350e+00
1.243455932135969499e-01 5.692458774276996536e+00
1.253861421102623330e-01 4.729350686200952225e+00
1.264266910069277161e-01 3.595493108478823530e+00
1.274672399035930992e-01 2.820876656741674537e+00
1.285077888002584823e-01 2.409745550739291531e+00
1.295483376969238654e-01 2.122169685562802499e+00
1.305888865935892484e-01 1.780852161683771584e+00
1.316294354902546315e-01 1.569194720772944862e+00
1.326699843869200146e-01 1.563462587914791868e+00
1.337105332835853977e-01 1.570338352925720216e+00
1.347510821802507808e-01 1.680242465887438641e+00
1.357916310769161639e-01 2.066641527158164848e+00
1.368321799735815469e-01 2.180019783586679694e+00
1.378727288702469300e-01 2.553591710012632632e+00
1.389132777669123131e-01 3.130688746355918539e+00
1.399538266635776962e-01 3.404237204654609883e+00
1.409943755602430793e-01 3.771465353375138108e+00
1.420349244569084624e-01 4.595550964956263584e+00
1.430754733535738454e-01 5.131197948918881480e+00
1.441160222502392285e-01 5.661826416796291284e+00
1.451565711469046116e-01 6.177932969125503604e+00
1.461971200435699947e-01 6.749204812050898283e+00
1.472376689402353778e-01 7.121982266977852305e+00
1.482782178369007609e-01 7.636143599217376732e+00
1.493187667335661439e-01 8.203972592554855225e+00
1.503593156302315270e-01 8.752737166521292522e+00
1.513998645268969101e-01 8.977017869412765805e+00
1.524404134235622932e-01 9.851766322957516309e+00
1.534809623202276763e-01 1.022670997536260629e+01
1.545215112168930593e-01 1.086750684447934745e+01
1.555620601135584424e-01 1.126662937534284836e+01
1.566026090102238255e-01 1.153981076697363406e+01
1.576431579068892086e-01 1.205971559170494345e+01
1.586837068035545917e-01 1.244271056107917772e+01
1.597242557002199748e-01 1.268022806430404614e+01
1.607648045968853578e-01 1.298946513336211694e+01
1.618053534935507409e-01 1.317142445878100432e+01
1.628459023902161240e-01 1.329961863711542236e+01
1.638864512868815071e-01 1.347402876578100717e+01
1.649270001835468902e-01 1.355456138044269210e+01
1.659675490802122733e-01 1.388561991164736398e+01
1.670080979768776563e-01 1.381331558232693979e+01
1.680486468735430672e-01 1.363558334016543583e+01
1.690891957702084503e-01 1.381896177247291035e+01
1.701297446668738333e-01 1.372343060143340665e+01
1.711702935635392164e-01 1.371235937177095465e+01
1.722108424602045995e-01 1.371281970554970542e+01
1.732513913568699826e-01 1.374975194530762579e+01
1.742919402535353657e-01 1.383586939195961207e+01
1.753324891502007488e-01 1.347562644399955545e+01
1.763730380468661318e-01 1.306044024478315180e+01
1.774135869435315149e-01 1.276085105863815272e+01
1.784541358401968980e-01 1.255494120792630142e+01
1.794946847368622811e-01 1.247421942596937328e+01
1.805352336335276642e-01 1.204665432022360960e+01
1.815757825301930473e-01 1.161473424278304734e+01
1.826163314268584303e-01 1.147000600507978518e+01
1.836568803235238134e-01 1.102163217065541545e+01
1.846974292201891965e-01 1.037769940837669580e+01
1.857379781168545796e-01 1.012759441362524271e+01
1.867785270135199627e-01 9.995678120457476723e+00
1.878190759101853458e-01 9.489109104341746814e+00
1.888596248068507288e-01 9.198042706807761704e+00
1.899001737035161119e-01 8.781415840940873352e+00
1.909407226001814950e-01 8.482901016729972099e+00
1.919812714968468781e-01 8.235454118734185869e+00
1.930218203935122612e-01 7.979535921076905680e+00
1.940623692901776443e-01 7.423677395763327524e+00
1.951029181868430273e-01 6.975103148799821184e+00
1.961434670835084104e-01 6.668132139394870705e+00
1.971840159801737935e-01 6.194029849150886946e+00
1.982245648768391766e-01 5.679406510374477079e+00
1.992651137735045597e-01 5.342526004674276408e+00
2.003056626701699428e-01 5.137566842593372485e+00
2.013462115668353813e-01 4.881378976891323163e+00
2.023867604635007644e-01 4.332874558579053570e+00
2.034273093601661475e-01 4.204876163424227542e+00
2.044678582568315306e-01 3.816362167882136447e+00
2.055084071534969137e-01 3.349283165727616307e+00
2.065489560501622968e-01 3.171785895245871956e+00
2.075895049468276798e-01 2.919313933364872327e+00
2.086300538434930629e-01 2.742869798222407951e+00
2.096706027401584460e-01 2.467374864987419869e+00
2.107111516368238291e-01 2.119254314013325313e+00
2.117517005334892122e-01 1.795908259222219527e+00
2.127922494301545953e-01 1.818119321506298292e+00
2.138327983268199783e-01 1.862118568581646372e+00
2.148733472234853614e-01 1.353175748000886358e+00
2.159138961201507445e-01 1.005709606155985369e+00
2.169544450168161276e-01 1.002700098976315957e+00
2.179949939134815107e-01 8.616912301613233183e-01
2.190355428101468938e-01 9.858412793425443965e-01
2.200760917068122768e-01 8.074988849731106200e-01
2.211166406034776599e-01 4.664324092950167255e-01
2.221571895001430430e-01 6.846291588385611249e-01
2.231977383968084261e-01 7.299753271388098597e-01
2.242382872934738092e-01 5.203804172991262078e-01
2.252788361901391923e-01 8.600713289499601899e-01
2.263193850868045753e-01 7.582703785351796455e-01
2.273599339834699584e-01 6.765327597439565466e-01
2.284004828801353415e-01 9.583006197922792069e-01
2.294410317768007246e-01 8.416706146653538667e-01
2.304815806734661077e-01 6.229356035289796978e-01
2.315221295701314908e-01 7.771544882211927074e-01
2.325626784667968738e-01 9.061128619557621278e-01
2.336032273634622569e-01 8.497628774941112795e-01
2.346437762601276400e-01 8.142078858340831005e-01
2.356843251567930231e-01 9.730760080389764255e-01
2.367248740534584062e-01 1.191530545125377927e+00
2.377654229501237892e-01 8.936684869531958952e-01
2.388059718467891723e-01 1.099196391835903341e+00
2.398465207434545554e-01 1.214045806093807300e+00
2.408870696401199385e-01 1.013778224836588748e+00
2.419276185367853216e-01 1.080778285175515663e+00
2.429681674334507047e-01 1.179569639495340994e+00
2.440087163301160877e-01 1.485463387643289224e+00
2.450492652267814708e-01 1.613050267150214268e+00
2.460898141234468539e-01 1.664166475100717690e+00
2.471303630201122370e-01 1.699671801615128430e+00
2.481709119167776201e-01 1.685466115098954276e+00
2.492114608134430032e-01 1.650909834994312320e+00
2.502520097101083585e-01 1.719144821662325739e+00
2.512925586067737416e-01 1.604538173290698921e+00
2.523331075034391247e-01 1.821834796389605771e+00
2.533736564001045077e-01 2.177365177518773010e+00
2.544142052967698908e-01 1.965688086824645353e+00
2.554547541934352739e-01 1.864754245234301777e+00
2.564953030901006570e-01 2.070983998599899678e+00
2.575358519867660401e-01 2.306211858679297677e+00
2.585764008834314231e-01 2.327980332194673707e+00
2.596169497800968062e-01 2.158414606625143506e+00
2.606574986767621893e-01 2.135628638241424682e+00
2.616980475734275724e-01 2.308243212572179459e+00
2.627385964700929555e-01 2.241379511643501132e+00
2.637791453667583386e-01 2.337328754736805791e+00
2.648196942634237216e-01 2.277440093560525014e+00
2.658602431600891047e-01 2.131609886265618314e+00
2.669007920567544878e-01 2.324886616684779028e+00
2.679413409534198709e-01 2.355369646222104763e+00
2.689818898500852540e-01 2.495569134290811064e+00
2.700224387467506371e-01 2.528004853221705872e+00
2.710629876434160201e-01 2.221308131492399696e+00
2.721035365400814032e-01 1.985323733468550955e+00
2.731440854367467863e-01 1.962065384231809873e+00
2.741846343334121694e-01 2.068383619688233921e+00
2.752251832300775525e-01 2.141389603297898958e+00
2.762657321267429356e-01 2.069012188577818989e+00
2.773062810234083186e-01 1.908519603192427638e+00
2.783468299200737017e-01 1.846074521026995541e+00
2.793873788167390848e-01 1.992648533566690361e+00
2.804279277134044679e-01 1.774662167481334762e+00
2.814684766100698510e-01 1.682950990589535678e+00
2.825090255067352341e-01 2.176579337909601009e+00
2.835495744034006171e-01 2.146410881141651572e+00
2.845901233000660002e-01 1.784744708921483181e+00
2.856306721967313833e-01 1.766869155116005174e+00
2.866712210933967664e-01 1.861464099424082974e+00
2.877117699900621495e-01 1.718665449809421375e+00
2.887523188867275326e-01 1.470384037921959930e+00
2.897928677833929156e-01 1.295083448822897054e+00
2.908334166800582987e-01 1.355628327383325171e+00
2.918739655767236818e-01 1.322162843176943881e+00
2.929145144733890649e-01 1.266576044346372498e+00
2.939550633700544480e-01 1.344789526397654811e+00
2.949956122667198311e-01 1.322210444063156132e+00
2.960361611633852141e-01 1.125922360464851835e+00
2.970767100600505972e-01 1.014418085760052435e+00
2.981172589567159803e-01 8.169058641432584977e-01
2.991578078533813634e-01 9.246811454238184069e-01
3.001983567500468020e-01 8.173680764060833326e-01
3.012389056467121851e-01 6.428418677928497971e-01
3.022794545433775681e-01 6.830556601299981878e-01
3.033200034400429512e-01 8.385384904338302192e-01
3.043605523367083343e-01 7.214828213618353914e-01
3.054011012333737174e-01 6.501339225619666706e-01
3.064416501300391005e-01 5.788038518407638833e-01
3.074821990267044836e-01 4.606994391829815072e-01
3.085227479233698666e-01 6.302098817061434488e-01
3.095632968200352497e-01 5.883955743758271240e-01
3.106038457167006328e-01 4.440925741556824846e-01
3.116443946133660159e-01 5.406060270783221711e-01
3.126849435100313990e-01 5.316302817428102401e-01
3.137254924066967821e-01 3.750874275281361747e-01
3.147660413033621651e-01 3.007264498901101035e-01
3.158065902000275482e-01 4.190589786139540251e-01
3.168471390966929313e-01 3.841132027809024407e-01
3.178876879933583144e-01 3.668109497183706935e-01
3.189282368900236975e-01 2.827398530966576118e-01
3.199687857866890806e-01 4.726205975786790248e-01
3.210093346833544636e-01 4.241390567318426008e-01
3.220498835800198467e-01 3.283259534573303995e-01
3.230904324766852298e-01 6.827598307172024761e-01
3.241309813733506129e-01 6.581198886173780238e-01
3.251715302700159960e-01 5.478950031641254270e-01
3.262120791666813790e-01 3.826932992335905226e-01
3.272526280633467621e-01 5.404467313071954493e-01
3.282931769600121452e-01 6.278668374979332611e-01
3.293337258566775283e-01 4.066729624799982901e-01
3.303742747533429114e-01 4.356057674912570121e-01
3.314148236500082945e-01 5.706532816219258564e-01
3.324553725466736775e-01 4.912728706545053114e-01
3.334959214433390606e-01 4.581201854612864111e-01
3.345364703400044437e-01 4.755305734067505341e-01
3.355770192366698268e-01 5.759705930307355004e-01
3.366175681333352099e-01 3.685273368314234688e-01
3.376581170300005930e-01 3.659342446281854677e-01
3.386986659266659760e-01 5.960944200917737135e-01
3.397392148233313591e-01 5.260069187724312201e-01
3.407797637199967422e-01 6.680485805191977988e-01
3.418203126166621253e-01 8.460052444041394892e-01
3.428608615133275084e-01 6.342063940830193758e-01
3.439014104099928915e-01 5.843616196778285143e-01
3.449419593066582745e-01 6.919442999577505304e-01
3.459825082033236576e-01 7.002028769032655475e-01
3.470230570999890407e-01 7.205286181330876616e-01
3.480636059966544238e-01 6.943621556401708972e-01
3.491041548933198069e-01 6.460546592693106049e-01
3.501447037899851900e-01 7.793258768521340585e-01
3.511852526866505730e-01 8.615255649489057532e-01
3.522258015833159561e-01 6.891342209900948035e-01
3.532663504799813392e-01 8.725759406231858861e-01
3.543068993766467223e-01 8.493804407726948114e-01
3.553474482733121054e-01 8.043275933150972890e-01
3.563879971699774885e-01 9.396525900219216965e-01
3.574285460666428715e-01 8.986557346014691916e-01
3.584690949633082546e-01 8.776912498837212695e-01
3.595096438599736377e-01 9.217585326998474216e-01
3.605501927566390208e-01 9.513065158745668271e-01
3.615907416533044039e-01 9.173632790040997520e-01
3.626312905499697870e-01 8.573222755759779545e-01
3.636718394466351700e-01 8.552985543788764744e-01
3.647123883433005531e-01 8.863862572081266933e-01
3.657529372399659362e-01 7.275197677936553475e-01
3.667934861366313193e-01 8.313752327851418045e-01
3.678340350332967024e-01 6.136407693216625603e-01
3.688745839299620854e-01 7.708081889052600388e-01
3.699151328266274685e-01 9.545053137745433958e-01
3.709556817232928516e-01 9.914256191755406178e-01
3.719962306199582347e-01 1.023962398829453946e+00
3.730367795166236178e-01 9.645674190831705630e-01
3.740773284132890009e-01 8.078296478839916972e-01
3.751178773099543839e-01 7.145897496768469637e-01
3.761584262066197670e-01 7.074701794091176055e-01
3.771989751032851501e-01 6.113208020324627512e-01
3.782395239999505332e-01 6.900679160203040396e-01
3.792800728966159163e-01 7.420090005617048234e-01
3.803206217932812994e-01 6.734721447724396626e-01
3.813611706899466824e-01 7.836791260930056069e-01
3.824017195866120655e-01 8.006684199741940233e-01
3.834422684832774486e-01 7.696157010861597314e-01
3.844828173799428317e-01 7.053810028450726577e-01
3.855233662766082148e-01 6.910259731989079057e-01
3.865639151732735979e-01 4.553846149303630853e-01
3.876044640699389809e-01 3.744911733678826238e-01
3.886450129666043640e-01 4.567898405855537192e-01
3.896855618632697471e-01 5.353649622519682794e-01
3.907261107599351302e-01 6.054288107292933319e-01
3.917666596566005133e-01 6.560603942590184090e-01
3.928072085532658964e-01 5.961073158206922074e-01
3.938477574499312794e-01 5.618050852068598999e-01
3.948883063465966625e-01 4.216600437340289886e-01
3.959288552432620456e-01 4.914010897280398638e-01
3.969694041399274287e-01 4.926692366743026241e-01
3.980099530365928118e-01 3.869640027895826506e-01
3.990505019332581949e-01 4.402523409419281109e-01
4.000910508299235779e-01 4.438201279341278394e-01
4.011315997265889610e-01 4.590466366118626240e-01
4.021721486232543441e-01 5.938583326641158067e-01
4.032126975199197272e-01 3.904646104421019004e-01
4.042532464165851103e-01 3.457218624250728567e-01
4.052937953132504934e-01 3.803317176482252648e-01
4.063343442099158764e-01 5.046029748311191554e-01
4.073748931065812595e-01 3.731340367953066561e-01
4.084154420032466426e-01 4.281600036986965563e-01
4.094559908999120257e-01 4.875008337570641004e-01
4.104965397965774088e-01 3.796632977537086617e-01
4.115370886932427918e-01 4.084032420948133790e-01
4.125776375899081749e-01 4.366644356236157876e-01
4.136181864865735580e-01 4.724181919012124808e-01
4.146587353832389411e-01 4.213755307404838391e-01
4.156992842799043242e-01 4.288875355986938587e-01
4.167398331765697073e-01 3.139181040413951962e-01
4.177803820732350903e-01 3.682209625459833546e-01
4.188209309699004734e-01 3.290543665296787879e-01
4.198614798665658565e-01 4.839420906788518550e-01
4.209020287632312396e-01 5.678921533433296531e-01
4.219425776598966227e-01 4.858812317532077429e-01
4.229831265565620058e-01 4.016523159333615922e-01
4.240236754532273888e-01 2.963767413713043197e-01
4.250642243498927719e-01 2.481106333555480603e-01
4.261047732465581550e-01 1.172646404319408475e-01
4.271453221432235381e-01 2.466998236378046272e-01
4.281858710398889212e-01 2.103568707543388427e-01
4.292264199365543043e-01 2.303718733896928939e-01
4.302669688332196873e-01 4.308841337471243094e-01
4.313075177298850704e-01 2.783146433190317737e-01
4.323480666265504535e-01 4.142920091823008022e-01
4.333886155232158366e-01 3.467062061795047612e-01
4.344291644198812197e-01 5.180125973446791932e-01
