# q (1/Angstrom), Intensity (arb)
2.029070354705860696e-02 1.598974694145989133e+03
2.133125244372399004e-02 1.591763013404936601e+03
2.237180134038937659e-02 1.583304174561246555e+03
2.341235023705475968e-02 1.574826128755517175e+03
2.445289913372014276e-02 1.560904602486775048e+03
2.549344803038552584e-02 1.546640282095177099e+03
2.653399692705091240e-02 1.529951875849544422e+03
2.757454582371629548e-02 1.512510569357790928e+03
2.861509472038167856e-02 1.498012312436178490e+03
2.965564361704706164e-02 1.481881581311878790e+03
3.069619251371244473e-02 1.459844516728097005e+03
3.173674141037782781e-02 1.438972483545453997e+03
3.277729030704321089e-02 1.417387548919694382e+03
3.381783920370859398e-02 1.393134857253248128e+03
3.485838810037397706e-02 1.372566748618005931e+03
3.589893699703936014e-02 1.351191033309034765e+03
3.693948589370474322e-02 1.329243766883681019e+03
3.798003479037012631e-02 1.304775722923768399e+03
3.902058368703550939e-02 1.284322836690951362e+03
4.006113258370089247e-02 1.256411464339047598e+03
4.110168148036627556e-02 1.227566004357089469e+03
4.214223037703165864e-02 1.203458191656507552e+03
4.318277927369704866e-02 1.178108251663575857e+03
4.422332817036243174e-02 1.151010467402816630e+03
4.526387706702781483e-02 1.126767300167105759e+03
4.630442596369319791e-02 1.105641449861699812e+03
4.734497486035858099e-02 1.079028757893248894e+03
4.838552375702396408e-02 1.050458411887875627e+03
4.942607265368934716e-02 1.023613210613022375e+03
5.046662155035473024e-02 9.947926534481002818e+02
5.150717044702011332e-02 9.687679716662714782e+02
5.254771934368549641e-02 9.447522780226861414e+02
5.358826824035087949e-02 9.183426462561012613e+02
5.462881713701626257e-02 8.904889648850116828e+02
5.566936603368164566e-02 8.657073763270367408e+02
5.670991493034702874e-02 8.394045704829175065e+02
5.775046382701241182e-02 8.142748827880710678e+02
5.879101272367779490e-02 7.908732355849289206e+02
5.983156162034317799e-02 7.652341146844411242e+02
6.087211051700856107e-02 7.386485738037832789e+02
6.191265941367394415e-02 7.126838663132010652e+02
6.295320831033933417e-02 6.905180667003444341e+02
6.399375720700471726e-02 6.673182603015937957e+02
6.503430610367010034e-02 6.428175683650849805e+02
6.607485500033548342e-02 6.198323052512395179e+02
6.711540389700086651e-02 5.960987970305720864e+02
6.815595279366624959e-02 5.719249910685316536e+02
6.919650169033163267e-02 5.478458255798718710e+02
7.023705058699701576e-02 5.273359809455745335e+02
7.127759948366239884e-02 5.065501872839896578e+02
7.231814838032778192e-02 4.851802548214748754e+02
7.335869727699316500e-02 4.637400236525505193e+02
7.439924617365854809e-02 4.438835096626539212e+02
7.543979507032393117e-02 4.255740475685776687e+02
7.648034396698931425e-02 4.072585627819220804e+02
7.752089286365469734e-02 3.867221942726660018e+02
7.856144176032008042e-02 3.673443829602412052e+02
7.960199065698546350e-02 3.477632699945358468e+02
8.064253955365084658e-02 3.316332310472410541e+02
8.168308845031622967e-02 3.166262685228759324e+02
8.272363734698161275e-02 2.991749161359021514e+02
8.376418624364699583e-02 2.831092955425455102e+02
8.480473514031239279e-02 2.677262198986559838e+02
8.584528403697777588e-02 2.540281273195570577e+02
8.688583293364315896e-02 2.385112163958268638e+02
8.792638183030854204e-02 2.238118280955026478e+02
8.896693072697392513e-02 2.098904448530068692e+02
9.000747962363930821e-02 1.971749168672529322e+02
9.104802852030469129e-02 1.862242493110201735e+02
9.208857741697007437e-02 1.745379388742035758e+02
9.312912631363545746e-02 1.645774203383076610e+02
9.416967521030084054e-02 1.526897950176707468e+02
9.521022410696622362e-02 1.412408024185315583e+02
9.625077300363160671e-02 1.312719267342105809e+02
9.729132190029698979e-02 1.216356556460717115e+02
9.833187079696237287e-02 1.130073887911296708e+02
9.937241969362775595e-02 1.040320594653269097e+02
1.004129685902931390e-01 9.638970714584152688e+01
1.014535174869585221e-01 8.864430853554898704e+01
1.024940663836239052e-01 8.070331941680012733e+01
1.035346152802892883e-01 7.366188547442456525e+01
1.045751641769546714e-01 6.732251220350123333e+01
1.056157130736200545e-01 6.081661157034749010e+01
1.066562619702854375e-01 5.491365917736571589e+01
1.076968108669508206e-01 5.007757122229971714e+01
1.087373597636162037e-01 4.519664048363619457e+01
1.097779086602815868e-01 4.084369854218694940e+01
1.108184575569469699e-01 3.642173326863311900e+01
1.118590064536123529e-01 3.307990695845254692e+01
1.128995553502777360e-01 2.889839144863012876e+01
1.139401042469431191e-01 2.553205126722325957e+01
1.149806531436085022e-01 2.197985064276756262e+01
1.160212020402738853e-01 1.918544771162527951e+01
1.170617509369392684e-01 1.651666005921987690e+01
1.181022998336046514e-01 1.418993019671197331e+01
1.191428487302700345e-01 1.213044564556910743e+01
1.201833976269354176e-01 1.029409137830859677e+01
1.212239465236008007e-01 8.790731590932178818e+00
1.222644954202661838e-01 7.492601930321306725e+00
1.233050443169315669e-01 6.362397225307617532e+00
1.243455932135969499e-01 5.389568574340177776e+00
1.253861421102623330e-01 4.334345079050624605e+00
1.264266910069277161e-01 3.301932010251796612e+00
1.274672399035930992e-01 2.824761753152692734e+00
1.285077888002584823e-01 2.494849000227201685e+00
1.295483376969238654e-01 2.258623808548659184e+00
1.305888865935892484e-01 2.292340951014342210e+00
1.316294354902546315e-01 2.185410760249407502e+00
1.326699843869200146e-01 1.813253422124486036e+00
1.337105332835853977e-01 1.505560736218967577e+00
1.347510821802507808e-01 1.659971773232793879e+00
1.357916310769161639e-01 1.966186078976235763e+00
1.368321799735815469e-01 2.304999442683460131e+00
1.378727288702469300e-01 2.670742210789413207e+00
1.389132777669123131e-01 3.240698237738047993e+00
1.399538266635776962e-01 3.148109081742671123e+00
1.409943755602430793e-01 3.641056754654599104e+00
1.420349244569084624e-01 4.626584555521610298e+00
1.430754733535738454e-01 5.546159982122070176e+00
1.441160222502392285e-01 6.480559175264271943e+00
1.451565711469046116e-01 6.760354501851988829e+00
1.461971200435699947e-01 6.524389303536121787e+00
1.472376689402353778e-01 6.960517493878466411e+00
1.482782178369007609e-01 7.617739279135875563e+00
1.493187667335661439e-01 8.624141934852389113e+00
1.503593156302315270e-01 8.896239744465258781e+00
1.513998645268969101e-01 8.905693308804178088e+00
1.524404134235622932e-01 9.559046670503274612e+00
1.534809623202276763e-01 1.015787446453320797e+01
1.545215112168930593e-01 1.039102873350758571e+01
1.555620601135584424e-01 1.107350811908018073e+01
1.566026090102238255e-01 1.134054552996446930e+01
1.576431579068892086e-01 1.180463369543776153e+01
1.586837068035545917e-01 1.187606938969461723e+01
1.597242557002199748e-01 1.259708850187552542e+01
1.607648045968853578e-01 1.234750033656916557e+01
1.618053534935507409e-01 1.247990373996384150e+01
1.628459023902161240e-01 1.315710582405770879e+01
1.638864512868815071e-01 1.287166566156114911e+01
1.649270001835468902e-01 1.253643400296865451e+01
1.659675490802122733e-01 1.327110591269143924e+01
1.670080979768776563e-01 1.369374936029975132e+01
1.680486468735430672e-01 1.369241584881513774e+01
1.690891957702084503e-01 1.331658740776772731e+01
1.701297446668738333e-01 1.338240410774711009e+01
1.711702935635392164e-01 1.373116921770503396e+01
1.722108424602045995e-01 1.367540001834299090e+01
1.732513913568699826e-01 1.377844274708113304e+01
1.742919402535353657e-01 1.360484141881805442e+01
1.753324891502007488e-01 1.317486582639705261e+01
1.763730380468661318e-01 1.271923750838033484e+01
1.774135869435315149e-01 1.236611973070795045e+01
1.784541358401968980e-01 1.214850740115194228e+01
1.794946847368622811e-01 1.203619669277690463e+01
1.805352336335276642e-01 1.204903899954770807e+01
1.815757825301930473e-01 1.147736861741701730e+01
1.826163314268584303e-01 1.114676595417314431e+01
1.836568803235238134e-01 1.091669392947132877e+01
1.846974292201891965e-01 1.057914367549426871e+01
1.857379781168545796e-01 9.771118078099508608e+00
1.867785270135199627e-01 9.592245962125645065e+00
1.878190759101853458e-01 9.372244603800282903e+00
1.888596248068507288e-01 9.046295748434943107e+00
1.899001737035161119e-01 8.713049474568503427e+00
1.909407226001814950e-01 7.912547115521956442e+00
1.919812714968468781e-01 7.540904430394139268e+00
1.930218203935122612e-01 7.553496393740630310e+00
1.940623692901776443e-01 7.226542149830194717e+00
1.951029181868430273e-01 6.444640554076240591e+00
1.961434670835084104e-01 6.453906223656392882e+00
1.971840159801737935e-01 5.997568533663411472e+00
1.982245648768391766e-01 5.486366210796894904e+00
1.992651137735045597e-01 4.925067358457575040e+00
2.003056626701699428e-01 4.645463042075668625e+00
2.013462115668353813e-01 4.502823177138690625e+00
2.023867604635007644e-01 4.515273732738982915e+00
2.034273093601661475e-01 4.027343225024495155e+00
2.044678582568315306e-01 3.481739057847548224e+00
2.055084071534969137e-01 3.518796914471440829e+00
2.065489560501622968e-01 3.401401454697893456e+00
2.075895049468276798e-01 2.990874804393673259e+00
2.086300538434930629e-01 2.758379262134333487e+00
2.096706027401584460e-01 2.164814024698518580e+00
2.107111516368238291e-01 1.756615676739006204e+00
2.117517005334892122e-01 1.782481418199004963e+00
2.127922494301545953e-01 1.745622040170662359e+00
2.138327983268199783e-01 1.499767064014442042e+00
2.148733472234853614e-01 1.248464809944557885e+00
2.159138961201507445e-01 1.187809134465570793e+00
2.169544450168161276e-01 1.268364620578751101e+00
2.179949939134815107e-01 9.931816731986877755e-01
2.190355428101468938e-01 9.507173159734314538e-01
2.200760917068122768e-01 1.077813888432146427e+00
2.211166406034776599e-01 8.368188025649274664e-01
2.221571895001430430e-01 7.394390064261671114e-01
2.231977383968084261e-01 7.268197356153898170e-01
2.242382872934738092e-01 7.620397173192046125e-01
2.252788361901391923e-01 7.394797067276144276e-01
2.263193850868045753e-01 7.208023338989697493e-01
2.273599339834699584e-01 6.021436054753834810e-01
2.284004828801353415e-01 7.740205041581020851e-01
2.294410317768007246e-01 7.105126206185978788e-01
2.304815806734661077e-01 9.850980883276996281e-01
2.315221295701314908e-01 8.580956510913360091e-01
2.325626784667968738e-01 7.927179975086104946e-01
2.336032273634622569e-01 5.737349870534202978e-01
2.346437762601276400e-01 6.300120254228005479e-01
2.356843251567930231e-01 6.719206016721201991e-01
2.367248740534584062e-01 1.035121840129466619e+00
2.377654229501237892e-01 1.181938008721107991e+00
2.388059718467891723e-01 1.115082230936067731e+00
2.398465207434545554e-01 1.204703574806892163e+00
2.408870696401199385e-01 1.035852431700668319e+00
2.419276185367853216e-01 1.114486590853086767e+00
2.429681674334507047e-01 1.450817403045622456e+00
2.440087163301160877e-01 1.535173872438019060e+00
2.450492652267814708e-01 1.611688660990861166e+00
2.460898141234468539e-01 1.966816865527043490e+00
2.471303630201122370e-01 1.695721392789096171e+00
2.481709119167776201e-01 1.777422271312630642e+00
2.492114608134430032e-01 2.079168871247567552e+00
2.502520097101083585e-01 2.032748690661847490e+00
2.512925586067737416e-01 2.118286527845135936e+00
2.523331075034391247e-01 1.989742727627586305e+00
2.533736564001045077e-01 2.057871950883313872e+00
2.544142052967698908e-01 2.108487950789974974e+00
2.554547541934352739e-01 1.967994771878419868e+00
2.564953030901006570e-01 2.022954067228766917e+00
2.575358519867660401e-01 2.300431381219500082e+00
2.585764008834314231e-01 2.232953805225012189e+00
2.596169497800968062e-01 2.300236013765065479e+00
2.606574986767621893e-01 2.090607054348112115e+00
2.616980475734275724e-01 2.191203558771196214e+00
2.627385964700929555e-01 2.091856382681381632e+00
2.637791453667583386e-01 2.213442367175307623e+00
2.648196942634237216e-01 2.270399181675710309e+00
2.658602431600891047e-01 2.325178178700905818e+00
2.669007920567544878e-01 2.646167221827752769e+00
2.679413409534198709e-01 2.543296341084960943e+00
2.689818898500852540e-01 2.248658468516168796e+00
2.700224387467506371e-01 2.451884524058367987e+00
2.710629876434160201e-01 2.463532878732809905e+00
2.721035365400814032e-01 2.472737626537991673e+00
2.731440854367467863e-01 2.720873860814343459e+00
2.741846343334121694e-01 2.548979458197155878e+00
2.752251832300775525e-01 2.112749581869472593e+00
2.762657321267429356e-01 2.090308847630762301e+00
2.773062810234083186e-01 2.277732170350081020e+00
2.783468299200737017e-01 2.107566188162206089e+00
2.793873788167390848e-01 1.865192820076000402e+00
2.804279277134044679e-01 2.013842077088938254e+00
2.814684766100698510e-01 2.195406689508896392e+00
2.825090255067352341e-01 1.992527522717399080e+00
2.835495744034006171e-01 1.687094189524884769e+00
2.845901233000660002e-01 1.770632321081237137e+00
2.856306721967313833e-01 1.883556289918391968e+00
2.866712210933967664e-01 1.588846939554482418e+00
2.877117699900621495e-01 1.429991747741492958e+00
2.887523188867275326e-01 1.573109178872432068e+00
2.897928677833929156e-01 1.513367763213945949e+00
2.908334166800582987e-01 1.285615420404077724e+00
2.918739655767236818e-01 9.905555457592285507e-01
2.929145144733890649e-01 1.353017127245383477e+00
2.939550633700544480e-01 1.443474647203920824e+00
2.949956122667198311e-01 1.166483525890591011e+00
2.960361611633852141e-01 1.031189106443772374e+00
2.970767100600505972e-01 9.254848617490551987e-01
2.981172589567159803e-01 9.336210153452313421e-01
2.991578078533813634e-01 1.125688957593489192e+00
3.001983567500468020e-01 8.105552892614831251e-01
3.012389056467121851e-01 7.617335111979990359e-01
3.022794545433775681e-01 8.289070214032676631e-01
3.033200034400429512e-01 6.875230949951074422e-01
3.043605523367083343e-01 6.270612549577059269e-01
3.054011012333737174e-01 5.559270518736703082e-01
3.064416501300391005e-01 6.483792580270097972e-01
3.074821990267044836e-01 5.314863080585610078e-01
3.085227479233698666e-01 5.888312573019085505e-01
3.095632968200352497e-01 6.151825092267557693e-01
3.106038457167006328e-01 6.950336073077387766e-01
3.116443946133660159e-01 7.181664396382991811e-01
3.126849435100313990e-01 7.369422725553071984e-01
3.137254924066967821e-01 5.233339049532688136e-01
3.147660413033621651e-01 5.010447760808176554e-01
3.158065902000275482e-01 4.175049003356186006e-01
3.168471390966929313e-01 4.061967784935980319e-01
3.178876879933583144e-01 5.804560312028783642e-01
3.189282368900236975e-01 5.619178184858952818e-01
3.199687857866890806e-01 4.893450579843303672e-01
3.210093346833544636e-01 3.003784577199084538e-01
3.220498835800198467e-01 1.942220129175282750e-01
3.230904324766852298e-01 4.877676696800214984e-01
3.241309813733506129e-01 5.908759584508764817e-01
3.251715302700159960e-01 6.126484147828605842e-01
3.262120791666813790e-01 5.915966548568327710e-01
3.272526280633467621e-01 4.532311629060927771e-01
3.282931769600121452e-01 4.276415136137607931e-01
3.293337258566775283e-01 4.493875077837401477e-01
3.303742747533429114e-01 4.560799617667328221e-01
3.314148236500082945e-01 6.151454274578540549e-01
3.324553725466736775e-01 5.014153805213403814e-01
3.334959214433390606e-01 4.588591862090964923e-01
3.345364703400044437e-01 6.684686380253737070e-01
3.355770192366698268e-01 7.009956737017830619e-01
3.366175681333352099e-01 7.320486142881144076e-01
3.376581170300005930e-01 7.772747832125226353e-01
3.386986659266659760e-01 7.299784406347455956e-01
3.397392148233313591e-01 9.150514449341820011e-01
3.407797637199967422e-01 7.871908179360325164e-01
3.418203126166621253e-01 7.076159561719030933e-01
3.428608615133275084e-01 7.064300709879418605e-01
3.439014104099928915e-01 7.451830565104344828e-01
3.449419593066582745e-01 7.873031343551559758e-01
3.459825082033236576e-01 9.209779174822649850e-01
3.470230570999890407e-01 8.305228925621435110e-01
3.480636059966544238e-01 7.660281893696598843e-01
3.491041548933198069e-01 9.098381461538025405e-01
3.501447037899851900e-01 9.998420082473877812e-01
3.511852526866505730e-01 8.341083093055239317e-01
3.522258015833159561e-01 8.354985132783312451e-01
3.532663504799813392e-01 9.574394527570504465e-01
3.543068993766467223e-01 8.460176781563291115e-01
3.553474482733121054e-01 7.431779874337927083e-01
3.563879971699774885e-01 8.364845552976127863e-01
3.574285460666428715e-01 8.788433403039377367e-01
3.584690949633082546e-01 8.488206365107764384e-01
3.595096438599736377e-01 9.281335449678174143e-01
3.605501927566390208e-01 6.819616307166143088e-01
3.615907416533044039e-01 7.834574049546922936e-01
3.626312905499697870e-01 7.810869596620548805e-01
3.636718394466351700e-01 6.416989116778957225e-01
3.647123883433005531e-01 6.617213737874365620e-01
3.657529372399659362e-01 9.059106458029368980e-01
3.667934861366313193e-01 8.378719387387967288e-01
3.678340350332967024e-01 8.330403078025838681e-01
3.688745839299620854e-01 8.350426373862411822e-01
3.699151328266274685e-01 8.308397579022077650e-01
3.709556817232928516e-01 7.604125474463252488e-01
3.719962306199582347e-01 9.629649402364002242e-01
3.730367795166236178e-01 9.530864391981808126e-01
3.740773284132890009e-01 8.047513870240550204e-01
3.751178773099543839e-01 8.299858390600114433e-01
3.761584262066197670e-01 9.863558017173019721e-01
3.771989751032851501e-01 1.041608569952060748e+00
3.782395239999505332e-01 8.569336776439406833e-01
3.792800728966159163e-01 6.978382878691036240e-01
3.803206217932812994e-01 7.586954028987591414e-01
3.813611706899466824e-01 6.991122962743823166e-01
3.824017195866120655e-01 8.617193445881135005e-01
3.834422684832774486e-01 6.942259654931746127e-01
3.844828173799428317e-01 6.278404595050268711e-01
3.855233662766082148e-01 7.310439717123919934e-01
3.865639151732735979e-01 6.322917808413670571e-01
3.876044640699389809e-01 4.793330178086279147e-01
3.886450129666043640e-01 5.016547275623679525e-01
3.896855618632697471e-01 5.925670437887120556e-01
3.907261107599351302e-01 3.809983256209008573e-01
3.917666596566005133e-01 6.367828247089413196e-01
3.928072085532658964e-01 7.258241729182692836e-01
3.938477574499312794e-01 4.868960846239751561e-01
3.948883063465966625e-01 5.349071920050256779e-01
3.959288552432620456e-01 4.495585770068863951e-01
3.969694041399274287e-01 3.738826483915858034e-01
3.980099530365928118e-01 5.375915139520408559e-01
3.990505019332581949e-01 6.086596008578410988e-01
4.000910508299235779e-01 4.682303806087695364e-01
4.011315997265889610e-01 5.174285104441160854e-01
4.021721486232543441e-01 5.332927099944235749e-01
4.032126975199197272e-01 6.017656376486684167e-01
4.042532464165851103e-01 4.872480505729264166e-01
4.052937953132504934e-01 4.919019656179237643e-01
4.063343442099158764e-01 5.404658529897012897e-01
4.073748931065812595e-01 5.672107138132709281e-01
4.084154420032466426e-01 4.537109116671160791e-01
4.094559908999120257e-01 4.797342358487313163e-01
4.104965397965774088e-01 4.494704207966542242e-01
4.115370886932427918e-01 2.935230683324547840e-01
4.125776375899081749e-01 3.312249615174920336e-01
4.136181864865735580e-01 3.930837893958418761e-01
4.146587353832389411e-01 5.749303489474613116e-01
4.156992842799043242e-01 4.117804504099247254e-01
4.167398331765697073e-01 2.851361563782894848e-01
4.177803820732350903e-01 3.976763090636623588e-01
4.188209309699004734e-01 3.252085516316327585e-01
4.198614798665658565e-01 4.609233349996131324e-01
4.209020287632312396e-01 4.039662587568351171e-01
4.219425776598966227e-01 2.713001454848615879e-01
4.229831265565620058e-01 3.638980253417543054e-01
4.240236754532273888e-01 5.128616838124209210e-01
4.250642243498927719e-01 4.954714390346310893e-01
4.261047732465581550e-01 4.541833450276087092e-01
4.271453221432235381e-01 3.825767907102175514e-01
4.281858710398889212e-01 2.327307526174600127e-01
4.292264199365543043e-01 2.827131158204991834e-01
4.302669688332196873e-01 3.997853011473644358e-01
4.313075177298850704e-01 4.455984362198037729e-01
4.323480666265504535e-01 3.402357080300753012e-01
4.333886155232158366e-01 4.520066559107149828e-01
4.344291644198812197e-01 5.195609104104583764e-01
