# q (1/Angstrom), Intensity (arb)
2.029070354705860696e-02 6.859190638736046139e+02
2.133125244372399004e-02 6.812976691896290049e+02
2.237180134038937659e-02 6.677152220910577398e+02
2.341235023705475968e-02 6.611662589359928006e+02
2.445289913372014276e-02 6.628774169309717763e+02
2.549344803038552584e-02 6.611710185048983703e+02
2.653399692705091240e-02 6.534155120168036319e+02
2.757454582371629548e-02 6.469687249769209529e+02
2.861509472038167856e-02 6.403810709786606594e+02
2.965564361704706164e-02 6.324613515399336166e+02
3.069619251371244473e-02 6.227267231919449841e+02
3.173674141037782781e-02 6.112259234653480462e+02
3.277729030704321089e-02 6.059404827871896941e+02
3.381783920370859398e-02 5.973650007984875856e+02
3.485838810037397706e-02 5.894699691315639711e+02
3.589893699703936014e-02 5.823145081063728412e+02
3.693948589370474322e-02 5.721582798386147033e+02
3.798003479037012631e-02 5.579823069042723773e+02
3.902058368703550939e-02 5.491358774457903564e+02
4.006113258370089247e-02 5.393738346921505808e+02
4.110168148036627556e-02 5.280325901910158564e+02
4.214223037703165864e-02 5.174362125027649881e+02
4.318277927369704866e-02 5.068523226450246284e+02
4.422332817036243174e-02 4.957769839600526893e+02
4.526387706702781483e-02 4.853058051177460470e+02
4.630442596369319791e-02 4.753530917228303565e+02
4.734497486035858099e-02 4.634003905674941279e+02
4.838552375702396408e-02 4.501181970584561327e+02
4.942607265368934716e-02 4.385013635146715387e+02
5.046662155035473024e-02 4.270944460713262743e+02
5.150717044702011332e-02 4.185510538968598553e+02
5.254771934368549641e-02 4.074723434921668286e+02
5.358826824035087949e-02 3.976349876837070951e+02
5.462881713701626257e-02 3.886716216852581169e+02
5.566936603368164566e-02 3.772481397567586328e+02
5.670991493034702874e-02 3.648996514312887598e+02
5.775046382701241182e-02 3.522016413151202983e+02
5.879101272367779490e-02 3.417741276513820594e+02
5.983156162034317799e-02 3.327223182472074541e+02
6.087211051700856107e-02 3.219462270498146950e+02
6.191265941367394415e-02 3.113434777736957244e+02
6.295320831033933417e-02 3.028385908068809727e+02
6.399375720700471726e-02 2.932525620092092140e+02
6.503430610367010034e-02 2.837551684065841187e+02
6.607485500033548342e-02 2.737453211657809788e+02
6.711540389700086651e-02 2.632535844987145879e+02
6.815595279366624959e-02 2.540296357353344376e+02
6.919650169033163267e-02 2.451555892416475331e+02
7.023705058699701576e-02 2.364573001980197660e+02
7.127759948366239884e-02 2.265495160958270446e+02
7.231814838032778192e-02 2.176551577018577177e+02
7.335869727699316500e-02 2.102328020857424349e+02
7.439924617365854809e-02 2.023397394368973607e+02
7.543979507032393117e-02 1.937926502112109119e+02
7.648034396698931425e-02 1.854358982530303877e+02
7.752089286365469734e-02 1.790355623341550313e+02
7.856144176032008042e-02 1.744513552758471917e+02
7.960199065698546350e-02 1.725584261748784343e+02
8.064253955365084658e-02 1.782390195289710562e+02
8.168308845031622967e-02 2.442054673867061751e+02
8.272363734698161275e-02 4.621139982886140274e+02
8.376418624364699583e-02 5.765741653510266360e+02
8.480473514031239279e-02 3.860365162237152958e+02
8.584528403697777588e-02 2.629921605650023366e+02
8.688583293364315896e-02 3.378781801897949322e+02
8.792638183030854204e-02 5.921247013719369079e+02
8.896693072697392513e-02 6.241752631634212776e+02
9.000747962363930821e-02 3.601106243975289658e+02
9.104802852030469129e-02 2.574558640509799829e+02
9.208857741697007437e-02 3.324264918684011150e+02
9.312912631363545746e-02 5.973056234045006931e+02
9.416967521030084054e-02 8.876531063330857023e+02
9.521022410696622362e-02 7.238887749235339015e+02
9.625077300363160671e-02 3.477838207942340318e+02
9.729132190029698979e-02 1.730833828257773916e+02
9.833187079696237287e-02 1.141110381719450402e+02
9.937241969362775595e-02 8.757903443648984876e+01
1.004129685902931390e-01 7.679113213929372250e+01
1.014535174869585221e-01 7.280866576509583865e+01
1.024940663836239052e-01 6.490126752919057651e+01
1.035346152802892883e-01 5.215527448772290597e+01
1.045751641769546714e-01 4.318230386296234258e+01
1.056157130736200545e-01 3.761517121094332339e+01
1.066562619702854375e-01 3.235384426834843907e+01
1.076968108669508206e-01 2.905932856179990154e+01
1.087373597636162037e-01 2.623797549112616778e+01
1.097779086602815868e-01 2.349722000973962466e+01
1.108184575569469699e-01 2.107779284362912620e+01
1.118590064536123529e-01 1.884393588872630687e+01
1.128995553502777360e-01 1.717705456670896424e+01
1.139401042469431191e-01 1.549182872256723442e+01
1.149806531436085022e-01 1.383004705192684725e+01
1.160212020402738853e-01 1.262963860579439057e+01
1.170617509369392684e-01 1.116831428863721598e+01
1.181022998336046514e-01 1.046801190751668997e+01
1.191428487302700345e-01 9.998546001547261142e+00
1.201833976269354176e-01 9.756065501313457844e+00
1.212239465236008007e-01 9.288287805749160242e+00
1.222644954202661838e-01 7.238534519811537393e+00
1.233050443169315669e-01 5.558607240433889984e+00
1.243455932135969499e-01 4.217803038162731610e+00
1.253861421102623330e-01 3.631542919472316555e+00
1.264266910069277161e-01 2.910036290861842900e+00
1.274672399035930992e-01 2.448581420345053772e+00
1.285077888002584823e-01 2.154367123102161941e+00
1.295483376969238654e-01 1.844920692130877171e+00
1.305888865935892484e-01 1.769255424398689769e+00
1.316294354902546315e-01 1.529127546310963481e+00
1.326699843869200146e-01 1.400593661086265485e+00
1.337105332835853977e-01 1.222940834812931143e+00
1.347510821802507808e-01 1.229570356161090672e+00
1.357916310769161639e-01 1.336708196914358382e+00
1.368321799735815469e-01 1.432767824467973128e+00
1.378727288702469300e-01 1.969875373796039497e+00
1.389132777669123131e-01 1.963542446270324149e+00
1.399538266635776962e-01 2.205630196928691333e+00
1.409943755602430793e-01 2.643711556137748886e+00
1.420349244569084624e-01 3.253905081447182823e+00
1.430754733535738454e-01 7.241744381997065716e+00
1.441160222502392285e-01 1.445544170045985766e+01
1.451565711469046116e-01 1.266956410213268569e+01
1.461971200435699947e-01 6.382673799771154677e+00
1.472376689402353778e-01 4.494011083237520410e+00
1.482782178369007609e-01 4.464809784773596135e+00
1.493187667335661439e-01 4.242296889027006301e+00
1.503593156302315270e-01 4.825325818934992128e+00
1.513998645268969101e-01 5.584178231761917743e+00
1.524404134235622932e-01 6.477538343950197230e+00
1.534809623202276763e-01 7.655763305880846303e+00
1.545215112168930593e-01 1.054602365591306068e+01
1.555620601135584424e-01 1.596352662690694757e+01
1.566026090102238255e-01 2.167256987026241077e+01
1.576431579068892086e-01 1.957953306848774488e+01
1.586837068035545917e-01 1.367244569383058561e+01
1.597242557002199748e-01 1.028543053292748866e+01
1.607648045968853578e-01 8.759791803618206529e+00
1.618053534935507409e-01 7.980438163578675415e+00
1.628459023902161240e-01 7.728248618459577557e+00
1.638864512868815071e-01 7.906756227520766345e+00
1.649270001835468902e-01 8.562290869844218832e+00
1.659675490802122733e-01 1.158832051096363713e+01
1.670080979768776563e-01 1.669774074159548505e+01
1.680486468735430672e-01 3.034259398374396355e+01
1.690891957702084503e-01 5.555908976323472359e+01
1.701297446668738333e-01 4.893551365702265343e+01
1.711702935635392164e-01 3.014002136697158818e+01
1.722108424602045995e-01 3.272986333317456342e+01
1.732513913568699826e-01 2.909505344258847970e+01
1.742919402535353657e-01 1.672915054985088190e+01
1.753324891502007488e-01 1.163548289969372362e+01
1.763730380468661318e-01 1.295078290672473287e+01
1.774135869435315149e-01 1.294895584979368053e+01
1.784541358401968980e-01 9.571517015657196481e+00
1.794946847368622811e-01 7.142153069390097642e+00
1.805352336335276642e-01 6.468196361678330675e+00
1.815757825301930473e-01 6.363968394660687977e+00
1.826163314268584303e-01 6.172055206771275948e+00
1.836568803235238134e-01 6.164935423504864787e+00
1.846974292201891965e-01 5.942573112013604941e+00
1.857379781168545796e-01 5.988546162189301469e+00
1.867785270135199627e-01 6.630373210502003900e+00
1.878190759101853458e-01 7.035484329143702809e+00
1.888596248068507288e-01 7.086981430151741534e+00
1.899001737035161119e-01 6.278885017408196489e+00
1.909407226001814950e-01 5.440903803451654142e+00
1.919812714968468781e-01 5.000780726415108290e+00
1.930218203935122612e-01 4.714856773745218277e+00
1.940623692901776443e-01 4.450504564631490467e+00
1.951029181868430273e-01 4.369714898978305229e+00
1.961434670835084104e-01 4.093844118279402977e+00
1.971840159801737935e-01 3.635089833176174068e+00
1.982245648768391766e-01 3.273609758872623843e+00
1.992651137735045597e-01 3.052088570806692047e+00
2.003056626701699428e-01 2.789129068432600889e+00
2.013462115668353813e-01 2.689088592263615851e+00
2.023867604635007644e-01 2.374727199323313442e+00
2.034273093601661475e-01 2.192566400995463738e+00
2.044678582568315306e-01 2.259103604292473477e+00
2.055084071534969137e-01 1.903371467617233748e+00
2.065489560501622968e-01 1.672487633466207768e+00
2.075895049468276798e-01 1.693096436580283637e+00
2.086300538434930629e-01 1.716218463676806749e+00
2.096706027401584460e-01 1.490759594332669025e+00
2.107111516368238291e-01 1.466383453741102016e+00
2.117517005334892122e-01 1.516125461442513256e+00
2.127922494301545953e-01 1.885175298264528010e+00
2.138327983268199783e-01 1.589725995767281574e+00
2.148733472234853614e-01 1.119432826559449978e+00
2.159138961201507445e-01 1.048620916055401864e+00
2.169544450168161276e-01 8.923483220710366481e-01
2.179949939134815107e-01 8.867117440908849346e-01
2.190355428101468938e-01 7.547213375535513080e-01
2.200760917068122768e-01 5.581645621046220640e-01
2.211166406034776599e-01 7.597003700096855994e-01
2.221571895001430430e-01 4.373540118668941545e-01
2.231977383968084261e-01 2.746933329466614282e-01
2.242382872934738092e-01 4.184485691596044887e-01
2.252788361901391923e-01 4.870201384685088897e-01
2.263193850868045753e-01 7.396610721804961486e-01
2.273599339834699584e-01 6.937682658657244872e-01
2.284004828801353415e-01 3.910910754688039503e-01
2.294410317768007246e-01 4.780770584817872759e-01
2.304815806734661077e-01 7.310480340427396584e-01
2.315221295701314908e-01 5.760323922131007635e-01
2.325626784667968738e-01 3.804668593762485784e-01
2.336032273634622569e-01 2.913365134277619006e-01
2.346437762601276400e-01 4.323579087257201081e-01
2.356843251567930231e-01 7.902307373376338262e-01
2.367248740534584062e-01 9.356794113371265098e-01
2.377654229501237892e-01 8.063130605157837749e-01
2.388059718467891723e-01 8.165020812130343586e-01
2.398465207434545554e-01 8.780923117710877079e-01
2.408870696401199385e-01 6.781238431754026408e-01
2.419276185367853216e-01 5.620040481193768755e-01
2.429681674334507047e-01 8.796786763451258651e-01
2.440087163301160877e-01 1.005279760198249051e+00
2.450492652267814708e-01 9.031204999696704760e-01
2.460898141234468539e-01 6.669599900334794995e-01
2.471303630201122370e-01 7.827200005718175646e-01
2.481709119167776201e-01 8.323956613397918147e-01
2.492114608134430032e-01 1.518066323052241984e+00
2.502520097101083585e-01 1.966649898670880248e+00
2.512925586067737416e-01 1.689812547379037966e+00
2.523331075034391247e-01 1.167764161865452621e+00
2.533736564001045077e-01 1.270957222798969610e+00
2.544142052967698908e-01 1.437221951722730040e+00
2.554547541934352739e-01 1.715058117461300213e+00
2.564953030901006570e-01 2.878143665196123635e+00
2.575358519867660401e-01 3.638094543336059417e+00
2.585764008834314231e-01 3.071083036783395670e+00
2.596169497800968062e-01 1.945941815870881442e+00
2.606574986767621893e-01 1.571197810880509138e+00
2.616980475734275724e-01 1.733608102466945411e+00
2.627385964700929555e-01 1.618233764485687232e+00
2.637791453667583386e-01 2.241476192457206196e+00
2.648196942634237216e-01 3.935401276239105073e+00
2.658602431600891047e-01 4.267806215188102215e+00
2.669007920567544878e-01 2.255285301899178307e+00
2.679413409534198709e-01 1.550408593623959774e+00
2.689818898500852540e-01 1.350201215470324456e+00
2.700224387467506371e-01 1.140087595465910653e+00
2.710629876434160201e-01 1.227936515126557993e+00
2.721035365400814032e-01 1.551284051612253023e+00
2.731440854367467863e-01 1.440192068224366295e+00
2.741846343334121694e-01 1.622265472722169477e+00
2.752251832300775525e-01 1.689359097901888873e+00
2.762657321267429356e-01 1.836564676561636134e+00
2.773062810234083186e-01 1.821251292015549694e+00
2.783468299200737017e-01 1.746626900962890971e+00
2.793873788167390848e-01 1.295680401611818411e+00
2.804279277134044679e-01 1.200083790139530038e+00
2.814684766100698510e-01 1.407177430306763455e+00
2.825090255067352341e-01 1.383356308883502805e+00
2.835495744034006171e-01 1.278795713230781672e+00
2.845901233000660002e-01 1.073004740069990248e+00
2.856306721967313833e-01 1.025868697163364374e+00
2.866712210933967664e-01 1.093212481541737446e+00
2.877117699900621495e-01 1.455074148402744072e+00
2.887523188867275326e-01 1.521764845111732711e+00
2.897928677833929156e-01 1.284088242511696620e+00
2.908334166800582987e-01 1.063817732103643721e+00
2.918739655767236818e-01 8.116385252729507727e-01
2.929145144733890649e-01 8.174630813599890189e-01
2.939550633700544480e-01 9.726604138698640156e-01
2.949956122667198311e-01 7.477571830406404274e-01
2.960361611633852141e-01 5.928095338064238717e-01
2.970767100600505972e-01 2.453316170625043924e-01
2.981172589567159803e-01 3.735491521060225750e-01
2.991578078533813634e-01 5.839534564624031532e-01
3.001983567500468020e-01 7.390734185736249628e-01
3.012389056467121851e-01 1.031900061558580717e+00
3.022794545433775681e-01 1.226866762842835357e+00
3.033200034400429512e-01 9.082010604108532448e-01
3.043605523367083343e-01 7.941168557681699269e-01
3.054011012333737174e-01 7.388618194872229594e-01
3.064416501300391005e-01 6.296270437959812227e-01
3.074821990267044836e-01 4.724660449315365440e-01
3.085227479233698666e-01 3.428781225331327676e-01
3.095632968200352497e-01 3.711768328363795888e-01
3.106038457167006328e-01 3.572636769001249490e-01
3.116443946133660159e-01 3.648964388301294548e-01
3.126849435100313990e-01 2.911286960270622615e-01
3.137254924066967821e-01 3.545240861295084756e-01
3.147660413033621651e-01 3.847964430999972762e-01
3.158065902000275482e-01 6.056451301371552631e-01
3.168471390966929313e-01 3.164583377057645919e-01
3.178876879933583144e-01 2.544302093066015402e-01
3.189282368900236975e-01 3.756935097047104932e-01
3.199687857866890806e-01 2.461906578712778071e-01
3.210093346833544636e-01 5.136230158346677399e-02
3.220498835800198467e-01 1.255918699288152141e-01
3.230904324766852298e-01 9.170073389549315834e-02
3.241309813733506129e-01 1.112979071264419417e-02
3.251715302700159960e-01 1.233121479538645815e-01
3.262120791666813790e-01 3.770649135619024150e-01
3.272526280633467621e-01 2.819233985351985439e-01
3.282931769600121452e-01 1.478652432497327140e-01
3.293337258566775283e-01 2.246661580361895005e-01
3.303742747533429114e-01 4.554872337538817817e-01
3.314148236500082945e-01 4.176860221038154464e-01
3.324553725466736775e-01 2.720197275083258148e-01
3.334959214433390606e-01 2.666784802850195035e-01
3.345364703400044437e-01 3.175410324508156634e-01
3.355770192366698268e-01 3.021317987842202513e-01
3.366175681333352099e-01 4.045305299476815719e-01
3.376581170300005930e-01 5.415146018512047021e-01
3.386986659266659760e-01 7.563436198968993551e-01
3.397392148233313591e-01 6.959590915408142564e-01
3.407797637199967422e-01 2.950881324229470692e-01
3.418203126166621253e-01 2.679594782472776160e-01
3.428608615133275084e-01 6.040815977030327133e-01
3.439014104099928915e-01 5.298485379324517908e-01
3.449419593066582745e-01 4.527213697923713198e-01
3.459825082033236576e-01 4.356728342501448026e-01
3.470230570999890407e-01 5.484042286867563121e-01
3.480636059966544238e-01 3.361891221123727291e-01
3.491041548933198069e-01 4.910418736213166824e-01
3.501447037899851900e-01 5.442992009735796444e-01
3.511852526866505730e-01 7.563078440783819190e-01
3.522258015833159561e-01 8.169093423717015412e-01
3.532663504799813392e-01 7.674030930544795126e-01
3.543068993766467223e-01 6.447470794927809834e-01
3.553474482733121054e-01 5.741668872522929234e-01
3.563879971699774885e-01 4.334126870933801001e-01
3.574285460666428715e-01 3.326598399954718843e-01
3.584690949633082546e-01 4.162366187582016153e-01
3.595096438599736377e-01 5.547931492424531541e-01
3.605501927566390208e-01 5.142918256334603200e-01
3.615907416533044039e-01 4.889723630308395741e-01
3.626312905499697870e-01 5.647650688047782808e-01
3.636718394466351700e-01 8.362977053129192484e-01
3.647123883433005531e-01 1.140807547813547984e+00
3.657529372399659362e-01 1.005770602280719572e+00
3.667934861366313193e-01 1.016598564987138076e+00
3.678340350332967024e-01 1.011315813810849562e+00
3.688745839299620854e-01 7.829733810674923689e-01
3.699151328266274685e-01 5.502189073416516862e-01
3.709556817232928516e-01 3.888434707419392566e-01
3.719962306199582347e-01 5.542099352669715984e-01
3.730367795166236178e-01 8.218208317268924645e-01
3.740773284132890009e-01 6.882953588598574868e-01
3.751178773099543839e-01 7.003139458448259802e-01
3.761584262066197670e-01 7.456011685167140968e-01
3.771989751032851501e-01 5.257697719290739258e-01
3.782395239999505332e-01 4.264103828816203645e-01
3.792800728966159163e-01 5.608520921040991425e-01
3.803206217932812994e-01 7.488221867560795886e-01
3.813611706899466824e-01 8.459166855985067457e-01
3.824017195866120655e-01 7.906376964991785883e-01
3.834422684832774486e-01 5.812568912275537514e-01
3.844828173799428317e-01 3.550659320979931977e-01
3.855233662766082148e-01 2.882068847307408532e-01
3.865639151732735979e-01 2.040145538624074106e-01
3.876044640699389809e-01 4.684132939107037430e-01
3.886450129666043640e-01 5.278474836271840331e-01
3.896855618632697471e-01 4.761212422157221624e-01
3.907261107599351302e-01 3.567622241714083486e-01
3.917666596566005133e-01 5.734599515629881239e-01
3.928072085532658964e-01 7.270712513184349746e-01
3.938477574499312794e-01 4.632281496042658375e-01
3.948883063465966625e-01 3.018657907975210719e-01
3.959288552432620456e-01 4.098733620864507543e-01
3.969694041399274287e-01 3.650594404957736572e-01
3.980099530365928118e-01 9.594510960871005523e-02
3.990505019332581949e-01 1.574695046048546487e-01
4.000910508299235779e-01 2.314959391457023230e-01
4.011315997265889610e-01 2.605125508242878141e-01
4.021721486232543441e-01 6.599929560151807095e-02
4.032126975199197272e-01 2.263521443072455952e-01
4.042532464165851103e-01 3.007786869474493585e-01
4.052937953132504934e-01 1.676827148032167258e-01
4.063343442099158764e-01 7.467118070896106019e-02
4.073748931065812595e-01 1.599397984391224270e-01
4.084154420032466426e-01 2.092138791426094713e-01
4.094559908999120257e-01 2.043278313430434423e-01
4.104965397965774088e-01 1.819436934156897223e-01
4.115370886932427918e-01 1.751081570269796828e-01
4.125776375899081749e-01 3.318151647068745547e-01
4.136181864865735580e-01 3.155618269923472496e-01
4.146587353832389411e-01 2.406647355703199764e-01
4.156992842799043242e-01 1.784497769160822145e-01
4.167398331765697073e-01 2.379397411282901942e-01
4.177803820732350903e-01 1.560896112982845807e-01
4.188209309699004734e-01 3.784335239703580100e-01
4.198614798665658565e-01 3.587468310938355387e-01
4.209020287632312396e-01 3.804771124275951877e-01
4.219425776598966227e-01 4.074369833865780777e-01
4.229831265565620058e-01 3.739525595297230609e-01
4.240236754532273888e-01 3.299869338329557422e-01
4.250642243498927719e-01 3.027030976309745824e-01
4.261047732465581550e-01 4.360727221713460722e-01
4.271453221432235381e-01 1.805297843058326634e-01
4.281858710398889212e-01 2.546162823982349721e-01
4.292264199365543043e-01 3.160293264263529522e-01
4.302669688332196873e-01 2.444930965614418028e-01
4.313075177298850704e-01 1.583292994579146296e-01
4.323480666265504535e-01 2.582849099841801888e-01
4.333886155232158366e-01 4.804625387348764320e-01
4.344291644198812197e-01 4.517033623741646409e-01
