# q (1/Angstrom), Intensity (arb)
2.029070354705860696e-02 1.522086604428191549e+03
2.133125244372399004e-02 1.514614553907734717e+03
2.237180134038937659e-02 1.513835153171113916e+03
2.341235023705475968e-02 1.503305832705157627e+03
2.445289913372014276e-02 1.492456886593538684e+03
2.549344803038552584e-02 1.477510432048607754e+03
2.653399692705091240e-02 1.457658057941574043e+03
2.757454582371629548e-02 1.443065160476686060e+03
2.861509472038167856e-02 1.421038943176348539e+03
2.965564361704706164e-02 1.404426516718055154e+03
3.069619251371244473e-02 1.390916863511647080e+03
3.173674141037782781e-02 1.371328201173468415e+03
3.277729030704321089e-02 1.345598015290248668e+03
3.381783920370859398e-02 1.323200833299371197e+03
3.485838810037397706e-02 1.304207717876334982e+03
3.589893699703936014e-02 1.283195226213146952e+03
3.693948589370474322e-02 1.257126519676621456e+03
3.798003479037012631e-02 1.236594730607804422e+03
3.902058368703550939e-02 1.213889793302210137e+03
4.006113258370089247e-02 1.187260171749231631e+03
4.110168148036627556e-02 1.162066017238986433e+03
4.214223037703165864e-02 1.141726183298110982e+03
4.318277927369704866e-02 1.117741450061108480e+03
4.422332817036243174e-02 1.091942166169509392e+03
4.526387706702781483e-02 1.067836217033047205e+03
4.630442596369319791e-02 1.039855198418509190e+03
4.734497486035858099e-02 1.015944660195879123e+03
4.838552375702396408e-02 9.916883259036064828e+02
4.942607265368934716e-02 9.652710796997805573e+02
5.046662155035473024e-02 9.433859374558655873e+02
5.150717044702011332e-02 9.185581070934774743e+02
5.254771934368549641e-02 8.936072769684411696e+02
5.358826824035087949e-02 8.707382323325932703e+02
5.462881713701626257e-02 8.443956775255417142e+02
5.566936603368164566e-02 8.193379398422639497e+02
5.670991493034702874e-02 7.951599527615716170e+02
5.775046382701241182e-02 7.697533773964287320e+02
5.879101272367779490e-02 7.452365930864970096e+02
5.983156162034317799e-02 7.206864534380903251e+02
6.087211051700856107e-02 6.958099121995763880e+02
6.191265941367394415e-02 6.718364062747147045e+02
6.295320831033933417e-02 6.483527149364537081e+02
6.399375720700471726e-02 6.265840890938917482e+02
6.503430610367010034e-02 6.069201332977422680e+02
6.607485500033548342e-02 5.825758469224326745e+02
6.711540389700086651e-02 5.603004641977943265e+02
6.815595279366624959e-02 5.391099889349600289e+02
6.919650169033163267e-02 5.180293891501152075e+02
7.023705058699701576e-02 4.973745055643590263e+02
7.127759948366239884e-02 4.769841442284501341e+02
7.231814838032778192e-02 4.554846852783039708e+02
7.335869727699316500e-02 4.348756608557034724e+02
7.439924617365854809e-02 4.175629742782275002e+02
7.543979507032393117e-02 3.979446458906480757e+02
7.648034396698931425e-02 3.789776812727810693e+02
7.752089286365469734e-02 3.623407888642159946e+02
7.856144176032008042e-02 3.444599133948469216e+02
7.960199065698546350e-02 3.288502472774549119e+02
8.064253955365084658e-02 3.143761813435839372e+02
8.168308845031622967e-02 2.982941119886241950e+02
8.272363734698161275e-02 2.806421612122919100e+02
8.376418624364699583e-02 2.643882620745390568e+02
8.480473514031239279e-02 2.487978752639041318e+02
8.584528403697777588e-02 2.354712475279168018e+02
8.688583293364315896e-02 2.215415970869200351e+02
8.792638183030854204e-02 2.082610038907647834e+02
8.896693072697392513e-02 1.948810461256160522e+02
9.000747962363930821e-02 1.836408780933119260e+02
9.104802852030469129e-02 1.720197062153764307e+02
9.208857741697007437e-02 1.616187237036432407e+02
9.312912631363545746e-02 1.517531327648664785e+02
9.416967521030084054e-02 1.409724953213173535e+02
9.521022410696622362e-02 1.312530778245267129e+02
9.625077300363160671e-02 1.227209803154940460e+02
9.729132190029698979e-02 1.128411259571041398e+02
9.833187079696237287e-02 1.041700732773368259e+02
9.937241969362775595e-02 9.588004535653797689e+01
1.004129685902931390e-01 8.815737517302855508e+01
1.014535174869585221e-01 8.104545094279379214e+01
1.024940663836239052e-01 7.393675392186104034e+01
1.035346152802892883e-01 6.739246743611687407e+01
1.045751641769546714e-01 6.163339743639761537e+01
1.056157130736200545e-01 5.627246892238027698e+01
1.066562619702854375e-01 5.057102181099637050e+01
1.076968108669508206e-01 4.571778612686168231e+01
1.087373597636162037e-01 4.112563480153865925e+01
1.097779086602815868e-01 3.658448392456355691e+01
1.108184575569469699e-01 3.284825487256780718e+01
1.118590064536123529e-01 2.912258239082859035e+01
1.128995553502777360e-01 2.565255224391532352e+01
1.139401042469431191e-01 2.251708663536074795e+01
1.149806531436085022e-01 1.977469794571857875e+01
1.160212020402738853e-01 1.742358812209096897e+01
1.170617509369392684e-01 1.455084433297503921e+01
1.181022998336046514e-01 1.249420442455721769e+01
1.191428487302700345e-01 1.088464581821027366e+01
1.201833976269354176e-01 9.069552304858831349e+00
1.212239465236008007e-01 7.505966558490214879e+00
1.222644954202661838e-01 6.362212153204154674e+00
1.233050443169315669e-01 5.301608508491277405e+00
1.243455932135969499e-01 4.172437339276186208e+00
1.253861421102623330e-01 3.115547718994861270e+00
1.264266910069277161e-01 2.966957978501774562e+00
1.274672399035930992e-01 2.339066256793749687e+00
1.285077888002584823e-01 1.929421237432066505e+00
1.295483376969238654e-01 1.616546057940624337e+00
1.305888865935892484e-01 1.583154380689556717e+00
1.316294354902546315e-01 1.421954290334952020e+00
1.326699843869200146e-01 1.366509311771196167e+00
1.337105332835853977e-01 1.676127168675890289e+00
1.347510821802507808e-01 1.142428958828631380e+00
1.357916310769161639e-01 1.681336842457362479e+00
1.368321799735815469e-01 1.716850132502642623e+00
1.378727288702469300e-01 2.410814393010127787e+00
1.389132777669123131e-01 2.824579153594228842e+00
1.399538266635776962e-01 3.428971732884832591e+00
1.409943755602430793e-01 3.572949385597780747e+00
1.420349244569084624e-01 3.790542798315875928e+00
1.430754733535738454e-01 4.467346923431811945e+00
1.441160222502392285e-01 4.636204132676226664e+00
1.451565711469046116e-01 5.341437558848056710e+00
1.461971200435699947e-01 6.156049818793505324e+00
1.472376689402353778e-01 6.365790393162626515e+00
1.482782178369007609e-01 6.634469810893492081e+00
1.493187667335661439e-01 7.498323131129012609e+00
1.503593156302315270e-01 8.172411325314364205e+00
1.513998645268969101e-01 8.719047664614620885e+00
1.524404134235622932e-01 9.169322066164404816e+00
1.534809623202276763e-01 9.396700676443032307e+00
1.545215112168930593e-01 1.014791375792493966e+01
1.555620601135584424e-01 1.060547395986719010e+01
1.566026090102238255e-01 1.074810695694572615e+01
1.576431579068892086e-01 1.076481163128807594e+01
1.586837068035545917e-01 1.115245903197774879e+01
1.597242557002199748e-01 1.137171603316322432e+01
1.607648045968853578e-01 1.094743615022220951e+01
1.618053534935507409e-01 1.151309408689596125e+01
1.628459023902161240e-01 1.213208291469979727e+01
1.638864512868815071e-01 1.220487048921452455e+01
1.649270001835468902e-01 1.237529910624677498e+01
1.659675490802122733e-01 1.210952368054616102e+01
1.670080979768776563e-01 1.231709118352128485e+01
1.680486468735430672e-01 1.273504890863078387e+01
1.690891957702084503e-01 1.226659260914312100e+01
1.701297446668738333e-01 1.231450792731795474e+01
1.711702935635392164e-01 1.272075206953439519e+01
1.722108424602045995e-01 1.256097146017462407e+01
1.732513913568699826e-01 1.185104788683515409e+01
1.742919402535353657e-01 1.153635412583078690e+01
1.753324891502007488e-01 1.132079206132760163e+01
1.763730380468661318e-01 1.148089511135625784e+01
1.774135869435315149e-01 1.097811076012021303e+01
1.784541358401968980e-01 1.083714422409699196e+01
1.794946847368622811e-01 1.129519246783234010e+01
1.805352336335276642e-01 1.066110503529504427e+01
1.815757825301930473e-01 9.946168519751875436e+00
1.826163314268584303e-01 9.618839736834765120e+00
1.836568803235238134e-01 9.528031153958952615e+00
1.846974292201891965e-01 9.286265556210786087e+00
1.857379781168545796e-01 8.947377767344743660e+00
1.867785270135199627e-01 8.613199562728027558e+00
1.878190759101853458e-01 8.056603362436405291e+00
1.888596248068507288e-01 7.863587513858977474e+00
1.899001737035161119e-01 7.755171770265192777e+00
1.909407226001814950e-01 7.068589206683618897e+00
1.919812714968468781e-01 6.802876167969422738e+00
1.930218203935122612e-01 6.297960751960271608e+00
1.940623692901776443e-01 6.087473858998095011e+00
1.951029181868430273e-01 5.946283178249213819e+00
1.961434670835084104e-01 5.772549458906141240e+00
1.971840159801737935e-01 5.232640466195039863e+00
1.982245648768391766e-01 4.392064388758139870e+00
1.992651137735045597e-01 4.183688413653499083e+00
2.003056626701699428e-01 3.821125653047207749e+00
2.013462115668353813e-01 3.263267580066425921e+00
2.023867604635007644e-01 3.439080336181604025e+00
2.034273093601661475e-01 3.454257519581204861e+00
2.044678582568315306e-01 3.189024245639558330e+00
2.055084071534969137e-01 2.955031785605065409e+00
2.065489560501622968e-01 2.748832811330611747e+00
2.075895049468276798e-01 2.580428533972895622e+00
2.086300538434930629e-01 2.300374336687401211e+00
2.096706027401584460e-01 1.785554686459835949e+00
2.107111516368238291e-01 1.749124280525425235e+00
2.117517005334892122e-01 1.876496643640464868e+00
2.127922494301545953e-01 1.716544211472331938e+00
2.138327983268199783e-01 1.311243925016576384e+00
2.148733472234853614e-01 1.122792370917689908e+00
2.159138961201507445e-01 8.651214812148069200e-01
2.169544450168161276e-01 3.906461814900374918e-01
2.179949939134815107e-01 5.511768738366811249e-01
2.190355428101468938e-01 7.842153141635073155e-01
2.200760917068122768e-01 6.027810811088443188e-01
2.211166406034776599e-01 4.774432168048790004e-01
2.221571895001430430e-01 3.752392283957277641e-01
2.231977383968084261e-01 2.646629608911403864e-01
2.242382872934738092e-01 1.184449483773164502e-04
2.252788361901391923e-01 2.742209194836711106e-01
2.263193850868045753e-01 4.030267564477725273e-01
2.273599339834699584e-01 5.226830733812413143e-01
2.284004828801353415e-01 4.299860177002017281e-01
2.294410317768007246e-01 4.144385301215223194e-01
2.304815806734661077e-01 2.446266527396048218e-01
2.315221295701314908e-01 1.268075406108373215e-01
2.325626784667968738e-01 3.086397591245777505e-01
2.336032273634622569e-01 4.458492259152926351e-01
2.346437762601276400e-01 1.961317893935223822e-01
2.356843251567930231e-01 2.973893711703432530e-01
2.367248740534584062e-01 5.586380232923175981e-01
2.377654229501237892e-01 8.603937582606704382e-01
2.388059718467891723e-01 7.675276606377963162e-01
2.398465207434545554e-01 5.901480169820487731e-01
2.408870696401199385e-01 6.500075692287694551e-01
2.419276185367853216e-01 6.800760858077516957e-01
2.429681674334507047e-01 4.906775428611780399e-01
2.440087163301160877e-01 7.269025990069479803e-01
2.450492652267814708e-01 1.096353336414157553e+00
2.460898141234468539e-01 1.267676018639452451e+00
2.471303630201122370e-01 1.351686726622293833e+00
2.481709119167776201e-01 1.306212064934861417e+00
2.492114608134430032e-01 1.557289150925797117e+00
2.502520097101083585e-01 1.763752568570463808e+00
2.512925586067737416e-01 1.828261745917572512e+00
2.523331075034391247e-01 1.343727512413767755e+00
2.533736564001045077e-01 1.385293549316589434e+00
2.544142052967698908e-01 1.499045145275200497e+00
2.554547541934352739e-01 1.352487128721119092e+00
2.564953030901006570e-01 1.674050222008613531e+00
2.575358519867660401e-01 1.909907886323576776e+00
2.585764008834314231e-01 1.774681209249120428e+00
2.596169497800968062e-01 1.694311358842089277e+00
2.606574986767621893e-01 1.698677218735817007e+00
2.616980475734275724e-01 1.950861076170898656e+00
2.627385964700929555e-01 1.747743447085138513e+00
2.637791453667583386e-01 1.808687134941401098e+00
2.648196942634237216e-01 1.813847159656493346e+00
2.658602431600891047e-01 1.979397550201873912e+00
2.669007920567544878e-01 2.025997027628122282e+00
2.679413409534198709e-01 2.100901571612183716e+00
2.689818898500852540e-01 2.032628492652413854e+00
2.700224387467506371e-01 1.804375328896519193e+00
2.710629876434160201e-01 1.902542347829733416e+00
2.721035365400814032e-01 2.023316734362875735e+00
2.731440854367467863e-01 2.017788649628347031e+00
2.741846343334121694e-01 1.720597935135728562e+00
2.752251832300775525e-01 1.569860228821809756e+00
2.762657321267429356e-01 1.740054254072987305e+00
2.773062810234083186e-01 1.760840663163225628e+00
2.783468299200737017e-01 1.759328338680649750e+00
2.793873788167390848e-01 1.697710218851820940e+00
2.804279277134044679e-01 1.548174831991651956e+00
2.814684766100698510e-01 1.367709187104573232e+00
2.825090255067352341e-01 1.458059732104004524e+00
2.835495744034006171e-01 1.278480732497683903e+00
2.845901233000660002e-01 9.032855946511659795e-01
2.856306721967313833e-01 1.227089853159586852e+00
2.866712210933967664e-01 1.255369949637358928e+00
2.877117699900621495e-01 1.337049664371569691e+00
2.887523188867275326e-01 1.174861206661923063e+00
2.897928677833929156e-01 1.129174811875966356e+00
2.908334166800582987e-01 8.125922495565696124e-01
2.918739655767236818e-01 9.304972281697807546e-01
2.929145144733890649e-01 1.078199348730766616e+00
2.939550633700544480e-01 1.142057958591315980e+00
2.949956122667198311e-01 1.003202956312271965e+00
2.960361611633852141e-01 1.098152192949733319e+00
2.970767100600505972e-01 1.110598596822338635e+00
2.981172589567159803e-01 6.668064339179480271e-01
2.991578078533813634e-01 3.904815072025336065e-01
3.001983567500468020e-01 6.291813810635638049e-01
3.012389056467121851e-01 5.397706511952158337e-01
3.022794545433775681e-01 5.286305042726020531e-01
3.033200034400429512e-01 7.190965141296210561e-01
3.043605523367083343e-01 5.989247574355651693e-01
3.054011012333737174e-01 5.141808504030649374e-01
3.064416501300391005e-01 1.954471082545516936e-01
3.074821990267044836e-01 2.232626045273100601e-01
3.085227479233698666e-01 4.580946150297116048e-01
3.095632968200352497e-01 5.586051583101081519e-01
3.106038457167006328e-01 4.404690340734198628e-01
3.116443946133660159e-01 4.985157949679646094e-01
3.126849435100313990e-01 6.163652820347991224e-01
3.137254924066967821e-01 2.830724089452161252e-01
3.147660413033621651e-01 2.711432845108348033e-01
3.158065902000275482e-01 5.296663667118046703e-01
3.168471390966929313e-01 2.899849195548149794e-01
3.178876879933583144e-01 2.151591946969340086e-01
3.189282368900236975e-01 3.708484499260755740e-01
3.199687857866890806e-01 2.390411981511881834e-01
3.210093346833544636e-01 3.390703367618499442e-01
3.220498835800198467e-01 7.730710445672883679e-02
3.230904324766852298e-01 9.208707208048139137e-02
3.241309813733506129e-01 2.435493257227960839e-01
3.251715302700159960e-01 4.505479665262015487e-01
3.262120791666813790e-01 4.683556424152826025e-01
3.272526280633467621e-01 2.710996702152534965e-01
3.282931769600121452e-01 3.314788326078677017e-01
3.293337258566775283e-01 4.855966182244806362e-01
3.303742747533429114e-01 5.230865343037969240e-01
3.314148236500082945e-01 4.801677070635967937e-01
3.324553725466736775e-01 2.104266055872301422e-01
3.334959214433390606e-01 2.756444731884073462e-01
3.345364703400044437e-01 3.087808142191583727e-01
3.355770192366698268e-01 3.701658541576549055e-01
3.366175681333352099e-01 5.406695096232958520e-01
3.376581170300005930e-01 4.039055832596751827e-01
3.386986659266659760e-01 2.403699605273850182e-01
3.397392148233313591e-01 3.596810750024168613e-01
3.407797637199967422e-01 3.992232973336342639e-01
3.418203126166621253e-01 4.906023741669471860e-01
3.428608615133275084e-01 4.460241134429381304e-01
3.439014104099928915e-01 4.064004160862850767e-01
3.449419593066582745e-01 3.870829378111046992e-01
3.459825082033236576e-01 6.186789290413763354e-01
3.470230570999890407e-01 5.829044074315277157e-01
3.480636059966544238e-01 6.292663158270812573e-01
3.491041548933198069e-01 6.993737315367951624e-01
3.501447037899851900e-01 6.336469932614825495e-01
3.511852526866505730e-01 6.063087735229082398e-01
3.522258015833159561e-01 6.204774297598021349e-01
3.532663504799813392e-01 4.943783952396998416e-01
3.543068993766467223e-01 4.747489795662396261e-01
3.553474482733121054e-01 2.724939691179386614e-01
3.563879971699774885e-01 3.046134359079601950e-01
3.574285460666428715e-01 5.091066364463010530e-01
3.584690949633082546e-01 8.014433036942314459e-01
3.595096438599736377e-01 8.224513069686985034e-01
3.605501927566390208e-01 6.582141916386810010e-01
3.615907416533044039e-01 6.793840784919176201e-01
3.626312905499697870e-01 6.824821768589757198e-01
3.636718394466351700e-01 5.662337445127860747e-01
3.647123883433005531e-01 7.579079826971231171e-01
3.657529372399659362e-01 7.528445674010306732e-01
3.667934861366313193e-01 7.243614310526211852e-01
3.678340350332967024e-01 5.500988796623467181e-01
3.688745839299620854e-01 5.527012162139470774e-01
3.699151328266274685e-01 5.694588939452280840e-01
3.709556817232928516e-01 3.945456214336466871e-01
3.719962306199582347e-01 6.385681205336517507e-01
3.730367795166236178e-01 5.974355938500650609e-01
3.740773284132890009e-01 2.208895043358971577e-01
3.751178773099543839e-01 4.864982837596265597e-01
3.761584262066197670e-01 6.839927175393718528e-01
3.771989751032851501e-01 7.305457114033053756e-01
3.782395239999505332e-01 5.289028737060377239e-01
3.792800728966159163e-01 5.144002799858178321e-01
3.803206217932812994e-01 5.547115897656524908e-01
3.813611706899466824e-01 4.590512814393790109e-01
3.824017195866120655e-01 5.465000119675806900e-01
3.834422684832774486e-01 5.065035000279785038e-01
3.844828173799428317e-01 3.538632714485068220e-01
3.855233662766082148e-01 3.806307062168023947e-01
3.865639151732735979e-01 3.838771213436693586e-01
3.876044640699389809e-01 2.412989297662484489e-01
3.886450129666043640e-01 2.253230377289554553e-01
3.896855618632697471e-01 5.216848393988193777e-01
3.907261107599351302e-01 6.572559433272111562e-01
3.917666596566005133e-01 4.393626512061956646e-01
3.928072085532658964e-01 4.027581269317472845e-01
3.938477574499312794e-01 5.583551379633320266e-01
3.948883063465966625e-01 5.864030940463429431e-01
3.959288552432620456e-01 5.718598594074251196e-01
3.969694041399274287e-01 5.826706214223875691e-01
3.980099530365928118e-01 4.576486951646359103e-01
3.990505019332581949e-01 3.240719084299890085e-01
4.000910508299235779e-01 2.945178363012530554e-01
4.011315997265889610e-01 3.027843797014639904e-01
4.021721486232543441e-01 3.755596356110970646e-01
4.032126975199197272e-01 2.575891948936686049e-01
4.042532464165851103e-01 1.457657335137376720e-01
4.052937953132504934e-01 1.679747152148962641e-01
4.063343442099158764e-01 5.662647818556720836e-02
4.073748931065812595e-01 0.000000000000000000e+00
4.084154420032466426e-01 2.040298307012591295e-01
4.094559908999120257e-01 2.795547001720741775e-01
4.104965397965774088e-01 2.066786426430837764e-01
4.115370886932427918e-01 1.897180877375106434e-01
4.125776375899081749e-01 2.646029263239206841e-01
4.136181864865735580e-01 2.254713617665942138e-01
4.146587353832389411e-01 3.470781322074927289e-01
4.156992842799043242e-01 2.675247873983543911e-01
4.167398331765697073e-01 3.813286141448664068e-01
4.177803820732350903e-01 2.322592598425075039e-01
4.188209309699004734e-01 2.122022255742272989e-01
4.198614798665658565e-01 2.419036183735983059e-01
4.209020287632312396e-01 2.792693099309140337e-01
4.219425776598966227e-01 2.144248419679009032e-01
4.229831265565620058e-01 1.762944437440054912e-01
4.240236754532273888e-01 6.277529241524604231e-02
4.250642243498927719e-01 1.401172514134181313e-01
4.261047732465581550e-01 1.356051573822050216e-01
4.271453221432235381e-01 1.597060932596647831e-01
4.281858710398889212e-01 2.917548061335217824e-01
4.292264199365543043e-01 2.181181932016897917e-01
4.302669688332196873e-01 1.544429468492971580e-01
4.313075177298850704e-01 1.725249189460491550e-01
4.323480666265504535e-01 2.689705869667307070e-01
4.333886155232158366e-01 3.089056208083711397e-01
4.344291644198812197e-01 4.248718478615067795e-01
