# q (1/Angstrom), Intensity (arb)
2.029070354705860696e-02 1.526317212323938293e+03
2.133125244372399004e-02 1.518089040139359895e+03
2.237180134038937659e-02 1.506256139089299950e+03
2.341235023705475968e-02 1.492553759690418474e+03
2.445289913372014276e-02 1.481242371109024361e+03
2.549344803038552584e-02 1.468360479897181222e+03
2.653399692705091240e-02 1.453192507567824805e+03
2.757454582371629548e-02 1.441941214312297006e+03
2.861509472038167856e-02 1.419540730788081873e+03
2.965564361704706164e-02 1.400888749881663216e+03
3.069619251371244473e-02 1.385210170237675811e+03
3.173674141037782781e-02 1.364000996055475298e+03
3.277729030704321089e-02 1.342214368181357486e+03
3.381783920370859398e-02 1.322012446690491061e+03
3.485838810037397706e-02 1.299398873430659023e+03
3.589893699703936014e-02 1.276002061203522771e+03
3.693948589370474322e-02 1.251134297314977630e+03
3.798003479037012631e-02 1.233568959336002536e+03
3.902058368703550939e-02 1.213061498633754809e+03
4.006113258370089247e-02 1.185074457316702592e+03
4.110168148036627556e-02 1.167380518988318954e+03
4.214223037703165864e-02 1.143810423990975551e+03
4.318277927369704866e-02 1.116617773697382290e+03
4.422332817036243174e-02 1.091792567914025085e+03
4.526387706702781483e-02 1.067124602103528559e+03
4.630442596369319791e-02 1.038758799892946854e+03
4.734497486035858099e-02 1.015213399175129894e+03
4.838552375702396408e-02 9.894526853142839400e+02
4.942607265368934716e-02 9.645513303833987493e+02
5.046662155035473024e-02 9.399624748685772602e+02
5.150717044702011332e-02 9.177816303921185863e+02
5.254771934368549641e-02 8.908644094246957366e+02
5.358826824035087949e-02 8.658532512527044673e+02
5.462881713701626257e-02 8.422085232673649671e+02
5.566936603368164566e-02 8.140225946058343425e+02
5.670991493034702874e-02 7.898521565809654703e+02
5.775046382701241182e-02 7.665989937322705146e+02
5.879101272367779490e-02 7.437068158779120495e+02
5.983156162034317799e-02 7.206633734875185837e+02
6.087211051700856107e-02 6.966814598383936072e+02
6.191265941367394415e-02 6.730375304237888940e+02
6.295320831033933417e-02 6.475062728671844070e+02
6.399375720700471726e-02 6.228182679209894559e+02
6.503430610367010034e-02 6.009506161881981825e+02
6.607485500033548342e-02 5.781972516238676008e+02
6.711540389700086651e-02 5.579500590792036974e+02
6.815595279366624959e-02 5.372945397576614823e+02
6.919650169033163267e-02 5.172594022488489145e+02
7.023705058699701576e-02 4.956936106046267128e+02
7.127759948366239884e-02 4.746690865618040789e+02
7.231814838032778192e-02 4.533640715454163228e+02
7.335869727699316500e-02 4.334403933173170458e+02
7.439924617365854809e-02 4.161454263074771802e+02
7.543979507032393117e-02 3.965554913609125833e+02
7.648034396698931425e-02 3.790068172254077012e+02
7.752089286365469734e-02 3.608425027501242539e+02
7.856144176032008042e-02 3.443808187252753328e+02
7.960199065698546350e-02 3.277594142481370909e+02
8.064253955365084658e-02 3.092547561371875418e+02
8.168308845031622967e-02 2.932310658632117679e+02
8.272363734698161275e-02 2.759218513543005429e+02
8.376418624364699583e-02 2.614759681992861147e+02
8.480473514031239279e-02 2.497931201194006405e+02
8.584528403697777588e-02 2.355093075728208873e+02
8.688583293364315896e-02 2.213404912328070964e+02
8.792638183030854204e-02 2.084206233112809059e+02
8.896693072697392513e-02 1.961195173057340355e+02
9.000747962363930821e-02 1.845686957915408186e+02
9.104802852030469129e-02 1.725707705086308579e+02
9.208857741697007437e-02 1.608253008339031283e+02
9.312912631363545746e-02 1.498994347241188621e+02
9.416967521030084054e-02 1.394732630480696685e+02
9.521022410696622362e-02 1.298318874847622624e+02
9.625077300363160671e-02 1.210257482309509953e+02
9.729132190029698979e-02 1.127224638756259765e+02
9.833187079696237287e-02 1.040478316830075300e+02
9.937241969362775595e-02 9.594138376186714368e+01
1.004129685902931390e-01 8.813370445250016871e+01
1.014535174869585221e-01 8.073105839737229417e+01
1.024940663836239052e-01 7.369520910460181540e+01
1.035346152802892883e-01 6.723093638191834032e+01
1.045751641769546714e-01 6.178538312791849307e+01
1.056157130736200545e-01 5.648244478239741539e+01
1.066562619702854375e-01 5.104288314835157792e+01
1.076968108669508206e-01 4.609352010074797334e+01
1.087373597636162037e-01 4.148603787189382075e+01
1.097779086602815868e-01 3.733499585540517529e+01
1.108184575569469699e-01 3.347227688701273252e+01
1.118590064536123529e-01 2.992310499414291058e+01
1.128995553502777360e-01 2.549744148995418414e+01
1.139401042469431191e-01 2.241263575817725240e+01
1.149806531436085022e-01 1.955202637416741140e+01
1.160212020402738853e-01 1.698085129952841754e+01
1.170617509369392684e-01 1.535087886706929794e+01
1.181022998336046514e-01 1.288050337250119526e+01
1.191428487302700345e-01 1.053457203322391678e+01
1.201833976269354176e-01 8.419642117638517220e+00
1.212239465236008007e-01 7.485796655414510781e+00
1.222644954202661838e-01 6.734643997632858259e+00
1.233050443169315669e-01 5.087835281712578706e+00
1.243455932135969499e-01 4.181877393788894892e+00
1.253861421102623330e-01 3.262778256123283427e+00
1.264266910069277161e-01 2.585712126642846442e+00
1.274672399035930992e-01 2.246588383350015761e+00
1.285077888002584823e-01 2.106713470460434223e+00
1.295483376969238654e-01 1.385102511883609111e+00
1.305888865935892484e-01 1.223444106462657999e+00
1.316294354902546315e-01 1.274120539628476934e+00
1.326699843869200146e-01 1.440714044629650914e+00
1.337105332835853977e-01 1.424157841733624252e+00
1.347510821802507808e-01 1.455296345396867252e+00
1.357916310769161639e-01 1.541969623929922761e+00
1.368321799735815469e-01 2.055317476769630503e+00
1.378727288702469300e-01 2.549825861803924454e+00
1.389132777669123131e-01 2.641484976445099164e+00
1.399538266635776962e-01 2.460817058382936295e+00
1.409943755602430793e-01 3.417547958260890084e+00
1.420349244569084624e-01 3.606045132035106349e+00
1.430754733535738454e-01 3.985537873178316204e+00
1.441160222502392285e-01 4.931447747843371587e+00
1.451565711469046116e-01 5.711537683429668277e+00
1.461971200435699947e-01 6.294607612314003120e+00
1.472376689402353778e-01 6.911627800627648810e+00
1.482782178369007609e-01 6.957676840542902141e+00
1.493187667335661439e-01 7.401309026729720131e+00
1.503593156302315270e-01 7.957430488723282735e+00
1.513998645268969101e-01 8.263755600494036457e+00
1.524404134235622932e-01 8.645371441050095029e+00
1.534809623202276763e-01 9.344514297302787043e+00
1.545215112168930593e-01 9.451588836460402376e+00
1.555620601135584424e-01 1.025716032336137573e+01
1.566026090102238255e-01 1.076128634539932705e+01
1.576431579068892086e-01 1.070544494026297144e+01
1.586837068035545917e-01 1.112141827509287140e+01
1.597242557002199748e-01 1.128355095260513963e+01
1.607648045968853578e-01 1.143125025292510344e+01
1.618053534935507409e-01 1.168322753230429356e+01
1.628459023902161240e-01 1.171228441702150036e+01
1.638864512868815071e-01 1.193940564464809029e+01
1.649270001835468902e-01 1.203779879882469572e+01
1.659675490802122733e-01 1.208991809569632636e+01
1.670080979768776563e-01 1.246465388902900173e+01
1.680486468735430672e-01 1.216183376308165265e+01
1.690891957702084503e-01 1.228131408809171887e+01
1.701297446668738333e-01 1.247814625458963533e+01
1.711702935635392164e-01 1.232622526997435486e+01
1.722108424602045995e-01 1.222189832479097404e+01
1.732513913568699826e-01 1.161533155017288976e+01
1.742919402535353657e-01 1.124552226769169039e+01
1.753324891502007488e-01 1.154196528950170375e+01
1.763730380468661318e-01 1.123643028288186230e+01
1.774135869435315149e-01 1.095736066662364294e+01
1.784541358401968980e-01 1.092872450684202335e+01
1.794946847368622811e-01 1.058326531076323818e+01
1.805352336335276642e-01 1.011783755281803465e+01
1.815757825301930473e-01 9.982499827623520616e+00
1.826163314268584303e-01 9.641200161569393856e+00
1.836568803235238134e-01 9.133131070872899215e+00
1.846974292201891965e-01 8.939045134946688620e+00
1.857379781168545796e-01 8.675197074604902525e+00
1.867785270135199627e-01 8.537084022206371969e+00
1.878190759101853458e-01 7.939405628331037690e+00
1.888596248068507288e-01 8.151731274363296365e+00
1.899001737035161119e-01 7.676997021721277292e+00
1.909407226001814950e-01 6.927438404328398747e+00
1.919812714968468781e-01 6.773265673925386920e+00
1.930218203935122612e-01 6.708393325575286781e+00
1.940623692901776443e-01 6.165649060550880023e+00
1.951029181868430273e-01 5.792124707820491381e+00
1.961434670835084104e-01 5.446482083096576332e+00
1.971840159801737935e-01 5.085476607729766840e+00
1.982245648768391766e-01 4.676799486690761398e+00
1.992651137735045597e-01 4.405034029762752823e+00
2.003056626701699428e-01 4.153068308791546315e+00
2.013462115668353813e-01 4.080932547623564943e+00
2.023867604635007644e-01 3.913361015738065163e+00
2.034273093601661475e-01 3.700627364680538989e+00
2.044678582568315306e-01 3.142776448681974699e+00
2.055084071534969137e-01 2.645385204617824115e+00
2.065489560501622968e-01 2.326146398513369462e+00
2.075895049468276798e-01 2.156910115188626520e+00
2.086300538434930629e-01 1.794456871046307356e+00
2.096706027401584460e-01 1.482636736478799122e+00
2.107111516368238291e-01 1.578945887354507249e+00
2.117517005334892122e-01 1.572217443384975155e+00
2.127922494301545953e-01 1.783003290435480892e+00
2.138327983268199783e-01 1.179813310905363011e+00
2.148733472234853614e-01 1.014526347112628457e+00
2.159138961201507445e-01 7.188063923190846083e-01
2.169544450168161276e-01 7.746767927971198731e-01
2.179949939134815107e-01 8.763498718480811078e-01
2.190355428101468938e-01 5.834521185322003589e-01
2.200760917068122768e-01 7.733641879236436978e-01
2.211166406034776599e-01 7.526600009294242000e-01
2.221571895001430430e-01 5.620846133207173523e-01
2.231977383968084261e-01 3.550834465239276483e-01
2.242382872934738092e-01 4.293206168890613128e-01
2.252788361901391923e-01 5.741602568530979056e-01
2.263193850868045753e-01 6.458812970079073068e-01
2.273599339834699584e-01 6.224187270616177159e-01
2.284004828801353415e-01 7.483209322380055539e-01
2.294410317768007246e-01 5.472038895434039318e-01
2.304815806734661077e-01 6.416576807554399409e-01
2.315221295701314908e-01 8.283787683766092869e-01
2.325626784667968738e-01 5.722070958899934112e-01
2.336032273634622569e-01 6.934976422557923570e-01
2.346437762601276400e-01 9.233414934236279237e-01
2.356843251567930231e-01 1.056975967175937114e+00
2.367248740534584062e-01 8.927610767234348543e-01
2.377654229501237892e-01 6.053546248675374386e-01
2.388059718467891723e-01 6.714665631993419481e-01
2.398465207434545554e-01 7.664524186925874005e-01
2.408870696401199385e-01 7.730349806905998378e-01
2.419276185367853216e-01 1.140517887352135773e+00
2.429681674334507047e-01 1.213631633786885544e+00
2.440087163301160877e-01 1.102006003175755922e+00
2.450492652267814708e-01 1.400084684559509185e+00
2.460898141234468539e-01 1.701756330702227871e+00
2.471303630201122370e-01 1.770756892079809575e+00
2.481709119167776201e-01 1.839051563978877368e+00
2.492114608134430032e-01 1.914668106817035920e+00
2.502520097101083585e-01 1.615879307348787819e+00
2.512925586067737416e-01 1.755617573870580372e+00
2.523331075034391247e-01 1.772125221718482635e+00
2.533736564001045077e-01 1.876861930667452327e+00
2.544142052967698908e-01 1.786372243535442550e+00
2.554547541934352739e-01 1.749304717629694750e+00
2.564953030901006570e-01 1.754570606339527217e+00
2.575358519867660401e-01 1.722404146909138234e+00
2.585764008834314231e-01 2.097574381912171049e+00
2.596169497800968062e-01 2.110354341615895635e+00
2.606574986767621893e-01 1.848582600115356911e+00
2.616980475734275724e-01 1.904364208701913697e+00
2.627385964700929555e-01 2.161167331178674544e+00
2.637791453667583386e-01 2.352299325551502562e+00
2.648196942634237216e-01 2.276566232424517722e+00
2.658602431600891047e-01 2.294382027189659112e+00
2.669007920567544878e-01 1.956546983400372142e+00
2.679413409534198709e-01 1.996026893432489402e+00
2.689818898500852540e-01 2.115138106395086481e+00
2.700224387467506371e-01 2.055241117132055706e+00
2.710629876434160201e-01 2.100811585233039125e+00
2.721035365400814032e-01 2.057022242891054731e+00
2.731440854367467863e-01 2.034694532877953321e+00
2.741846343334121694e-01 1.922974506126656991e+00
2.752251832300775525e-01 2.302930671232491733e+00
2.762657321267429356e-01 2.172600432121381431e+00
2.773062810234083186e-01 1.927924698482502919e+00
2.783468299200737017e-01 1.785077669078557250e+00
2.793873788167390848e-01 1.743661521299141981e+00
2.804279277134044679e-01 1.759292280023981192e+00
2.814684766100698510e-01 1.442992179699796651e+00
2.825090255067352341e-01 1.387229029375607325e+00
2.835495744034006171e-01 1.433099859986750602e+00
2.845901233000660002e-01 1.475988677528675908e+00
2.856306721967313833e-01 1.627015624540575800e+00
2.866712210933967664e-01 1.560628227096287901e+00
2.877117699900621495e-01 1.503777122478606287e+00
2.887523188867275326e-01 1.318255089201578301e+00
2.897928677833929156e-01 1.397499425465262846e+00
2.908334166800582987e-01 1.433917468209997992e+00
2.918739655767236818e-01 1.286095885680133222e+00
2.929145144733890649e-01 1.066319295158287161e+00
2.939550633700544480e-01 9.621297102727588424e-01
2.949956122667198311e-01 9.742682341567316939e-01
2.960361611633852141e-01 6.261075683253451984e-01
2.970767100600505972e-01 7.086848476783771389e-01
2.981172589567159803e-01 8.057317593316923876e-01
2.991578078533813634e-01 8.485939465553755667e-01
3.001983567500468020e-01 7.728849557121790781e-01
3.012389056467121851e-01 6.997516067937752382e-01
3.022794545433775681e-01 7.309338893926025094e-01
3.033200034400429512e-01 6.362733273854210836e-01
3.043605523367083343e-01 4.254951835202405164e-01
3.054011012333737174e-01 6.568056142210743076e-01
3.064416501300391005e-01 6.015586988525569723e-01
3.074821990267044836e-01 5.853234329706111794e-01
3.085227479233698666e-01 7.177413629286917285e-01
3.095632968200352497e-01 7.040192063918944143e-01
3.106038457167006328e-01 5.464311164819299904e-01
3.116443946133660159e-01 6.007572894331048019e-01
3.126849435100313990e-01 5.999077211582353186e-01
3.137254924066967821e-01 6.448207707636868236e-01
3.147660413033621651e-01 3.295369736071229738e-01
3.158065902000275482e-01 2.705104348153071214e-01
3.168471390966929313e-01 2.794608872429726887e-01
3.178876879933583144e-01 2.618092282866584242e-01
3.189282368900236975e-01 4.570095202597244111e-01
3.199687857866890806e-01 5.826410303776761168e-01
3.210093346833544636e-01 6.559370231890504499e-01
3.220498835800198467e-01 4.822480035642300322e-01
3.230904324766852298e-01 5.638903103311996290e-01
3.241309813733506129e-01 7.938646624569791754e-01
3.251715302700159960e-01 6.370204182173750951e-01
3.262120791666813790e-01 5.509701400302908780e-01
3.272526280633467621e-01 4.515922774869771672e-01
3.282931769600121452e-01 2.606026855090846084e-01
3.293337258566775283e-01 0.000000000000000000e+00
3.303742747533429114e-01 3.423313845005147016e-01
3.314148236500082945e-01 4.321160389128415602e-01
3.324553725466736775e-01 6.619917205912244640e-01
3.334959214433390606e-01 5.005743060523748511e-01
3.345364703400044437e-01 3.675502756066215682e-01
3.355770192366698268e-01 4.353379474934762072e-01
3.366175681333352099e-01 5.561533838599110879e-01
3.376581170300005930e-01 4.610287379875188662e-01
3.386986659266659760e-01 5.059584853952969752e-01
3.397392148233313591e-01 6.418200074400850497e-01
3.407797637199967422e-01 7.236441715694752475e-01
3.418203126166621253e-01 7.009154196766260725e-01
3.428608615133275084e-01 4.213453697324709424e-01
3.439014104099928915e-01 5.209575281018175019e-01
3.449419593066582745e-01 5.769487328784457247e-01
3.459825082033236576e-01 6.774187049940252336e-01
3.470230570999890407e-01 7.367622292034319287e-01
3.480636059966544238e-01 8.143970653493326495e-01
3.491041548933198069e-01 1.063330997059480865e+00
3.501447037899851900e-01 1.119576746521399713e+00
3.511852526866505730e-01 9.865569509387448477e-01
3.522258015833159561e-01 8.387151599379798483e-01
3.532663504799813392e-01 8.582970446976787571e-01
3.543068993766467223e-01 7.764607077206981955e-01
3.553474482733121054e-01 8.290482644428358583e-01
3.563879971699774885e-01 7.933419780638040208e-01
3.574285460666428715e-01 7.976066416363600808e-01
3.584690949633082546e-01 7.931733323066225694e-01
3.595096438599736377e-01 7.100098245402399755e-01
3.605501927566390208e-01 7.311107802676595213e-01
3.615907416533044039e-01 6.710475711274916932e-01
3.626312905499697870e-01 5.156945918457260802e-01
3.636718394466351700e-01 8.258260051761006082e-01
3.647123883433005531e-01 8.365013450494274139e-01
3.657529372399659362e-01 8.749278624931235981e-01
3.667934861366313193e-01 7.368199689096677218e-01
3.678340350332967024e-01 8.188980385848623200e-01
3.688745839299620854e-01 8.911393884834062362e-01
3.699151328266274685e-01 6.262992810310521463e-01
3.709556817232928516e-01 7.442745999216739961e-01
3.719962306199582347e-01 9.842585134877168684e-01
3.730367795166236178e-01 1.004814640958556993e+00
3.740773284132890009e-01 7.783449353376141744e-01
3.751178773099543839e-01 7.824105561710084089e-01
3.761584262066197670e-01 7.654537570333737051e-01
3.771989751032851501e-01 7.883962884985962205e-01
3.782395239999505332e-01 7.593156578937154677e-01
3.792800728966159163e-01 6.972351511521779344e-01
3.803206217932812994e-01 8.951315300502962202e-01
3.813611706899466824e-01 8.127544108658817379e-01
3.824017195866120655e-01 5.038190864896634480e-01
3.834422684832774486e-01 7.201891622741598553e-01
3.844828173799428317e-01 6.533522377222737987e-01
3.855233662766082148e-01 4.995114431732083915e-01
3.865639151732735979e-01 6.533413249263304579e-01
3.876044640699389809e-01 5.055161716229257252e-01
3.886450129666043640e-01 5.110928281542186369e-01
3.896855618632697471e-01 6.951973434976892463e-01
3.907261107599351302e-01 7.985795270313182925e-01
3.917666596566005133e-01 6.429805306534923659e-01
3.928072085532658964e-01 8.542670924841466729e-01
3.938477574499312794e-01 8.042302125220501807e-01
3.948883063465966625e-01 7.213540844756636261e-01
3.959288552432620456e-01 6.844869134104420993e-01
3.969694041399274287e-01 5.534997541638730922e-01
3.980099530365928118e-01 3.536644749398938359e-01
3.990505019332581949e-01 4.806355605471210879e-01
4.000910508299235779e-01 3.787474089005655742e-01
4.011315997265889610e-01 3.527666847131136763e-01
4.021721486232543441e-01 4.184897346267959506e-01
4.032126975199197272e-01 4.103543387256749497e-01
4.042532464165851103e-01 3.750183017218660098e-01
4.052937953132504934e-01 5.239679738814970733e-01
4.063343442099158764e-01 6.050149461584730659e-01
4.073748931065812595e-01 5.570724362619756675e-01
4.084154420032466426e-01 3.529076223712550586e-01
4.094559908999120257e-01 3.951201474961685278e-01
4.104965397965774088e-01 2.492485069559471356e-01
4.115370886932427918e-01 2.865250636594538491e-01
4.125776375899081749e-01 4.136834295501508052e-01
4.136181864865735580e-01 5.203233238415485573e-01
4.146587353832389411e-01 6.466744368615131577e-01
4.156992842799043242e-01 8.270660360161805613e-01
4.167398331765697073e-01 6.236124118696473317e-01
4.177803820732350903e-01 5.443381713861867865e-01
4.188209309699004734e-01 2.732508592619957710e-01
4.198614798665658565e-01 2.467580876295230041e-01
4.209020287632312396e-01 4.209880787979578542e-01
4.219425776598966227e-01 4.697624620040592447e-01
4.229831265565620058e-01 4.304627069657378513e-01
4.240236754532273888e-01 5.477858755207485331e-01
4.250642243498927719e-01 5.995075611997613407e-01
4.261047732465581550e-01 4.914448442958132546e-01
4.271453221432235381e-01 6.362870224881973513e-01
4.281858710398889212e-01 4.841878125725216364e-01
4.292264199365543043e-01 4.049921199506414382e-01
4.302669688332196873e-01 5.078365349396385398e-01
4.313075177298850704e-01 5.069091533047860310e-01
4.323480666265504535e-01 3.934026668870806986e-01
4.333886155232158366e-01 6.122836886054265904e-01
4.344291644198812197e-01 5.109116965996918225e-01
