# q (1/Angstrom), Intensity (arb)
2.029070354705860696e-02 1.620515609770468245e+03
2.133125244372399004e-02 1.614871535177845999e+03
2.237180134038937659e-02 1.609347253259466925e+03
2.341235023705475968e-02 1.594778857334604481e+03
2.445289913372014276e-02 1.587526839840308412e+03
2.549344803038552584e-02 1.576041847545477594e+03
2.653399692705091240e-02 1.554412469639408528e+03
2.757454582371629548e-02 1.533883438759566616e+03
2.861509472038167856e-02 1.512351529243898312e+03
2.965564361704706164e-02 1.489141541071666552e+03
3.069619251371244473e-02 1.473235926538018475e+03
3.173674141037782781e-02 1.457050640123138692e+03
3.277729030704321089e-02 1.435795811808561439e+03
3.381783920370859398e-02 1.415252298565058254e+03
3.485838810037397706e-02 1.392543432043409666e+03
3.589893699703936014e-02 1.369547744229829505e+03
3.693948589370474322e-02 1.345196433959799833e+03
3.798003479037012631e-02 1.320254116266719166e+03
3.902058368703550939e-02 1.296530959359346070e+03
4.006113258370089247e-02 1.271794136457001741e+03
4.110168148036627556e-02 1.247612739849296076e+03
4.214223037703165864e-02 1.219827178800267120e+03
4.318277927369704866e-02 1.192378497991779341e+03
4.422332817036243174e-02 1.165815789727494575e+03
4.526387706702781483e-02 1.140185948294894843e+03
4.630442596369319791e-02 1.117001868121409188e+03
4.734497486035858099e-02 1.087880303454615841e+03
4.838552375702396408e-02 1.063574813380670321e+03
4.942607265368934716e-02 1.038380796582182029e+03
5.046662155035473024e-02 1.009836084184989318e+03
5.150717044702011332e-02 9.823837304055351751e+02
5.254771934368549641e-02 9.566401040991269156e+02
5.358826824035087949e-02 9.303870087979582877e+02
5.462881713701626257e-02 9.032436309799551282e+02
5.566936603368164566e-02 8.754325021470018555e+02
5.670991493034702874e-02 8.482843656494704874e+02
5.775046382701241182e-02 8.219244978094917542e+02
5.879101272367779490e-02 7.997732424932239610e+02
5.983156162034317799e-02 7.772288077331504610e+02
6.087211051700856107e-02 7.510551295616957077e+02
6.191265941367394415e-02 7.234369701242718520e+02
6.295320831033933417e-02 6.981155408910371989e+02
6.399375720700471726e-02 6.740164029637752492e+02
6.503430610367010034e-02 6.497729253131693667e+02
6.607485500033548342e-02 6.268294895294959588e+02
6.711540389700086651e-02 6.039258643650493923e+02
6.815595279366624959e-02 5.839676996211510414e+02
6.919650169033163267e-02 5.577670678296926781e+02
7.023705058699701576e-02 5.332074192110593458e+02
7.127759948366239884e-02 5.135349765869739258e+02
7.231814838032778192e-02 4.925675207853467441e+02
7.335869727699316500e-02 4.726590184511348411e+02
7.439924617365854809e-02 4.527073297174305821e+02
7.543979507032393117e-02 4.300364648551048390e+02
7.648034396698931425e-02 4.105440729892123386e+02
7.752089286365469734e-02 3.922453082825805382e+02
7.856144176032008042e-02 3.729931459689082089e+02
7.960199065698546350e-02 3.550278317423816361e+02
8.064253955365084658e-02 3.374618227510690076e+02
8.168308845031622967e-02 3.195643384113874959e+02
8.272363734698161275e-02 3.031887005006354912e+02
8.376418624364699583e-02 2.881362230347808691e+02
8.480473514031239279e-02 2.715309909088948075e+02
8.584528403697777588e-02 2.555287188576999995e+02
8.688583293364315896e-02 2.418451621068850272e+02
8.792638183030854204e-02 2.288770047840149005e+02
8.896693072697392513e-02 2.151539988051409864e+02
9.000747962363930821e-02 2.011790921867848283e+02
9.104802852030469129e-02 1.882260428863434072e+02
9.208857741697007437e-02 1.763625052068986179e+02
9.312912631363545746e-02 1.663616871883336898e+02
9.416967521030084054e-02 1.557214065493934356e+02
9.521022410696622362e-02 1.436203708956884668e+02
9.625077300363160671e-02 1.330203509729560096e+02
9.729132190029698979e-02 1.229342548754246565e+02
9.833187079696237287e-02 1.139294229037246851e+02
9.937241969362775595e-02 1.066365098159562308e+02
1.004129685902931390e-01 9.935762382453243902e+01
1.014535174869585221e-01 9.081784113774514822e+01
1.024940663836239052e-01 8.319205361392683074e+01
1.035346152802892883e-01 7.646377771038430637e+01
1.045751641769546714e-01 6.947331363400098780e+01
1.056157130736200545e-01 6.340172186163073320e+01
1.066562619702854375e-01 5.730697727711199718e+01
1.076968108669508206e-01 5.140959202466363820e+01
1.087373597636162037e-01 4.559517799856979536e+01
1.097779086602815868e-01 4.084665631876353586e+01
1.108184575569469699e-01 3.690999391412292141e+01
1.118590064536123529e-01 3.291959150747454999e+01
1.128995553502777360e-01 2.867444746973824010e+01
1.139401042469431191e-01 2.600287245767827926e+01
1.149806531436085022e-01 2.280700581112633785e+01
1.160212020402738853e-01 1.963261281809072045e+01
1.170617509369392684e-01 1.719177579218637320e+01
1.181022998336046514e-01 1.478744443615223148e+01
1.191428487302700345e-01 1.307250686096988801e+01
1.201833976269354176e-01 1.109647219293638187e+01
1.212239465236008007e-01 9.072129290675118085e+00
1.222644954202661838e-01 7.334819646600948317e+00
1.233050443169315669e-01 6.252517693860738746e+00
1.243455932135969499e-01 5.284486354674410080e+00
1.253861421102623330e-01 4.423469642526139722e+00
1.264266910069277161e-01 3.439785384236621724e+00
1.274672399035930992e-01 2.330437809657691872e+00
1.285077888002584823e-01 2.491836552046798658e+00
1.295483376969238654e-01 2.488776226997710950e+00
1.305888865935892484e-01 1.753435010424183815e+00
1.316294354902546315e-01 1.856256049239480177e+00
1.326699843869200146e-01 1.875785464676148706e+00
1.337105332835853977e-01 1.868269987994253256e+00
1.347510821802507808e-01 2.031148922885453345e+00
1.357916310769161639e-01 1.771514093403816048e+00
1.368321799735815469e-01 2.090416045526009015e+00
1.378727288702469300e-01 2.205624215563073420e+00
1.389132777669123131e-01 2.717762927210689128e+00
1.399538266635776962e-01 3.318025273272837694e+00
1.409943755602430793e-01 3.962119855881120145e+00
1.420349244569084624e-01 4.577746982019053945e+00
1.430754733535738454e-01 5.203170434652111709e+00
1.441160222502392285e-01 5.645949066911491343e+00
1.451565711469046116e-01 6.235727840634385899e+00
1.461971200435699947e-01 6.736264907615765907e+00
1.472376689402353778e-01 7.318740655837142839e+00
1.482782178369007609e-01 7.940833045272036372e+00
1.493187667335661439e-01 8.128269615480036236e+00
1.503593156302315270e-01 8.611209937269585168e+00
1.513998645268969101e-01 9.186211895818033213e+00
1.524404134235622932e-01 9.407876549130250510e+00
1.534809623202276763e-01 1.017022610647053682e+01
1.545215112168930593e-01 1.087868838852481446e+01
1.555620601135584424e-01 1.109244534198774090e+01
1.566026090102238255e-01 1.140418763846392025e+01
1.576431579068892086e-01 1.154347750017975827e+01
1.586837068035545917e-01 1.189091043838699946e+01
1.597242557002199748e-01 1.234236550173887892e+01
1.607648045968853578e-01 1.245957373260520384e+01
1.618053534935507409e-01 1.274915095806217025e+01
1.628459023902161240e-01 1.300513149787533962e+01
1.638864512868815071e-01 1.321653700395757625e+01
1.649270001835468902e-01 1.351966263615902264e+01
1.659675490802122733e-01 1.358784834245392403e+01
1.670080979768776563e-01 1.356668638306109642e+01
1.680486468735430672e-01 1.334321484401693425e+01
1.690891957702084503e-01 1.344889903053932656e+01
1.701297446668738333e-01 1.351294278178076880e+01
1.711702935635392164e-01 1.346249371242580395e+01
1.722108424602045995e-01 1.330682106773507911e+01
1.732513913568699826e-01 1.326394430364696930e+01
1.742919402535353657e-01 1.331268017930313263e+01
1.753324891502007488e-01 1.289295707174483852e+01
1.763730380468661318e-01 1.280618053788187538e+01
1.774135869435315149e-01 1.267797744490364664e+01
1.784541358401968980e-01 1.258603786849658945e+01
1.794946847368622811e-01 1.244052058816259532e+01
1.805352336335276642e-01 1.192842402221670994e+01
1.815757825301930473e-01 1.119898125406803402e+01
1.826163314268584303e-01 1.057724307833172261e+01
1.836568803235238134e-01 1.048440276610690347e+01
1.846974292201891965e-01 1.040543708713975235e+01
1.857379781168545796e-01 9.893223979786792910e+00
1.867785270135199627e-01 9.473427995936905432e+00
1.878190759101853458e-01 9.149191541366775482e+00
1.888596248068507288e-01 8.909404494661611551e+00
1.899001737035161119e-01 8.508105479124832726e+00
1.909407226001814950e-01 8.319369225112541955e+00
1.919812714968468781e-01 7.849179298017919137e+00
1.930218203935122612e-01 7.276293846671087806e+00
1.940623692901776443e-01 6.892299607683071372e+00
1.951029181868430273e-01 6.424260191973093725e+00
1.961434670835084104e-01 6.422459634127520189e+00
1.971840159801737935e-01 6.466321629230009194e+00
1.982245648768391766e-01 6.029847885772213090e+00
1.992651137735045597e-01 5.296457152152008518e+00
2.003056626701699428e-01 5.056054224890008442e+00
2.013462115668353813e-01 4.721803520260674958e+00
2.023867604635007644e-01 4.323097579362663367e+00
2.034273093601661475e-01 3.857977930719371784e+00
2.044678582568315306e-01 3.401131471178686638e+00
2.055084071534969137e-01 3.191687948740117520e+00
2.065489560501622968e-01 3.236670419192929415e+00
2.075895049468276798e-01 2.856624220318522589e+00
2.086300538434930629e-01 2.603747198551829456e+00
2.096706027401584460e-01 2.472329541368349481e+00
2.107111516368238291e-01 2.144082648154299164e+00
2.117517005334892122e-01 1.800804298700800388e+00
2.127922494301545953e-01 1.957390349785622874e+00
2.138327983268199783e-01 1.913762630566413492e+00
2.148733472234853614e-01 1.599074816440754887e+00
2.159138961201507445e-01 1.235526940247765992e+00
2.169544450168161276e-01 9.655674200843584742e-01
2.179949939134815107e-01 9.114715083702016329e-01
2.190355428101468938e-01 9.047677746786746411e-01
2.200760917068122768e-01 1.067496789610640207e+00
2.211166406034776599e-01 9.049143488875692753e-01
2.221571895001430430e-01 8.099396361819941603e-01
2.231977383968084261e-01 8.837168861168009926e-01
2.242382872934738092e-01 6.946990059491398029e-01
2.252788361901391923e-01 6.623227440073051753e-01
2.263193850868045753e-01 4.670759024039128349e-01
2.273599339834699584e-01 8.099627076084168209e-01
2.284004828801353415e-01 8.989825066615466653e-01
2.294410317768007246e-01 5.248412949388097104e-01
2.304815806734661077e-01 6.227190363316168487e-01
2.315221295701314908e-01 9.418002860188074976e-01
2.325626784667968738e-01 8.285750439788088784e-01
2.336032273634622569e-01 9.295801209453706804e-01
2.346437762601276400e-01 8.678724399459269989e-01
2.356843251567930231e-01 8.601457767238223084e-01
2.367248740534584062e-01 7.949578901116538532e-01
2.377654229501237892e-01 1.128484859652658656e+00
2.388059718467891723e-01 1.292032733547934242e+00
2.398465207434545554e-01 1.256545547019506159e+00
2.408870696401199385e-01 1.140221169971464832e+00
2.419276185367853216e-01 1.314732738886455365e+00
2.429681674334507047e-01 1.297125076806249666e+00
2.440087163301160877e-01 1.453596183542103404e+00
2.450492652267814708e-01 1.615524049296439557e+00
2.460898141234468539e-01 1.620652746008033773e+00
2.471303630201122370e-01 1.591557683761163133e+00
2.481709119167776201e-01 1.659700058197561390e+00
2.492114608134430032e-01 1.875659575114639210e+00
2.502520097101083585e-01 1.895310647459716336e+00
2.512925586067737416e-01 1.823115848907132630e+00
2.523331075034391247e-01 2.413624780911078460e+00
2.533736564001045077e-01 2.507070479321143353e+00
2.544142052967698908e-01 2.375247497235761784e+00
2.554547541934352739e-01 2.448627029964232094e+00
2.564953030901006570e-01 2.455327488633383126e+00
2.575358519867660401e-01 2.189020957036856174e+00
2.585764008834314231e-01 2.289536606729619450e+00
2.596169497800968062e-01 2.372736097435087288e+00
2.606574986767621893e-01 2.236764460741753169e+00
2.616980475734275724e-01 2.493514474867659203e+00
2.627385964700929555e-01 2.411144954995023681e+00
2.637791453667583386e-01 2.382702467190309648e+00
2.648196942634237216e-01 2.222817361538496073e+00
2.658602431600891047e-01 2.242620526201346109e+00
2.669007920567544878e-01 2.135488112642875080e+00
2.679413409534198709e-01 2.231892099843530985e+00
2.689818898500852540e-01 2.302756035935971113e+00
2.700224387467506371e-01 2.112370290646403248e+00
2.710629876434160201e-01 2.116974376923490553e+00
2.721035365400814032e-01 2.264310737418746555e+00
2.731440854367467863e-01 2.392192953349713491e+00
2.741846343334121694e-01 2.390871593148656160e+00
2.752251832300775525e-01 2.216605099834264792e+00
2.762657321267429356e-01 2.221068438664914879e+00
2.773062810234083186e-01 1.956810602262496701e+00
2.783468299200737017e-01 2.028588741940247075e+00
2.793873788167390848e-01 1.967315946258818116e+00
2.804279277134044679e-01 1.995432758326494138e+00
2.814684766100698510e-01 2.028879373432641131e+00
2.825090255067352341e-01 2.013175650121770133e+00
2.835495744034006171e-01 2.089064326592559695e+00
2.845901233000660002e-01 1.825627826259513142e+00
2.856306721967313833e-01 1.949579128870574607e+00
2.866712210933967664e-01 1.911162753688891769e+00
2.877117699900621495e-01 1.928486914451003287e+00
2.887523188867275326e-01 1.833171607766178823e+00
2.897928677833929156e-01 1.735180654115250576e+00
2.908334166800582987e-01 1.612317306583431531e+00
2.918739655767236818e-01 1.454550009212955075e+00
2.929145144733890649e-01 1.286334101459413404e+00
2.939550633700544480e-01 1.290021695508411170e+00
2.949956122667198311e-01 1.274009463527015384e+00
2.960361611633852141e-01 1.264755089705815294e+00
2.970767100600505972e-01 1.322743297981251231e+00
2.981172589567159803e-01 1.360341194353171801e+00
2.991578078533813634e-01 1.281952188020461847e+00
3.001983567500468020e-01 1.049631764493206276e+00
3.012389056467121851e-01 9.142528023688605288e-01
3.022794545433775681e-01 7.094860561600633275e-01
3.033200034400429512e-01 7.758026031960234548e-01
3.043605523367083343e-01 8.448754773069779844e-01
3.054011012333737174e-01 8.316122150422486925e-01
3.064416501300391005e-01 9.038074086029084242e-01
3.074821990267044836e-01 6.904794176252515570e-01
3.085227479233698666e-01 6.109675659697195726e-01
3.095632968200352497e-01 6.784723590859229603e-01
3.106038457167006328e-01 4.571648714149993964e-01
3.116443946133660159e-01 5.026140409627615213e-01
3.126849435100313990e-01 5.653463507356413231e-01
3.137254924066967821e-01 5.390079996524299588e-01
3.147660413033621651e-01 3.126616514340838648e-01
3.158065902000275482e-01 4.339694605758595003e-01
3.168471390966929313e-01 3.512500078074083376e-01
3.178876879933583144e-01 4.769292012568122630e-01
3.189282368900236975e-01 5.594260964542137060e-01
3.199687857866890806e-01 5.740787369339450663e-01
3.210093346833544636e-01 6.515651071904393632e-01
3.220498835800198467e-01 7.547644781378011203e-01
3.230904324766852298e-01 7.763915567121060235e-01
3.241309813733506129e-01 6.237759856087379262e-01
3.251715302700159960e-01 7.634311275991088053e-01
3.262120791666813790e-01 6.638362717623103038e-01
3.272526280633467621e-01 5.639389216707400010e-01
3.282931769600121452e-01 5.986829201920293997e-01
3.293337258566775283e-01 6.042485032146416302e-01
3.303742747533429114e-01 5.952106337989313545e-01
3.314148236500082945e-01 6.944150337643293369e-01
3.324553725466736775e-01 8.672509957328564667e-01
3.334959214433390606e-01 5.926688184351078803e-01
3.345364703400044437e-01 5.732436311520814343e-01
3.355770192366698268e-01 6.018831132507536097e-01
3.366175681333352099e-01 6.109808711457489494e-01
3.376581170300005930e-01 5.199772466022771766e-01
3.386986659266659760e-01 5.285427279150454183e-01
3.397392148233313591e-01 6.030701742428909995e-01
3.407797637199967422e-01 6.175290288020569562e-01
3.418203126166621253e-01 6.451362598439480678e-01
3.428608615133275084e-01 6.831428028160040355e-01
3.439014104099928915e-01 7.306034602719684301e-01
3.449419593066582745e-01 8.458810216876209154e-01
3.459825082033236576e-01 7.466355727606419634e-01
3.470230570999890407e-01 8.139903658513567564e-01
3.480636059966544238e-01 6.834061455561553089e-01
3.491041548933198069e-01 5.403641308105520125e-01
3.501447037899851900e-01 6.510735314453270917e-01
3.511852526866505730e-01 7.371984194257272804e-01
3.522258015833159561e-01 4.874774847193954486e-01
3.532663504799813392e-01 7.229719857970380303e-01
3.543068993766467223e-01 1.019813652042095953e+00
3.553474482733121054e-01 8.657359502139918561e-01
3.563879971699774885e-01 8.607586416961225950e-01
3.574285460666428715e-01 8.348637947243027213e-01
3.584690949633082546e-01 8.969813586801720362e-01
3.595096438599736377e-01 8.895600614284546737e-01
3.605501927566390208e-01 8.371825105350900742e-01
3.615907416533044039e-01 8.472855705304773721e-01
3.626312905499697870e-01 7.167345878948871984e-01
3.636718394466351700e-01 9.495225286611663762e-01
3.647123883433005531e-01 9.261859641894290007e-01
3.657529372399659362e-01 9.998673759608251999e-01
3.667934861366313193e-01 9.581614071168154112e-01
3.678340350332967024e-01 9.488193075052535619e-01
3.688745839299620854e-01 9.741324632336691991e-01
3.699151328266274685e-01 1.283100456728586636e+00
3.709556817232928516e-01 1.094923278935930000e+00
3.719962306199582347e-01 1.009324714317759941e+00
3.730367795166236178e-01 9.924784966305750800e-01
3.740773284132890009e-01 9.035404302824368017e-01
3.751178773099543839e-01 7.617901654868113326e-01
3.761584262066197670e-01 6.073748407683261519e-01
3.771989751032851501e-01 7.425310301555896331e-01
3.782395239999505332e-01 7.298154283414248766e-01
3.792800728966159163e-01 7.388430160027859017e-01
3.803206217932812994e-01 6.094329552548600759e-01
3.813611706899466824e-01 5.682678729954453445e-01
3.824017195866120655e-01 7.309252173243123707e-01
3.834422684832774486e-01 8.989429178524410702e-01
3.844828173799428317e-01 7.421028084278589176e-01
3.855233662766082148e-01 8.223604644271560460e-01
3.865639151732735979e-01 6.386606063277007195e-01
3.876044640699389809e-01 5.416802104378746208e-01
3.886450129666043640e-01 5.378255309361961167e-01
3.896855618632697471e-01 5.067107016437688571e-01
3.907261107599351302e-01 6.628404696308898281e-01
3.917666596566005133e-01 5.398444249480078838e-01
3.928072085532658964e-01 6.649263178784359241e-01
3.938477574499312794e-01 6.462735654841793576e-01
3.948883063465966625e-01 5.803679268145884862e-01
3.959288552432620456e-01 5.700865907330587845e-01
3.969694041399274287e-01 6.328327753714866333e-01
3.980099530365928118e-01 6.906584895882161845e-01
3.990505019332581949e-01 4.775791401572107020e-01
4.000910508299235779e-01 2.875117745010911108e-01
4.011315997265889610e-01 4.428166461507423435e-01
4.021721486232543441e-01 5.503791671714886036e-01
4.032126975199197272e-01 5.374489306613305928e-01
4.042532464165851103e-01 4.213653807158657116e-01
4.052937953132504934e-01 3.407871547918261967e-01
4.063343442099158764e-01 4.871868023783427759e-01
4.073748931065812595e-01 5.555995292002258168e-01
4.084154420032466426e-01 5.658962390196649039e-01
4.094559908999120257e-01 4.682664379927423681e-01
4.104965397965774088e-01 4.265548461494965693e-01
4.115370886932427918e-01 2.654700376844090215e-01
4.125776375899081749e-01 3.423806075641735447e-01
4.136181864865735580e-01 5.461481626920914323e-01
4.146587353832389411e-01 5.108927224213211105e-01
4.156992842799043242e-01 4.361539312194260276e-01
4.167398331765697073e-01 4.849303323740663529e-01
4.177803820732350903e-01 6.028619573033608958e-01
4.188209309699004734e-01 5.580911815539124632e-01
4.198614798665658565e-01 5.820769583658353952e-01
4.209020287632312396e-01 4.358217217512887487e-01
4.219425776598966227e-01 5.788284381795882894e-01
4.229831265565620058e-01 4.366419083321986250e-01
4.240236754532273888e-01 3.765575715859235117e-01
4.250642243498927719e-01 4.735585480272277437e-01
4.261047732465581550e-01 5.249081811392350971e-01
4.271453221432235381e-01 4.266517335672084243e-01
4.281858710398889212e-01 5.360171146803196507e-01
4.292264199365543043e-01 5.912018407846098000e-01
4.302669688332196873e-01 5.299148708924121820e-01
4.313075177298850704e-01 5.053697327679174123e-01
4.323480666265504535e-01 3.615410087265935601e-01
4.333886155232158366e-01 5.123779477006529248e-01
4.344291644198812197e-01 5.441695386679761270e-01
