# q (1/Angstrom), Intensity (arb)
2.029070354705860696e-02 1.651013045867276333e+03
2.133125244372399004e-02 1.635558986887992660e+03
2.237180134038937659e-02 1.631172684253113403e+03
2.341235023705475968e-02 1.618318082580911550e+03
2.445289913372014276e-02 1.605829482236612421e+03
2.549344803038552584e-02 1.593570304574553347e+03
2.653399692705091240e-02 1.572130990942370545e+03
2.757454582371629548e-02 1.554872745074580735e+03
2.861509472038167856e-02 1.535688717614075813e+03
2.965564361704706164e-02 1.518350895537261977e+03
3.069619251371244473e-02 1.495897654376203263e+03
3.173674141037782781e-02 1.474953310372601209e+03
3.277729030704321089e-02 1.456798548854291994e+03
3.381783920370859398e-02 1.437777527679974810e+03
3.485838810037397706e-02 1.409200493226304616e+03
3.589893699703936014e-02 1.385303594691626813e+03
3.693948589370474322e-02 1.360135122642636361e+03
3.798003479037012631e-02 1.331480566477393950e+03
3.902058368703550939e-02 1.308385960877740672e+03
4.006113258370089247e-02 1.279431780781787666e+03
4.110168148036627556e-02 1.254165636279440150e+03
4.214223037703165864e-02 1.230522983867042967e+03
4.318277927369704866e-02 1.204683119749951629e+03
4.422332817036243174e-02 1.177915966519457697e+03
4.526387706702781483e-02 1.154084571090057352e+03
4.630442596369319791e-02 1.128736373425799684e+03
4.734497486035858099e-02 1.100988876028935010e+03
4.838552375702396408e-02 1.074310387373887806e+03
4.942607265368934716e-02 1.046742056163345751e+03
5.046662155035473024e-02 1.018748797226562715e+03
5.150717044702011332e-02 9.956193540230808594e+02
5.254771934368549641e-02 9.659720477970238335e+02
5.358826824035087949e-02 9.384303000741286951e+02
5.462881713701626257e-02 9.135825215298445983e+02
5.566936603368164566e-02 8.852783968649680446e+02
5.670991493034702874e-02 8.623644278645616623e+02
5.775046382701241182e-02 8.367381595578270890e+02
5.879101272367779490e-02 8.087923998033984390e+02
5.983156162034317799e-02 7.811964914589173077e+02
6.087211051700856107e-02 7.560944586351808994e+02
6.191265941367394415e-02 7.325688747232172773e+02
6.295320831033933417e-02 7.077034369006200905e+02
6.399375720700471726e-02 6.829846120487030703e+02
6.503430610367010034e-02 6.580024079428006871e+02
6.607485500033548342e-02 6.330695671080476359e+02
6.711540389700086651e-02 6.103486829800467603e+02
6.815595279366624959e-02 5.878306063739431693e+02
6.919650169033163267e-02 5.655548047247503973e+02
7.023705058699701576e-02 5.419151463253241445e+02
7.127759948366239884e-02 5.213422529422582556e+02
7.231814838032778192e-02 5.000041757415723396e+02
7.335869727699316500e-02 4.784111292198655860e+02
7.439924617365854809e-02 4.570310893039560938e+02
7.543979507032393117e-02 4.354660495820126584e+02
7.648034396698931425e-02 4.165222893302072862e+02
7.752089286365469734e-02 3.970947556084209396e+02
7.856144176032008042e-02 3.774721973115587730e+02
7.960199065698546350e-02 3.606500479502127519e+02
8.064253955365084658e-02 3.432949213119912883e+02
8.168308845031622967e-02 3.275066526378186040e+02
8.272363734698161275e-02 3.127868624954606389e+02
8.376418624364699583e-02 2.983958619456282690e+02
8.480473514031239279e-02 2.796561265698306897e+02
8.584528403697777588e-02 2.631837714819217240e+02
8.688583293364315896e-02 2.497116408092694826e+02
8.792638183030854204e-02 2.393078288091870718e+02
8.896693072697392513e-02 2.263569119009064536e+02
9.000747962363930821e-02 2.093049398191553792e+02
9.104802852030469129e-02 1.943650076089352297e+02
9.208857741697007437e-02 1.838646930039544714e+02
9.312912631363545746e-02 1.747196824807546420e+02
9.416967521030084054e-02 1.649707405857386391e+02
9.521022410696622362e-02 1.522306476470633356e+02
9.625077300363160671e-02 1.390370554503108735e+02
9.729132190029698979e-02 1.281117716018763133e+02
9.833187079696237287e-02 1.178689654849683563e+02
9.937241969362775595e-02 1.089536810242521767e+02
1.004129685902931390e-01 1.011999645683378475e+02
1.014535174869585221e-01 9.261220031298590527e+01
1.024940663836239052e-01 8.474088229397960959e+01
1.035346152802892883e-01 7.746169313954398206e+01
1.045751641769546714e-01 7.025376200112849290e+01
1.056157130736200545e-01 6.389124964640168258e+01
1.066562619702854375e-01 5.766091146665809219e+01
1.076968108669508206e-01 5.173956601836594871e+01
1.087373597636162037e-01 4.687199043800422515e+01
1.097779086602815868e-01 4.210734121854471823e+01
1.108184575569469699e-01 3.767453145970320350e+01
1.118590064536123529e-01 3.342996051711943295e+01
1.128995553502777360e-01 2.981755646186613617e+01
1.139401042469431191e-01 2.643318860343869758e+01
1.149806531436085022e-01 2.329450707804695142e+01
1.160212020402738853e-01 2.005294049629958408e+01
1.170617509369392684e-01 1.756565046199886737e+01
1.181022998336046514e-01 1.516892814929738265e+01
1.191428487302700345e-01 1.282973485377375411e+01
1.201833976269354176e-01 1.095877667721460824e+01
1.212239465236008007e-01 9.380740029662764101e+00
1.222644954202661838e-01 7.917972479125594987e+00
1.233050443169315669e-01 6.638136046146229319e+00
1.243455932135969499e-01 5.784980716493393516e+00
1.253861421102623330e-01 4.768793109992341073e+00
1.264266910069277161e-01 3.354493238544336009e+00
1.274672399035930992e-01 2.446701661250056503e+00
1.285077888002584823e-01 2.128905725212447919e+00
1.295483376969238654e-01 2.106246693719910468e+00
1.305888865935892484e-01 1.867929213581373205e+00
1.316294354902546315e-01 1.209388015338159761e+00
1.326699843869200146e-01 1.486517130892927696e+00
1.337105332835853977e-01 1.750722498603909827e+00
1.347510821802507808e-01 2.210095913723641559e+00
1.357916310769161639e-01 2.233926715896352277e+00
1.368321799735815469e-01 2.294452481439517300e+00
1.378727288702469300e-01 2.302399907052606665e+00
1.389132777669123131e-01 2.629700668452382928e+00
1.399538266635776962e-01 3.105266256395417201e+00
1.409943755602430793e-01 3.656802926699985079e+00
1.420349244569084624e-01 4.724451926270507585e+00
1.430754733535738454e-01 5.216455408943865280e+00
1.441160222502392285e-01 5.506561784057318221e+00
1.451565711469046116e-01 5.841676772209112301e+00
1.461971200435699947e-01 6.484511440923924397e+00
1.472376689402353778e-01 7.065223088892530257e+00
1.482782178369007609e-01 7.667727068259946321e+00
1.493187667335661439e-01 8.356484047058884812e+00
1.503593156302315270e-01 8.910720544047261882e+00
1.513998645268969101e-01 9.148883898752281141e+00
1.524404134235622932e-01 9.931097542644881315e+00
1.534809623202276763e-01 1.044237414143099230e+01
1.545215112168930593e-01 1.110666946744183292e+01
1.555620601135584424e-01 1.119395899022958929e+01
1.566026090102238255e-01 1.160026713225335726e+01
1.576431579068892086e-01 1.210395410086151102e+01
1.586837068035545917e-01 1.237289198419470182e+01
1.597242557002199748e-01 1.268664876367408567e+01
1.607648045968853578e-01 1.279398003901813752e+01
1.618053534935507409e-01 1.304738674072750371e+01
1.628459023902161240e-01 1.329898875257836721e+01
1.638864512868815071e-01 1.348558168748460773e+01
1.649270001835468902e-01 1.347709257610026512e+01
1.659675490802122733e-01 1.363063143706962421e+01
1.670080979768776563e-01 1.373653107490455128e+01
1.680486468735430672e-01 1.405259477991768691e+01
1.690891957702084503e-01 1.452537187801852880e+01
1.701297446668738333e-01 1.441942586059134968e+01
1.711702935635392164e-01 1.389219345616501400e+01
1.722108424602045995e-01 1.377059742704896905e+01
1.732513913568699826e-01 1.346030537156022433e+01
1.742919402535353657e-01 1.346572208769229917e+01
1.753324891502007488e-01 1.338174001910240918e+01
1.763730380468661318e-01 1.286731132752467843e+01
1.774135869435315149e-01 1.246016149118911542e+01
1.784541358401968980e-01 1.201937086244388553e+01
1.794946847368622811e-01 1.206837962366466854e+01
1.805352336335276642e-01 1.204109312640670382e+01
1.815757825301930473e-01 1.133370907040436038e+01
1.826163314268584303e-01 1.116982424250766215e+01
1.836568803235238134e-01 1.091976616362740415e+01
1.846974292201891965e-01 1.030562986479916887e+01
1.857379781168545796e-01 9.956632162890770132e+00
1.867785270135199627e-01 9.643118012797234684e+00
1.878190759101853458e-01 9.404841351763167268e+00
1.888596248068507288e-01 9.289724569960434053e+00
1.899001737035161119e-01 9.029105620470804894e+00
1.909407226001814950e-01 8.262306437755555066e+00
1.919812714968468781e-01 8.008767291088460638e+00
1.930218203935122612e-01 7.849637528273689213e+00
1.940623692901776443e-01 6.930378356212610669e+00
1.951029181868430273e-01 6.563167661040193224e+00
1.961434670835084104e-01 6.613856941337882489e+00
1.971840159801737935e-01 6.276468965201559058e+00
1.982245648768391766e-01 5.924183243498571727e+00
1.992651137735045597e-01 5.556037226240043481e+00
2.003056626701699428e-01 5.094543490545355269e+00
2.013462115668353813e-01 4.572995490795765505e+00
2.023867604635007644e-01 4.335436687163952030e+00
2.034273093601661475e-01 4.101054499455202063e+00
2.044678582568315306e-01 3.523315976305781305e+00
2.055084071534969137e-01 3.167933544966018644e+00
2.065489560501622968e-01 2.992593058662105676e+00
2.075895049468276798e-01 2.950407058272080718e+00
2.086300538434930629e-01 2.719318001346685776e+00
2.096706027401584460e-01 2.489926129449678172e+00
2.107111516368238291e-01 2.159464387382385553e+00
2.117517005334892122e-01 1.827121213558875468e+00
2.127922494301545953e-01 1.498366942485745312e+00
2.138327983268199783e-01 1.678111654409157438e+00
2.148733472234853614e-01 1.477182691422438410e+00
2.159138961201507445e-01 1.043857227906944019e+00
2.169544450168161276e-01 1.071259785644482321e+00
2.179949939134815107e-01 8.925439114967410603e-01
2.190355428101468938e-01 9.377297285232302215e-01
2.200760917068122768e-01 8.797775885252185901e-01
2.211166406034776599e-01 5.697525853821758801e-01
2.221571895001430430e-01 4.255064629065188342e-01
2.231977383968084261e-01 4.470456246304799208e-01
2.242382872934738092e-01 6.155160798729681915e-01
2.252788361901391923e-01 8.265924110908322575e-01
2.263193850868045753e-01 6.226609924259633999e-01
2.273599339834699584e-01 5.799031005586954279e-01
2.284004828801353415e-01 7.604847278322246495e-01
2.294410317768007246e-01 5.877120303897953590e-01
2.304815806734661077e-01 5.763732338620783935e-01
2.315221295701314908e-01 6.179422123700284430e-01
2.325626784667968738e-01 4.921164641369948356e-01
2.336032273634622569e-01 7.342112427720444146e-01
2.346437762601276400e-01 8.341902728803560763e-01
2.356843251567930231e-01 1.017825729314790095e+00
2.367248740534584062e-01 1.135924750839659936e+00
2.377654229501237892e-01 8.790140315457541931e-01
2.388059718467891723e-01 1.081355819826566034e+00
2.398465207434545554e-01 1.245716845422741414e+00
2.408870696401199385e-01 1.125172733629430155e+00
2.419276185367853216e-01 1.147549720235964799e+00
2.429681674334507047e-01 9.843244166935285477e-01
2.440087163301160877e-01 1.319650471002656644e+00
2.450492652267814708e-01 1.618705096252643472e+00
2.460898141234468539e-01 1.553903113999133723e+00
2.471303630201122370e-01 1.796929353861067113e+00
2.481709119167776201e-01 2.066813792433226382e+00
2.492114608134430032e-01 1.847068819508638882e+00
2.502520097101083585e-01 1.725908180022944549e+00
2.512925586067737416e-01 1.563089598533423441e+00
2.523331075034391247e-01 1.739070305975868536e+00
2.533736564001045077e-01 2.017386394308349651e+00
2.544142052967698908e-01 1.977384462444462088e+00
2.554547541934352739e-01 1.924592055638420618e+00
2.564953030901006570e-01 1.990778364461807115e+00
2.575358519867660401e-01 2.308007710937769019e+00
2.585764008834314231e-01 2.397298441213891351e+00
2.596169497800968062e-01 2.346798548943631602e+00
2.606574986767621893e-01 2.077162006174241071e+00
2.616980475734275724e-01 2.191668657991389324e+00
2.627385964700929555e-01 2.105028363365477162e+00
2.637791453667583386e-01 2.310182377607628013e+00
2.648196942634237216e-01 2.318630079118751297e+00
2.658602431600891047e-01 2.105805970675618255e+00
2.669007920567544878e-01 2.065679932969921140e+00
2.679413409534198709e-01 2.135308473760140657e+00
2.689818898500852540e-01 2.343822949630528285e+00
2.700224387467506371e-01 2.498039192244174700e+00
2.710629876434160201e-01 2.180565786336025269e+00
2.721035365400814032e-01 2.224365936859395987e+00
2.731440854367467863e-01 2.139664022605320071e+00
2.741846343334121694e-01 2.117576097703825155e+00
2.752251832300775525e-01 2.061221432383362639e+00
2.762657321267429356e-01 2.059576612473630775e+00
2.773062810234083186e-01 2.075465128048318064e+00
2.783468299200737017e-01 2.061067591642025576e+00
2.793873788167390848e-01 1.994760147227506053e+00
2.804279277134044679e-01 1.719874383114234462e+00
2.814684766100698510e-01 1.837195711783628838e+00
2.825090255067352341e-01 1.917960393850599132e+00
2.835495744034006171e-01 1.872724251701885834e+00
2.845901233000660002e-01 1.786551286487679135e+00
2.856306721967313833e-01 1.686426157125119119e+00
2.866712210933967664e-01 1.773179643633845615e+00
2.877117699900621495e-01 1.485294538975406198e+00
2.887523188867275326e-01 1.382371705499945591e+00
2.897928677833929156e-01 1.296232086497763447e+00
2.908334166800582987e-01 1.307818384580940574e+00
2.918739655767236818e-01 1.320210290972742229e+00
2.929145144733890649e-01 1.293979846659002675e+00
2.939550633700544480e-01 1.344611631042980093e+00
2.949956122667198311e-01 1.275521678219220689e+00
2.960361611633852141e-01 1.121374547213719097e+00
2.970767100600505972e-01 1.088001173881103512e+00
2.981172589567159803e-01 9.176276726355503399e-01
2.991578078533813634e-01 7.427886605006897014e-01
3.001983567500468020e-01 5.762916404490034950e-01
3.012389056467121851e-01 7.615398612780310827e-01
3.022794545433775681e-01 8.860314034475997857e-01
3.033200034400429512e-01 6.376077930030739083e-01
3.043605523367083343e-01 6.854893739799514663e-01
3.054011012333737174e-01 6.139342821896462965e-01
3.064416501300391005e-01 5.540749811145317949e-01
3.074821990267044836e-01 4.227232582291975405e-01
3.085227479233698666e-01 5.799486157880231474e-01
3.095632968200352497e-01 6.302927424481765684e-01
3.106038457167006328e-01 4.644978037052496234e-01
3.116443946133660159e-01 6.261798707367027816e-01
3.126849435100313990e-01 6.154385633689543056e-01
3.137254924066967821e-01 6.286299094842568991e-01
3.147660413033621651e-01 3.416891981244418730e-01
3.158065902000275482e-01 2.331678675276336321e-01
3.168471390966929313e-01 2.850864186243242671e-01
3.178876879933583144e-01 4.533159197935887619e-01
3.189282368900236975e-01 3.200174901829555552e-01
3.199687857866890806e-01 3.231125902334994748e-01
3.210093346833544636e-01 4.286889477460000819e-01
3.220498835800198467e-01 2.713057519505426285e-01
3.230904324766852298e-01 5.792718125896030301e-01
3.241309813733506129e-01 6.370299463086475100e-01
3.251715302700159960e-01 4.302119299632813920e-01
3.262120791666813790e-01 2.227091152561833098e-01
3.272526280633467621e-01 3.675836363132454210e-01
3.282931769600121452e-01 5.547093332957508949e-01
3.293337258566775283e-01 4.877993908386386579e-01
3.303742747533429114e-01 5.915842851361681198e-01
3.314148236500082945e-01 4.988073142096460799e-01
3.324553725466736775e-01 5.149592311341919526e-01
3.334959214433390606e-01 3.815550763136315027e-01
3.345364703400044437e-01 4.264484836131678946e-01
3.355770192366698268e-01 5.812465064455132335e-01
3.366175681333352099e-01 4.172593436130576094e-01
3.376581170300005930e-01 3.225769751320797241e-01
3.386986659266659760e-01 5.310537514043538465e-01
3.397392148233313591e-01 5.101793522791915336e-01
3.407797637199967422e-01 6.273642622053756668e-01
3.418203126166621253e-01 5.870375065848278950e-01
3.428608615133275084e-01 5.906539059267643665e-01
3.439014104099928915e-01 6.692832028776543041e-01
3.449419593066582745e-01 7.859973049881219254e-01
3.459825082033236576e-01 7.046975694551456115e-01
3.470230570999890407e-01 8.324456084708273806e-01
3.480636059966544238e-01 6.860545872772974008e-01
3.491041548933198069e-01 6.379376175872621957e-01
3.501447037899851900e-01 6.283994316913492639e-01
3.511852526866505730e-01 7.452790447104717941e-01
3.522258015833159561e-01 6.320456332765829188e-01
3.532663504799813392e-01 7.557330290240962256e-01
3.543068993766467223e-01 8.211842934523154725e-01
3.553474482733121054e-01 6.281004921074782033e-01
3.563879971699774885e-01 7.081698819275352719e-01
3.574285460666428715e-01 7.443705588565237008e-01
3.584690949633082546e-01 7.657660336281750801e-01
3.595096438599736377e-01 8.052343562402342059e-01
3.605501927566390208e-01 8.579136512696869943e-01
3.615907416533044039e-01 8.751040710382120835e-01
3.626312905499697870e-01 8.729133747508939223e-01
3.636718394466351700e-01 6.658609348518211846e-01
3.647123883433005531e-01 6.878867133819603907e-01
3.657529372399659362e-01 6.138281789760391405e-01
3.667934861366313193e-01 6.615153583228412515e-01
3.678340350332967024e-01 6.377421429164797928e-01
3.688745839299620854e-01 7.642440204816765004e-01
3.699151328266274685e-01 8.836965432683143717e-01
3.709556817232928516e-01 8.213913682946234474e-01
3.719962306199582347e-01 8.787663276888828534e-01
3.730367795166236178e-01 8.439082943743336784e-01
3.740773284132890009e-01 7.159772701222877345e-01
3.751178773099543839e-01 7.261043403504601201e-01
3.761584262066197670e-01 6.998661235557435134e-01
3.771989751032851501e-01 7.012197902398717986e-01
3.782395239999505332e-01 6.726850491885834060e-01
3.792800728966159163e-01 6.447522910973191301e-01
3.803206217932812994e-01 7.236761161208384863e-01
3.813611706899466824e-01 6.244791060068486388e-01
3.824017195866120655e-01 6.587226537122639058e-01
3.834422684832774486e-01 5.875433850187050666e-01
3.844828173799428317e-01 7.324934299715053498e-01
3.855233662766082148e-01 6.316370698244568871e-01
3.865639151732735979e-01 4.150805581870393723e-01
3.876044640699389809e-01 4.451282434490551054e-01
3.886450129666043640e-01 5.294262706763817050e-01
3.896855618632697471e-01 5.361910222977037677e-01
3.907261107599351302e-01 5.393965203988138057e-01
3.917666596566005133e-01 5.158507147732720455e-01
3.928072085532658964e-01 4.294078068475144505e-01
3.938477574499312794e-01 4.719185172388158378e-01
3.948883063465966625e-01 4.531516551424203954e-01
3.959288552432620456e-01 5.424305770182229480e-01
3.969694041399274287e-01 4.400839559597429229e-01
3.980099530365928118e-01 2.980055400689494149e-01
3.990505019332581949e-01 3.379487792664725987e-01
4.000910508299235779e-01 2.704723183301034339e-01
4.011315997265889610e-01 3.111197168737795948e-01
4.021721486232543441e-01 3.266659088956700430e-01
4.032126975199197272e-01 2.566765229117287106e-01
4.042532464165851103e-01 1.664267017437559559e-01
4.052937953132504934e-01 2.750504626840566402e-01
4.063343442099158764e-01 3.940052213946181325e-01
4.073748931065812595e-01 2.967479069636311806e-01
4.084154420032466426e-01 3.048338469826461505e-01
4.094559908999120257e-01 3.924209649993564142e-01
4.104965397965774088e-01 4.345449760775323966e-01
4.115370886932427918e-01 2.616796323502192934e-01
4.125776375899081749e-01 2.406818481493893103e-01
4.136181864865735580e-01 3.411495606732053432e-01
4.146587353832389411e-01 3.510387944408535077e-01
4.156992842799043242e-01 3.136176102849823621e-01
4.167398331765697073e-01 2.682057964246205017e-01
4.177803820732350903e-01 3.292808065615204782e-01
4.188209309699004734e-01 4.919676045409140386e-01
4.198614798665658565e-01 5.271732395968200535e-01
4.209020287632312396e-01 4.748052475875645939e-01
4.219425776598966227e-01 4.485850158992974457e-01
4.229831265565620058e-01 3.416231447727930970e-01
4.240236754532273888e-01 2.641098462267059688e-01
4.250642243498927719e-01 3.235390994934341791e-01
4.261047732465581550e-01 2.164319029479457868e-01
4.271453221432235381e-01 2.953987611825681370e-01
4.281858710398889212e-01 2.688801119520967120e-01
4.292264199365543043e-01 2.429162435264906605e-01
4.302669688332196873e-01 4.223097849339971788e-01
4.313075177298850704e-01 3.656719127969765282e-01
4.323480666265504535e-01 4.740807039519410182e-01
4.333886155232158366e-01 4.561319424515843934e-01
4.344291644198812197e-01 4.991681400100276278e-01
