# q (1/Angstrom), Intensity (arb)
2.029070354705860696e-02 1.540636878588150694e+03
2.133125244372399004e-02 1.532594237094520395e+03
2.237180134038937659e-02 1.523954525373556407e+03
2.341235023705475968e-02 1.509016607523548146e+03
2.445289913372014276e-02 1.497531640582757973e+03
2.549344803038552584e-02 1.490927689663832780e+03
2.653399692705091240e-02 1.474727018648688500e+03
2.757454582371629548e-02 1.461131145474035748e+03
2.861509472038167856e-02 1.444554420012271748e+03
2.965564361704706164e-02 1.425561190178056222e+03
3.069619251371244473e-02 1.405366676656751679e+03
3.173674141037782781e-02 1.381774504367212558e+03
3.277729030704321089e-02 1.360564883619083275e+03
3.381783920370859398e-02 1.342303960763435498e+03
3.485838810037397706e-02 1.322912472030367098e+03
3.589893699703936014e-02 1.299419428795203203e+03
3.693948589370474322e-02 1.277291164031421658e+03
3.798003479037012631e-02 1.252990978943164464e+03
3.902058368703550939e-02 1.231317742777927378e+03
4.006113258370089247e-02 1.201858732465660978e+03
4.110168148036627556e-02 1.177428805965417496e+03
4.214223037703165864e-02 1.155141940544605632e+03
4.318277927369704866e-02 1.130739368717145680e+03
4.422332817036243174e-02 1.106479898387258800e+03
4.526387706702781483e-02 1.081477136578626414e+03
4.630442596369319791e-02 1.053240635111949587e+03
4.734497486035858099e-02 1.030077754495511044e+03
4.838552375702396408e-02 1.006043294542718286e+03
4.942607265368934716e-02 9.819163625949565812e+02
5.046662155035473024e-02 9.566684469606262837e+02
5.150717044702011332e-02 9.307725970897517982e+02
5.254771934368549641e-02 9.050082005739558326e+02
5.358826824035087949e-02 8.800076621355201496e+02
5.462881713701626257e-02 8.545253504984713118e+02
5.566936603368164566e-02 8.305593390149223296e+02
5.670991493034702874e-02 8.064420277476476713e+02
5.775046382701241182e-02 7.798192063968276670e+02
5.879101272367779490e-02 7.545030205747956416e+02
5.983156162034317799e-02 7.314956001816276512e+02
6.087211051700856107e-02 7.049142773917556042e+02
6.191265941367394415e-02 6.810220956410560120e+02
6.295320831033933417e-02 6.606455925119606718e+02
6.399375720700471726e-02 6.398200344820851342e+02
6.503430610367010034e-02 6.139164321969944922e+02
6.607485500033548342e-02 5.888394997752363906e+02
6.711540389700086651e-02 5.674598668935836940e+02
6.815595279366624959e-02 5.459762204496709046e+02
6.919650169033163267e-02 5.248591148763188130e+02
7.023705058699701576e-02 5.040571122219734548e+02
7.127759948366239884e-02 4.834436395317773645e+02
7.231814838032778192e-02 4.646920033293786219e+02
7.335869727699316500e-02 4.435875127017621935e+02
7.439924617365854809e-02 4.238873167842342582e+02
7.543979507032393117e-02 4.043533927073572158e+02
7.648034396698931425e-02 3.864178851725071695e+02
7.752089286365469734e-02 3.681524488048498256e+02
7.856144176032008042e-02 3.502870956380007783e+02
7.960199065698546350e-02 3.334920312827773046e+02
8.064253955365084658e-02 3.165758782859860503e+02
8.168308845031622967e-02 3.004386957511702576e+02
8.272363734698161275e-02 2.838879723277348148e+02
8.376418624364699583e-02 2.690664172436441390e+02
8.480473514031239279e-02 2.545225118504702664e+02
8.584528403697777588e-02 2.397870179507777948e+02
8.688583293364315896e-02 2.263420744418367008e+02
8.792638183030854204e-02 2.133848350933143649e+02
8.896693072697392513e-02 1.991245811922363487e+02
9.000747962363930821e-02 1.866995405673970083e+02
9.104802852030469129e-02 1.752627965546641633e+02
9.208857741697007437e-02 1.645148637509764740e+02
9.312912631363545746e-02 1.536518732597938310e+02
9.416967521030084054e-02 1.429704945900677160e+02
9.521022410696622362e-02 1.329122705354767504e+02
9.625077300363160671e-02 1.241349552416186128e+02
9.729132190029698979e-02 1.150456691277094308e+02
9.833187079696237287e-02 1.060716978134507826e+02
9.937241969362775595e-02 9.745037730297525513e+01
1.004129685902931390e-01 8.943470649128201444e+01
1.014535174869585221e-01 8.297102064456807113e+01
1.024940663836239052e-01 7.631404599754891649e+01
1.035346152802892883e-01 6.958958537453491999e+01
1.045751641769546714e-01 6.262092793824792381e+01
1.056157130736200545e-01 5.668155150104103512e+01
1.066562619702854375e-01 5.177359231429721831e+01
1.076968108669508206e-01 4.701111771543902762e+01
1.087373597636162037e-01 4.211635209718674133e+01
1.097779086602815868e-01 3.770930340412324000e+01
1.108184575569469699e-01 3.392062377107804139e+01
1.118590064536123529e-01 3.016952095813375223e+01
1.128995553502777360e-01 2.625197890585026528e+01
1.139401042469431191e-01 2.315908322148015230e+01
1.149806531436085022e-01 2.047388149716471162e+01
1.160212020402738853e-01 1.829451273273479472e+01
1.170617509369392684e-01 1.609376456203492722e+01
1.181022998336046514e-01 1.315784830998324395e+01
1.191428487302700345e-01 1.123340846407810290e+01
1.201833976269354176e-01 1.008459446415422178e+01
1.212239465236008007e-01 8.528531921794236581e+00
1.222644954202661838e-01 7.229598578541391873e+00
1.233050443169315669e-01 6.105849146395389226e+00
1.243455932135969499e-01 4.575188547272063033e+00
1.253861421102623330e-01 3.470844644827828063e+00
1.264266910069277161e-01 2.996934471216363249e+00
1.274672399035930992e-01 2.573527383817829417e+00
1.285077888002584823e-01 1.880029222644822084e+00
1.295483376969238654e-01 1.778915859611345240e+00
1.305888865935892484e-01 1.881373304892168363e+00
1.316294354902546315e-01 1.561098058186917825e+00
1.326699843869200146e-01 1.438155979020940833e+00
1.337105332835853977e-01 1.301229023754089553e+00
1.347510821802507808e-01 1.672021839729083581e+00
1.357916310769161639e-01 1.780001318920930942e+00
1.368321799735815469e-01 2.001908597029089520e+00
1.378727288702469300e-01 2.207802101286262086e+00
1.389132777669123131e-01 2.702535422053980341e+00
1.399538266635776962e-01 3.326159075975201773e+00
1.409943755602430793e-01 3.797374861692304648e+00
1.420349244569084624e-01 4.226120392818415894e+00
1.430754733535738454e-01 4.372015581178967381e+00
1.441160222502392285e-01 4.870086706751955319e+00
1.451565711469046116e-01 5.635243695669419850e+00
1.461971200435699947e-01 6.231854837191072249e+00
1.472376689402353778e-01 7.136345203538070336e+00
1.482782178369007609e-01 7.631069198499119466e+00
1.493187667335661439e-01 7.832422088942450955e+00
1.503593156302315270e-01 8.436983504152248514e+00
1.513998645268969101e-01 8.986442780987797363e+00
1.524404134235622932e-01 9.059344339907742238e+00
1.534809623202276763e-01 9.455737238290616631e+00
1.545215112168930593e-01 9.890184211693103578e+00
1.555620601135584424e-01 1.041503947739103708e+01
1.566026090102238255e-01 1.082474085170323619e+01
1.576431579068892086e-01 1.085086374001727449e+01
1.586837068035545917e-01 1.175102207143629940e+01
1.597242557002199748e-01 1.199237443946431725e+01
1.607648045968853578e-01 1.191505689517547495e+01
1.618053534935507409e-01 1.204683591257717268e+01
1.628459023902161240e-01 1.213817699759041702e+01
1.638864512868815071e-01 1.238474116848516005e+01
1.649270001835468902e-01 1.253376589383557160e+01
1.659675490802122733e-01 1.277995238359666175e+01
1.670080979768776563e-01 1.304605652926540316e+01
1.680486468735430672e-01 1.252339343119923853e+01
1.690891957702084503e-01 1.269042464509152879e+01
1.701297446668738333e-01 1.224395196750283077e+01
1.711702935635392164e-01 1.226363060776253278e+01
1.722108424602045995e-01 1.175342168505676099e+01
1.732513913568699826e-01 1.194743790209009049e+01
1.742919402535353657e-01 1.200989852038257766e+01
1.753324891502007488e-01 1.196915242412206126e+01
1.763730380468661318e-01 1.193384780844430537e+01
1.774135869435315149e-01 1.182094869895801637e+01
1.784541358401968980e-01 1.135026310262176708e+01
1.794946847368622811e-01 1.084274419570404646e+01
1.805352336335276642e-01 1.061456786239043382e+01
1.815757825301930473e-01 1.078019806909869871e+01
1.826163314268584303e-01 1.034277408683055555e+01
1.836568803235238134e-01 9.963588257818596361e+00
1.846974292201891965e-01 9.668413798881843491e+00
1.857379781168545796e-01 9.382457438068161792e+00
1.867785270135199627e-01 8.687969254063943936e+00
1.878190759101853458e-01 8.386465345317642317e+00
1.888596248068507288e-01 8.292173830124273337e+00
1.899001737035161119e-01 7.708617714996929493e+00
1.909407226001814950e-01 7.213512987581616187e+00
1.919812714968468781e-01 7.222969374496962303e+00
1.930218203935122612e-01 7.060710972118329209e+00
1.940623692901776443e-01 6.183435478382381945e+00
1.951029181868430273e-01 5.378622107649047024e+00
1.961434670835084104e-01 5.140198685736248052e+00
1.971840159801737935e-01 4.734395530741270619e+00
1.982245648768391766e-01 4.404881467046411814e+00
1.992651137735045597e-01 4.041840596337323177e+00
2.003056626701699428e-01 4.139852396373886023e+00
2.013462115668353813e-01 4.230692873273330434e+00
2.023867604635007644e-01 3.738503333673300233e+00
2.034273093601661475e-01 3.303920555803518511e+00
2.044678582568315306e-01 3.047730906378628646e+00
2.055084071534969137e-01 2.940558006353288789e+00
2.065489560501622968e-01 2.406757963165407688e+00
2.075895049468276798e-01 2.215670203110899905e+00
2.086300538434930629e-01 1.988217447845652686e+00
2.096706027401584460e-01 1.809969331620891353e+00
2.107111516368238291e-01 1.584680162464348285e+00
2.117517005334892122e-01 1.438703739571757012e+00
2.127922494301545953e-01 1.275817506474410834e+00
2.138327983268199783e-01 1.273992611820013110e+00
2.148733472234853614e-01 1.432747798127735450e+00
2.159138961201507445e-01 1.042096971516521364e+00
2.169544450168161276e-01 9.487663071345942001e-01
2.179949939134815107e-01 9.193918631182818046e-01
2.190355428101468938e-01 9.347426157496450116e-01
2.200760917068122768e-01 7.379723865254383952e-01
2.211166406034776599e-01 5.422477396812226402e-01
2.221571895001430430e-01 6.331863833162394428e-01
2.231977383968084261e-01 4.378731574523797576e-01
2.242382872934738092e-01 3.583021592564499258e-01
2.252788361901391923e-01 5.420763225985147926e-01
2.263193850868045753e-01 7.578092032844132575e-01
2.273599339834699584e-01 5.663786887686264038e-01
2.284004828801353415e-01 3.498739201600820081e-01
2.294410317768007246e-01 4.478005039559640466e-01
2.304815806734661077e-01 3.855214698824660502e-01
2.315221295701314908e-01 6.564713455557651400e-01
2.325626784667968738e-01 6.409372850959123014e-01
2.336032273634622569e-01 6.218733121007780085e-01
2.346437762601276400e-01 5.217256018219913472e-01
2.356843251567930231e-01 4.971819238783048434e-01
2.367248740534584062e-01 6.606004362262716256e-01
2.377654229501237892e-01 9.628688423974764987e-01
2.388059718467891723e-01 1.013271721158744754e+00
2.398465207434545554e-01 9.175941789761594691e-01
2.408870696401199385e-01 8.961129170831263480e-01
2.419276185367853216e-01 9.255336603844384058e-01
2.429681674334507047e-01 1.217408766987780666e+00
2.440087163301160877e-01 1.520467760340313390e+00
2.450492652267814708e-01 1.319141293412315008e+00
2.460898141234468539e-01 1.141683468905206666e+00
2.471303630201122370e-01 1.519987968372266351e+00
2.481709119167776201e-01 1.741692894462509855e+00
2.492114608134430032e-01 1.638383315587407907e+00
2.502520097101083585e-01 1.485787496530555529e+00
2.512925586067737416e-01 1.649356268284577709e+00
2.523331075034391247e-01 1.635932965776056847e+00
2.533736564001045077e-01 1.716085219027508657e+00
2.544142052967698908e-01 2.040704300755990630e+00
2.554547541934352739e-01 2.141855000328519054e+00
2.564953030901006570e-01 2.248487239271444338e+00
2.575358519867660401e-01 2.295043945348069769e+00
2.585764008834314231e-01 2.329635497652809306e+00
2.596169497800968062e-01 2.249407007618312804e+00
2.606574986767621893e-01 2.320767056114551252e+00
2.616980475734275724e-01 2.286612226312151108e+00
2.627385964700929555e-01 2.328777252570471745e+00
2.637791453667583386e-01 2.246562874455833025e+00
2.648196942634237216e-01 1.952976117033582426e+00
2.658602431600891047e-01 1.932688097464115629e+00
2.669007920567544878e-01 2.056475157335629689e+00
2.679413409534198709e-01 2.123799396855961419e+00
2.689818898500852540e-01 1.835515820375704266e+00
2.700224387467506371e-01 1.805533210101835095e+00
2.710629876434160201e-01 1.926762954404367179e+00
2.721035365400814032e-01 2.050838079133647796e+00
2.731440854367467863e-01 2.223478560709011731e+00
2.741846343334121694e-01 1.846590679313305117e+00
2.752251832300775525e-01 1.799333918303254620e+00
2.762657321267429356e-01 1.996512864907067808e+00
2.773062810234083186e-01 2.150009325208614541e+00
2.783468299200737017e-01 2.138867435387684424e+00
2.793873788167390848e-01 2.016198595890134726e+00
2.804279277134044679e-01 1.942244349475231502e+00
2.814684766100698510e-01 1.767350278107024053e+00
2.825090255067352341e-01 1.815777225364129777e+00
2.835495744034006171e-01 1.714000611280265929e+00
2.845901233000660002e-01 1.378764786068849446e+00
2.856306721967313833e-01 1.388377881357449439e+00
2.866712210933967664e-01 1.503518794315223062e+00
2.877117699900621495e-01 1.514041985402727164e+00
2.887523188867275326e-01 1.555280197300454859e+00
2.897928677833929156e-01 1.450581384576132393e+00
2.908334166800582987e-01 1.340018913616862761e+00
2.918739655767236818e-01 1.297386637583180402e+00
2.929145144733890649e-01 1.414290065948588193e+00
2.939550633700544480e-01 1.568455399807834993e+00
2.949956122667198311e-01 1.125803875227227024e+00
2.960361611633852141e-01 9.486331488063726169e-01
2.970767100600505972e-01 7.907265903219311554e-01
2.981172589567159803e-01 8.364828617169983715e-01
2.991578078533813634e-01 9.952112863762430095e-01
3.001983567500468020e-01 7.969426989895360691e-01
3.012389056467121851e-01 9.586650734119821493e-01
3.022794545433775681e-01 7.177342928891476959e-01
3.033200034400429512e-01 6.146111651733399128e-01
3.043605523367083343e-01 6.323751529982715169e-01
3.054011012333737174e-01 6.013023829128201214e-01
3.064416501300391005e-01 6.226224483056377323e-01
3.074821990267044836e-01 6.083350851231266176e-01
3.085227479233698666e-01 5.256577043463366294e-01
3.095632968200352497e-01 6.494502313162762164e-01
3.106038457167006328e-01 4.502208291407505669e-01
3.116443946133660159e-01 4.646132957329669466e-01
3.126849435100313990e-01 7.058562961229526422e-01
3.137254924066967821e-01 2.477187868355557043e-01
3.147660413033621651e-01 2.371231900130972292e-01
3.158065902000275482e-01 2.375232596175003152e-01
3.168471390966929313e-01 5.304522826126145674e-02
3.178876879933583144e-01 2.700466847325984077e-01
3.189282368900236975e-01 5.237296232741286417e-01
3.199687857866890806e-01 4.547206229882050366e-01
3.210093346833544636e-01 5.242894998275602347e-01
3.220498835800198467e-01 4.318218212732531924e-01
3.230904324766852298e-01 5.770229523825065598e-01
3.241309813733506129e-01 5.087863750267160867e-01
3.251715302700159960e-01 3.132768238601357780e-01
3.262120791666813790e-01 3.531458032151491011e-01
3.272526280633467621e-01 4.554462553911449163e-01
3.282931769600121452e-01 6.809897609700108490e-01
3.293337258566775283e-01 4.570957655487752902e-01
3.303742747533429114e-01 3.566868411917383241e-01
3.314148236500082945e-01 4.372202248305079308e-01
3.324553725466736775e-01 6.783006782265204038e-01
3.334959214433390606e-01 8.988557875817129172e-01
3.345364703400044437e-01 8.483430541001730774e-01
3.355770192366698268e-01 9.183808040536725059e-01
3.366175681333352099e-01 8.780411900692186578e-01
3.376581170300005930e-01 7.263083045433198492e-01
3.386986659266659760e-01 6.275964567408678363e-01
3.397392148233313591e-01 7.020963871695187208e-01
3.407797637199967422e-01 6.600683475689201885e-01
3.418203126166621253e-01 8.098777784747532849e-01
3.428608615133275084e-01 6.878841440254959139e-01
3.439014104099928915e-01 5.814981260310965183e-01
3.449419593066582745e-01 9.065703523136541264e-01
3.459825082033236576e-01 1.157250610246283173e+00
3.470230570999890407e-01 7.765589380630153471e-01
3.480636059966544238e-01 5.487814659236107673e-01
3.491041548933198069e-01 9.413319575486198687e-01
3.501447037899851900e-01 8.494365215457584384e-01
3.511852526866505730e-01 9.480170012905340116e-01
3.522258015833159561e-01 7.821571914256075786e-01
3.532663504799813392e-01 7.334246723254729261e-01
3.543068993766467223e-01 8.893649598994493033e-01
3.553474482733121054e-01 1.039324947341086158e+00
3.563879971699774885e-01 1.023596576093225963e+00
3.574285460666428715e-01 1.130154586901323199e+00
3.584690949633082546e-01 9.215319877909600166e-01
3.595096438599736377e-01 7.197330495572202835e-01
3.605501927566390208e-01 6.651946912785433597e-01
3.615907416533044039e-01 8.052896890680543152e-01
3.626312905499697870e-01 8.923207123525500606e-01
3.636718394466351700e-01 8.060694361189675305e-01
3.647123883433005531e-01 9.216467465951332372e-01
3.657529372399659362e-01 9.813002693685355382e-01
3.667934861366313193e-01 9.552711629603010124e-01
3.678340350332967024e-01 9.110666758466656745e-01
3.688745839299620854e-01 7.744301014471943745e-01
3.699151328266274685e-01 4.623679779318905503e-01
3.709556817232928516e-01 6.139477549310399240e-01
3.719962306199582347e-01 6.714452733428366571e-01
3.730367795166236178e-01 6.150670499370889388e-01
3.740773284132890009e-01 5.372571885823873572e-01
3.751178773099543839e-01 6.195407507203931630e-01
3.761584262066197670e-01 4.945829790191424991e-01
3.771989751032851501e-01 5.484708842488927871e-01
3.782395239999505332e-01 7.464146900798596107e-01
3.792800728966159163e-01 7.205066461980536019e-01
3.803206217932812994e-01 7.164652950143519661e-01
3.813611706899466824e-01 6.076877645354059609e-01
3.824017195866120655e-01 6.429239501444605764e-01
3.834422684832774486e-01 6.872125250142389064e-01
3.844828173799428317e-01 7.731366286903593732e-01
3.855233662766082148e-01 8.364495327480838682e-01
3.865639151732735979e-01 7.872338501104430009e-01
3.876044640699389809e-01 5.378101110492501391e-01
3.886450129666043640e-01 7.252261787313187824e-01
3.896855618632697471e-01 8.892045910428869604e-01
3.907261107599351302e-01 5.783436746392531802e-01
3.917666596566005133e-01 5.433414231034490172e-01
3.928072085532658964e-01 4.978284291857058008e-01
3.938477574499312794e-01 4.331512314786998274e-01
3.948883063465966625e-01 4.601399062930333628e-01
3.959288552432620456e-01 3.322968748839514319e-01
3.969694041399274287e-01 2.269057809164287676e-01
3.980099530365928118e-01 4.845253541962968313e-01
3.990505019332581949e-01 5.966367425814027570e-01
4.000910508299235779e-01 6.173304613016945552e-01
4.011315997265889610e-01 5.344491156343877947e-01
4.021721486232543441e-01 5.265957512242849248e-01
4.032126975199197272e-01 4.323130230987075606e-01
4.042532464165851103e-01 4.759886323760049720e-01
4.052937953132504934e-01 5.505115379457841129e-01
4.063343442099158764e-01 2.672607030488194368e-01
4.073748931065812595e-01 3.994393000935225757e-01
4.084154420032466426e-01 5.267624715433782967e-01
4.094559908999120257e-01 6.831443252426829815e-01
4.104965397965774088e-01 7.686573778351544206e-01
4.115370886932427918e-01 5.759855881195008465e-01
4.125776375899081749e-01 3.540759301207323517e-01
4.136181864865735580e-01 4.033521934279313825e-01
4.146587353832389411e-01 5.865510354206655563e-01
4.156992842799043242e-01 5.232004367216269713e-01
4.167398331765697073e-01 5.730927870705002647e-01
4.177803820732350903e-01 5.214473844854303763e-01
4.188209309699004734e-01 6.194499179722221527e-01
4.198614798665658565e-01 6.363745594066188005e-01
4.209020287632312396e-01 6.058023920961481679e-01
4.219425776598966227e-01 5.218223397109866823e-01
4.229831265565620058e-01 6.621872828551076395e-01
4.240236754532273888e-01 7.019946938841670203e-01
4.250642243498927719e-01 4.696019958484072276e-01
4.261047732465581550e-01 5.023647344943178439e-01
4.271453221432235381e-01 4.143706759051930533e-01
4.281858710398889212e-01 3.774426847571454857e-01
4.292264199365543043e-01 5.412222329514762009e-01
4.302669688332196873e-01 5.289789175660288834e-01
4.313075177298850704e-01 4.953459354477907084e-01
4.323480666265504535e-01 3.766615839229068285e-01
4.333886155232158366e-01 5.845764573864364877e-01
4.344291644198812197e-01 6.183011549822872155e-01
