# q (1/Angstrom), Intensity (arb)
2.029070354705860696e-02 2.661518549595766103e+02
2.133125244372399004e-02 2.648032891112369498e+02
2.237180134038937659e-02 2.630388867679726559e+02
2.341235023705475968e-02 2.590806992817136916e+02
2.445289913372014276e-02 2.584590558005899652e+02
2.549344803038552584e-02 2.562728904797994005e+02
2.653399692705091240e-02 2.532048151946410712e+02
2.757454582371629548e-02 2.533592914278194428e+02
2.861509472038167856e-02 2.504437977710324503e+02
2.965564361704706164e-02 2.481711956392394427e+02
3.069619251371244473e-02 2.455092098953307698e+02
3.173674141037782781e-02 2.421200765476229435e+02
3.277729030704321089e-02 2.404899086602250406e+02
3.381783920370859398e-02 2.375176477606254082e+02
3.485838810037397706e-02 2.316258019881675239e+02
3.589893699703936014e-02 2.279496189749828261e+02
3.693948589370474322e-02 2.259222659270010354e+02
3.798003479037012631e-02 2.223208549186671803e+02
3.902058368703550939e-02 2.182828633053453586e+02
4.006113258370089247e-02 2.137615208603476731e+02
4.110168148036627556e-02 2.090312445046860148e+02
4.214223037703165864e-02 2.057303525857713566e+02
4.318277927369704866e-02 2.014329080937244214e+02
4.422332817036243174e-02 1.988292508531008025e+02
4.526387706702781483e-02 1.939832598417642657e+02
4.630442596369319791e-02 1.899334541523527662e+02
4.734497486035858099e-02 1.848856866210368537e+02
4.838552375702396408e-02 1.807235815659312834e+02
4.942607265368934716e-02 1.763262508575899403e+02
5.046662155035473024e-02 1.732280895187067529e+02
5.150717044702011332e-02 1.702836483282146958e+02
5.254771934368549641e-02 1.651730797387150176e+02
5.358826824035087949e-02 1.598594546331297579e+02
5.462881713701626257e-02 1.559013235800870802e+02
5.566936603368164566e-02 1.524454512484005591e+02
5.670991493034702874e-02 1.494936375383263965e+02
5.775046382701241182e-02 1.451425315632047557e+02
5.879101272367779490e-02 1.403027429336294460e+02
5.983156162034317799e-02 1.369229726813279342e+02
6.087211051700856107e-02 1.335300191005472072e+02
6.191265941367394415e-02 1.299419722540339990e+02
6.295320831033933417e-02 1.250466675646188150e+02
6.399375720700471726e-02 1.221600807832973459e+02
6.503430610367010034e-02 1.174784056172875921e+02
6.607485500033548342e-02 1.124628553964980426e+02
6.711540389700086651e-02 1.082618591537203940e+02
6.815595279366624959e-02 1.060310438253597738e+02
6.919650169033163267e-02 1.026264047905502679e+02
7.023705058699701576e-02 9.963376456758837207e+01
7.127759948366239884e-02 9.647475199361831244e+01
7.231814838032778192e-02 9.360491935881908887e+01
7.335869727699316500e-02 9.077088650070351150e+01
7.439924617365854809e-02 8.808718030710194569e+01
7.543979507032393117e-02 8.551370043270765109e+01
7.648034396698931425e-02 8.237653568034514251e+01
7.752089286365469734e-02 8.048769150666842620e+01
7.856144176032008042e-02 8.085331957751849075e+01
7.960199065698546350e-02 8.463474932334720791e+01
8.064253955365084658e-02 9.738969507129374392e+01
8.168308845031622967e-02 1.724773802551796109e+02
8.272363734698161275e-02 4.162981564950325151e+02
8.376418624364699583e-02 5.608417194486473818e+02
8.480473514031239279e-02 3.584985136301368698e+02
8.584528403697777588e-02 2.140493344085286367e+02
8.688583293364315896e-02 2.884979424039788682e+02
8.792638183030854204e-02 5.662117634943905387e+02
8.896693072697392513e-02 6.369427793580529169e+02
9.000747962363930821e-02 3.601971137206364801e+02
9.104802852030469129e-02 2.346693496907851113e+02
9.208857741697007437e-02 3.129338737965820201e+02
9.312912631363545746e-02 6.107885379891562252e+02
9.416967521030084054e-02 9.690409505280337044e+02
9.521022410696622362e-02 8.136361521513866819e+02
9.625077300363160671e-02 3.721751269678945846e+02
9.729132190029698979e-02 1.615569325717718243e+02
9.833187079696237287e-02 9.583521886941902324e+01
9.937241969362775595e-02 6.702949943354947493e+01
1.004129685902931390e-01 5.471313978842059811e+01
1.014535174869585221e-01 5.214118078637322640e+01
1.024940663836239052e-01 4.699672777251230826e+01
1.035346152802892883e-01 3.515276568334886065e+01
1.045751641769546714e-01 2.698693256568818555e+01
1.056157130736200545e-01 2.267967523986663636e+01
1.066562619702854375e-01 1.958383990204121972e+01
1.076968108669508206e-01 1.735308005586940894e+01
1.087373597636162037e-01 1.520449360272005990e+01
1.097779086602815868e-01 1.351520296996752535e+01
1.108184575569469699e-01 1.248070709701141467e+01
1.118590064536123529e-01 1.105032939523794155e+01
1.128995553502777360e-01 9.933492208619703945e+00
1.139401042469431191e-01 9.079859652461003350e+00
1.149806531436085022e-01 8.219429479522933235e+00
1.160212020402738853e-01 7.753882259236949182e+00
1.170617509369392684e-01 7.613383044397352251e+00
1.181022998336046514e-01 7.012153724886232453e+00
1.191428487302700345e-01 6.774507897657862543e+00
1.201833976269354176e-01 7.657652623182791274e+00
1.212239465236008007e-01 7.769359030583032677e+00
1.222644954202661838e-01 6.604467101634615034e+00
1.233050443169315669e-01 4.962300218920447037e+00
1.243455932135969499e-01 3.705786452312384682e+00
1.253861421102623330e-01 2.600986241611568772e+00
1.264266910069277161e-01 2.239630835401481335e+00
1.274672399035930992e-01 2.110462075550969985e+00
1.285077888002584823e-01 1.713302141390688149e+00
1.295483376969238654e-01 1.545745564115705406e+00
1.305888865935892484e-01 1.700350399156157266e+00
1.316294354902546315e-01 1.588613064736584590e+00
1.326699843869200146e-01 1.155193904891380186e+00
1.337105332835853977e-01 1.278821240959846506e+00
1.347510821802507808e-01 1.628803873467468577e+00
1.357916310769161639e-01 1.288127629632896287e+00
1.368321799735815469e-01 1.183004500722560692e+00
1.378727288702469300e-01 1.222168143341530566e+00
1.389132777669123131e-01 1.434030840024881570e+00
1.399538266635776962e-01 1.588131414718702672e+00
1.409943755602430793e-01 1.885502368039134069e+00
1.420349244569084624e-01 2.722383593776019239e+00
1.430754733535738454e-01 6.425508970171119216e+00
1.441160222502392285e-01 1.380248791565465893e+01
1.451565711469046116e-01 1.313338618673692437e+01
1.461971200435699947e-01 5.776757392967237337e+00
1.472376689402353778e-01 3.095519882221978492e+00
1.482782178369007609e-01 2.837248680864096428e+00
1.493187667335661439e-01 2.923433143051916261e+00
1.503593156302315270e-01 3.400112870179590630e+00
1.513998645268969101e-01 3.511529668982888097e+00
1.524404134235622932e-01 4.412075446746303697e+00
1.534809623202276763e-01 5.679305612157008909e+00
1.545215112168930593e-01 8.427788128621980235e+00
1.555620601135584424e-01 1.423233947762031804e+01
1.566026090102238255e-01 2.088930972070068037e+01
1.576431579068892086e-01 1.964887873984100963e+01
1.586837068035545917e-01 1.258563875275019228e+01
1.597242557002199748e-01 7.956727283102580373e+00
1.607648045968853578e-01 5.845765561182716397e+00
1.618053534935507409e-01 5.307472297851681731e+00
1.628459023902161240e-01 5.227127741310003017e+00
1.638864512868815071e-01 5.128865281511302499e+00
1.649270001835468902e-01 5.790744249602084892e+00
1.659675490802122733e-01 8.938244863106497462e+00
1.670080979768776563e-01 1.427014616444181883e+01
1.680486468735430672e-01 2.727351215933736839e+01
1.690891957702084503e-01 5.496845540810421937e+01
1.701297446668738333e-01 5.191221252570188938e+01
1.711702935635392164e-01 3.074443359950831933e+01
1.722108424602045995e-01 3.205528445462879006e+01
1.732513913568699826e-01 2.960463127064968347e+01
1.742919402535353657e-01 1.590190120337539881e+01
1.753324891502007488e-01 9.555651083993936368e+00
1.763730380468661318e-01 1.072393485114991307e+01
1.774135869435315149e-01 1.135024614389072539e+01
1.784541358401968980e-01 7.456112917797664608e+00
1.794946847368622811e-01 4.552496557285429901e+00
1.805352336335276642e-01 3.953216126547566489e+00
1.815757825301930473e-01 3.649982664169346691e+00
1.826163314268584303e-01 3.397954644314587824e+00
1.836568803235238134e-01 3.409767189807222820e+00
1.846974292201891965e-01 3.681669404189115369e+00
1.857379781168545796e-01 3.650784447115292153e+00
1.867785270135199627e-01 4.076683253200592105e+00
1.878190759101853458e-01 5.100358346810050847e+00
1.888596248068507288e-01 5.594707195490986607e+00
1.899001737035161119e-01 5.077492628565213550e+00
1.909407226001814950e-01 3.963229433993763706e+00
1.919812714968468781e-01 3.442671480819033292e+00
1.930218203935122612e-01 3.130494180758866207e+00
1.940623692901776443e-01 2.842342034628192238e+00
1.951029181868430273e-01 2.785380955536261638e+00
1.961434670835084104e-01 3.097371689638432457e+00
1.971840159801737935e-01 2.911776826715232858e+00
1.982245648768391766e-01 2.617115544108077785e+00
1.992651137735045597e-01 1.995051631435156736e+00
2.003056626701699428e-01 1.845068330334719064e+00
2.013462115668353813e-01 1.664839422532235602e+00
2.023867604635007644e-01 1.273078095251371167e+00
2.034273093601661475e-01 1.172881912706191798e+00
2.044678582568315306e-01 1.101911705928667828e+00
2.055084071534969137e-01 1.001869818628893682e+00
2.065489560501622968e-01 1.170683767515395601e+00
2.075895049468276798e-01 1.013343374016091758e+00
2.086300538434930629e-01 9.003025625618121808e-01
2.096706027401584460e-01 1.128254762716611737e+00
2.107111516368238291e-01 1.108858155781685895e+00
2.117517005334892122e-01 1.176185391691305426e+00
2.127922494301545953e-01 1.454787341638738241e+00
2.138327983268199783e-01 1.488077251090654585e+00
2.148733472234853614e-01 7.781323876664707484e-01
2.159138961201507445e-01 5.219629182467393491e-01
2.169544450168161276e-01 5.512692049169167774e-01
2.179949939134815107e-01 4.036531011290129811e-01
2.190355428101468938e-01 4.212050910933520242e-01
2.200760917068122768e-01 4.853409602851499471e-01
2.211166406034776599e-01 3.495533824754950558e-01
2.221571895001430430e-01 4.047506761223402805e-01
2.231977383968084261e-01 2.548326017356181694e-01
2.242382872934738092e-01 4.406168483053889418e-01
2.252788361901391923e-01 4.904418579668288203e-01
2.263193850868045753e-01 3.938332845514480596e-01
2.273599339834699584e-01 5.745140550627212406e-01
2.284004828801353415e-01 5.742955756854435379e-01
2.294410317768007246e-01 7.614233900216333950e-01
2.304815806734661077e-01 5.462557493895623395e-01
2.315221295701314908e-01 4.355856411850709264e-01
2.325626784667968738e-01 3.089699232465363821e-01
2.336032273634622569e-01 2.255164349713290051e-01
2.346437762601276400e-01 3.201919551562397714e-01
2.356843251567930231e-01 4.602869474420394624e-01
2.367248740534584062e-01 7.360714971442021692e-01
2.377654229501237892e-01 8.606584203612648309e-01
2.388059718467891723e-01 6.902437926705253801e-01
2.398465207434545554e-01 5.690531219813976804e-01
2.408870696401199385e-01 5.575684761878640927e-01
2.419276185367853216e-01 7.578259392877129130e-01
2.429681674334507047e-01 8.085863263977444149e-01
2.440087163301160877e-01 7.247336924451488471e-01
2.450492652267814708e-01 6.248544637279245251e-01
2.460898141234468539e-01 8.516626668364750685e-01
2.471303630201122370e-01 6.170739028685723326e-01
2.481709119167776201e-01 8.486490068750462967e-01
2.492114608134430032e-01 1.218571794922628015e+00
2.502520097101083585e-01 1.695243697327072141e+00
2.512925586067737416e-01 1.449070314007027349e+00
2.523331075034391247e-01 9.278460324068120713e-01
2.533736564001045077e-01 7.709235268679641706e-01
2.544142052967698908e-01 9.496412021001567894e-01
2.554547541934352739e-01 1.378466451406790583e+00
2.564953030901006570e-01 2.165082711329045395e+00
2.575358519867660401e-01 2.994864816718223466e+00
2.585764008834314231e-01 2.517401024300216505e+00
2.596169497800968062e-01 1.561526528242897172e+00
2.606574986767621893e-01 1.173757811905232984e+00
2.616980475734275724e-01 9.657212684791005586e-01
2.627385964700929555e-01 1.035307849327317342e+00
2.637791453667583386e-01 1.704612163383675494e+00
2.648196942634237216e-01 3.508499944477513566e+00
2.658602431600891047e-01 4.259374526153216323e+00
2.669007920567544878e-01 2.649643967066438677e+00
2.679413409534198709e-01 1.290842698630882524e+00
2.689818898500852540e-01 7.623692128833639003e-01
2.700224387467506371e-01 7.687964199496768458e-01
2.710629876434160201e-01 8.449283843215198431e-01
2.721035365400814032e-01 9.421482415804867117e-01
2.731440854367467863e-01 9.315733137006674269e-01
2.741846343334121694e-01 9.212385013013815183e-01
2.752251832300775525e-01 1.174727266731903086e+00
2.762657321267429356e-01 1.533762821479125904e+00
2.773062810234083186e-01 1.728621335391331115e+00
2.783468299200737017e-01 1.475009701268863438e+00
2.793873788167390848e-01 9.987365542676798214e-01
2.804279277134044679e-01 8.452239219181869601e-01
2.814684766100698510e-01 8.601568720247456667e-01
2.825090255067352341e-01 9.739943868665505988e-01
2.835495744034006171e-01 9.887527740640429386e-01
2.845901233000660002e-01 8.314615613376545866e-01
2.856306721967313833e-01 7.183181080006342256e-01
2.866712210933967664e-01 7.865872755311151820e-01
2.877117699900621495e-01 1.038518546367104278e+00
2.887523188867275326e-01 1.162313788929811409e+00
2.897928677833929156e-01 1.134186104395965344e+00
2.908334166800582987e-01 6.330962746625949933e-01
2.918739655767236818e-01 4.338226022237883228e-01
2.929145144733890649e-01 6.097695371430837952e-01
2.939550633700544480e-01 5.463164202472583497e-01
2.949956122667198311e-01 3.900463331439780745e-01
2.960361611633852141e-01 2.836756512667584218e-01
2.970767100600505972e-01 4.406864034285611353e-01
2.981172589567159803e-01 4.551223289611243672e-01
2.991578078533813634e-01 5.051577555529931374e-01
3.001983567500468020e-01 5.815511195666935862e-01
3.012389056467121851e-01 8.028761110236359855e-01
3.022794545433775681e-01 1.077183665494580111e+00
3.033200034400429512e-01 1.261775921462550798e+00
3.043605523367083343e-01 1.161287640522385090e+00
3.054011012333737174e-01 7.629183117348787846e-01
3.064416501300391005e-01 4.742699674526207332e-01
3.074821990267044836e-01 5.040510483855769053e-01
3.085227479233698666e-01 3.504291271019148724e-01
3.095632968200352497e-01 2.935264228983420765e-01
3.106038457167006328e-01 3.910981046943646788e-01
3.116443946133660159e-01 2.501959624380702962e-01
3.126849435100313990e-01 3.170241993739146835e-01
3.137254924066967821e-01 4.837147442327740521e-01
3.147660413033621651e-01 5.354961764024608328e-01
3.158065902000275482e-01 3.881561187706203953e-01
3.168471390966929313e-01 3.851248060637892934e-01
3.178876879933583144e-01 2.591768476958229428e-01
3.189282368900236975e-01 6.482783028338801046e-02
3.199687857866890806e-01 1.755672486445227776e-01
3.210093346833544636e-01 1.563421732724492585e-01
3.220498835800198467e-01 1.396811214096551623e-01
3.230904324766852298e-01 1.610172901600215312e-01
3.241309813733506129e-01 2.001947987244818705e-01
3.251715302700159960e-01 1.980467709538018539e-01
3.262120791666813790e-01 6.504667884789938626e-02
3.272526280633467621e-01 1.910655342108498189e-01
3.282931769600121452e-01 3.239979736700853152e-01
3.293337258566775283e-01 4.464961685944430769e-01
3.303742747533429114e-01 2.630925341347492008e-01
3.314148236500082945e-01 1.362273449877697828e-01
3.324553725466736775e-01 1.554845058960836468e-01
3.334959214433390606e-01 1.939252523254815230e-01
3.345364703400044437e-01 1.423914019144874032e-01
3.355770192366698268e-01 2.716565702623867651e-01
3.366175681333352099e-01 5.141354871125081161e-01
3.376581170300005930e-01 4.780741745866379233e-01
3.386986659266659760e-01 4.112318295887966713e-01
3.397392148233313591e-01 4.441123034734673070e-01
3.407797637199967422e-01 3.363157833879029113e-01
3.418203126166621253e-01 2.720820632051257348e-01
3.428608615133275084e-01 1.043234770718690640e-01
3.439014104099928915e-01 3.434781337373173926e-01
3.449419593066582745e-01 4.914266337021615527e-01
3.459825082033236576e-01 4.009080307244730079e-01
3.470230570999890407e-01 2.972355064505300959e-01
3.480636059966544238e-01 2.373388969869978382e-01
3.491041548933198069e-01 3.678639513841446274e-01
3.501447037899851900e-01 3.401689012132891321e-01
3.511852526866505730e-01 3.359524893571794735e-01
3.522258015833159561e-01 3.564787205300881112e-01
3.532663504799813392e-01 4.660128361995319324e-01
3.543068993766467223e-01 4.004323187419487340e-01
3.553474482733121054e-01 4.204798063484496140e-01
3.563879971699774885e-01 3.194173264236681575e-01
3.574285460666428715e-01 4.708085662380270264e-01
3.584690949633082546e-01 4.147006566493196544e-01
3.595096438599736377e-01 4.076278010529996720e-01
3.605501927566390208e-01 3.923509891154779439e-01
3.615907416533044039e-01 4.070730845965471190e-01
3.626312905499697870e-01 4.691774473703915760e-01
3.636718394466351700e-01 6.639966509004402440e-01
3.647123883433005531e-01 8.931357139686220137e-01
3.657529372399659362e-01 1.038682345856496880e+00
3.667934861366313193e-01 9.024303454933892965e-01
3.678340350332967024e-01 7.039246735321604831e-01
3.688745839299620854e-01 7.299539562458363662e-01
3.699151328266274685e-01 6.268228526637855680e-01
3.709556817232928516e-01 5.309624717642549285e-01
3.719962306199582347e-01 4.319572396035020745e-01
3.730367795166236178e-01 5.347822621600144544e-01
3.740773284132890009e-01 7.061632127708001860e-01
3.751178773099543839e-01 5.967623615686150629e-01
3.761584262066197670e-01 5.931203969520062458e-01
3.771989751032851501e-01 6.143975306838136419e-01
3.782395239999505332e-01 5.889653904392275763e-01
3.792800728966159163e-01 5.422121942331976641e-01
3.803206217932812994e-01 5.402816950164819332e-01
3.813611706899466824e-01 6.461379539349216827e-01
3.824017195866120655e-01 6.230552000809090885e-01
3.834422684832774486e-01 4.780987825205933461e-01
3.844828173799428317e-01 5.306688414465732251e-01
3.855233662766082148e-01 5.566002318394893678e-01
3.865639151732735979e-01 3.852353933785899187e-01
3.876044640699389809e-01 3.259775873420167613e-01
3.886450129666043640e-01 2.920900826892882662e-01
3.896855618632697471e-01 3.119827147880513962e-01
3.907261107599351302e-01 2.815153350625401174e-01
3.917666596566005133e-01 4.402687277469752303e-01
3.928072085532658964e-01 4.912363466595159878e-01
3.938477574499312794e-01 3.923582809613996858e-01
3.948883063465966625e-01 2.163406369035101307e-01
3.959288552432620456e-01 1.397027190925648199e-01
3.969694041399274287e-01 2.913746854265646391e-01
3.980099530365928118e-01 2.461655007595417999e-01
3.990505019332581949e-01 2.323828471339339785e-01
4.000910508299235779e-01 2.116688836061761947e-01
4.011315997265889610e-01 1.468945667217589346e-01
4.021721486232543441e-01 3.067774754108043567e-01
4.032126975199197272e-01 2.025826311955256642e-01
4.042532464165851103e-01 2.387468037447604274e-01
4.052937953132504934e-01 3.320638311406227672e-01
4.063343442099158764e-01 3.179612057138605508e-01
4.073748931065812595e-01 3.481121674800000676e-01
4.084154420032466426e-01 1.802978324528830001e-01
4.094559908999120257e-01 2.792855865668641968e-01
4.104965397965774088e-01 2.368122447249589868e-01
4.115370886932427918e-01 2.584657413728734809e-01
4.125776375899081749e-01 2.911388839723976218e-01
4.136181864865735580e-01 2.834287728898274850e-01
4.146587353832389411e-01 1.665924314758484570e-01
4.156992842799043242e-01 2.991100810309887947e-02
4.167398331765697073e-01 1.222406657622876480e-01
4.177803820732350903e-01 1.878799844280152342e-01
4.188209309699004734e-01 1.852928644166986771e-01
4.198614798665658565e-01 2.190350804785268224e-01
4.209020287632312396e-01 3.246295136832237915e-01
4.219425776598966227e-01 3.250116961159825735e-01
4.229831265565620058e-01 3.436687555851953846e-01
4.240236754532273888e-01 2.736574586216882210e-01
4.250642243498927719e-01 2.268242300400622469e-01
4.261047732465581550e-01 4.644066457966005146e-01
4.271453221432235381e-01 2.736134451273599666e-01
4.281858710398889212e-01 6.468089764563345057e-02
4.292264199365543043e-01 1.295211150255610733e-01
4.302669688332196873e-01 3.501719465398771547e-01
4.313075177298850704e-01 2.952878710033957077e-01
4.323480666265504535e-01 2.867344829155697994e-01
4.333886155232158366e-01 2.493151032955829294e-01
4.344291644198812197e-01 2.204294530288066767e-01
