# q (1/Angstrom), Intensity (arb)
2.029070354705860696e-02 1.573328431484856083e+03
2.133125244372399004e-02 1.564613873029879869e+03
2.237180134038937659e-02 1.555710063181096757e+03
2.341235023705475968e-02 1.543849577798550172e+03
2.445289913372014276e-02 1.531839243546634179e+03
2.549344803038552584e-02 1.513875747289990386e+03
2.653399692705091240e-02 1.493054914398843721e+03
2.757454582371629548e-02 1.478228267148250325e+03
2.861509472038167856e-02 1.462683398538280926e+03
2.965564361704706164e-02 1.444266397802850179e+03
3.069619251371244473e-02 1.428959361685411523e+03
3.173674141037782781e-02 1.406543477932402084e+03
3.277729030704321089e-02 1.385242356389659108e+03
3.381783920370859398e-02 1.364419682636561220e+03
3.485838810037397706e-02 1.342200022163370932e+03
3.589893699703936014e-02 1.321109646930246754e+03
3.693948589370474322e-02 1.296114674600779608e+03
3.798003479037012631e-02 1.267793310321518675e+03
3.902058368703550939e-02 1.250009890494705360e+03
4.006113258370089247e-02 1.225038760395296094e+03
4.110168148036627556e-02 1.197964573330031044e+03
4.214223037703165864e-02 1.172823958037460670e+03
4.318277927369704866e-02 1.150749249597400194e+03
4.422332817036243174e-02 1.126740400022413723e+03
4.526387706702781483e-02 1.101414965330570112e+03
4.630442596369319791e-02 1.070806454174777627e+03
4.734497486035858099e-02 1.045396367854464188e+03
4.838552375702396408e-02 1.022971634049856561e+03
4.942607265368934716e-02 1.001870501918693776e+03
5.046662155035473024e-02 9.745359185820512948e+02
5.150717044702011332e-02 9.475000702445215666e+02
5.254771934368549641e-02 9.233716811392249610e+02
5.358826824035087949e-02 8.988281565814736496e+02
5.462881713701626257e-02 8.706249617464452513e+02
5.566936603368164566e-02 8.432352514805313604e+02
5.670991493034702874e-02 8.224945415520853658e+02
5.775046382701241182e-02 7.978635681800741395e+02
5.879101272367779490e-02 7.705034564443820955e+02
5.983156162034317799e-02 7.467841861979137548e+02
6.087211051700856107e-02 7.220782089267780748e+02
6.191265941367394415e-02 7.011465648391967989e+02
6.295320831033933417e-02 6.740957465254230101e+02
6.399375720700471726e-02 6.495234144891110191e+02
6.503430610367010034e-02 6.275551231958486369e+02
6.607485500033548342e-02 6.055448233712367028e+02
6.711540389700086651e-02 5.820301414323099607e+02
6.815595279366624959e-02 5.617337596011818732e+02
6.919650169033163267e-02 5.389638960004524506e+02
7.023705058699701576e-02 5.155261526570054684e+02
7.127759948366239884e-02 4.962992396199481391e+02
7.231814838032778192e-02 4.790219247759424661e+02
7.335869727699316500e-02 4.571660627524316851e+02
7.439924617365854809e-02 4.362592078379058194e+02
7.543979507032393117e-02 4.163794943279331733e+02
7.648034396698931425e-02 3.992241944455624321e+02
7.752089286365469734e-02 3.806350531927574821e+02
7.856144176032008042e-02 3.629881543883201402e+02
7.960199065698546350e-02 3.465267381588461717e+02
8.064253955365084658e-02 3.311570011351080325e+02
8.168308845031622967e-02 3.202938896615249860e+02
8.272363734698161275e-02 3.239913555491369266e+02
8.376418624364699583e-02 3.198326842011712188e+02
8.480473514031239279e-02 2.911353188426437555e+02
8.584528403697777588e-02 2.673065590695210858e+02
8.688583293364315896e-02 2.619477557550381448e+02
8.792638183030854204e-02 2.754371148763283372e+02
8.896693072697392513e-02 2.648480401890727194e+02
9.000747962363930821e-02 2.257678140003489489e+02
9.104802852030469129e-02 2.039237219745554626e+02
9.208857741697007437e-02 1.995232150620927882e+02
9.312912631363545746e-02 2.085363275783217887e+02
9.416967521030084054e-02 2.152932989323665538e+02
9.521022410696622362e-02 1.912455829958933577e+02
9.625077300363160671e-02 1.555453737815266209e+02
9.729132190029698979e-02 1.330927122322229366e+02
9.833187079696237287e-02 1.190568152462487745e+02
9.937241969362775595e-02 1.079109904036595680e+02
1.004129685902931390e-01 9.949394060329200329e+01
1.014535174869585221e-01 9.171993708050386829e+01
1.024940663836239052e-01 8.348893792849540318e+01
1.035346152802892883e-01 7.483677352556469486e+01
1.045751641769546714e-01 6.824654800713699387e+01
1.056157130736200545e-01 6.236388157834963408e+01
1.066562619702854375e-01 5.581868711711921094e+01
1.076968108669508206e-01 5.057568853718404256e+01
1.087373597636162037e-01 4.580095030467676054e+01
1.097779086602815868e-01 4.075810954615414516e+01
1.108184575569469699e-01 3.661953015549669743e+01
1.118590064536123529e-01 3.261262745725476009e+01
1.128995553502777360e-01 2.886110755391019467e+01
1.139401042469431191e-01 2.603953595101654628e+01
1.149806531436085022e-01 2.281569072861038805e+01
1.160212020402738853e-01 1.949684524429584087e+01
1.170617509369392684e-01 1.735580908489759011e+01
1.181022998336046514e-01 1.545874376066465317e+01
1.191428487302700345e-01 1.323673703652298528e+01
1.201833976269354176e-01 1.151960049856250734e+01
1.212239465236008007e-01 9.891821279817129664e+00
1.222644954202661838e-01 8.073951897333710548e+00
1.233050443169315669e-01 6.532743053128097444e+00
1.243455932135969499e-01 5.503013407691526027e+00
1.253861421102623330e-01 4.563334999229752498e+00
1.264266910069277161e-01 3.657860183417604105e+00
1.274672399035930992e-01 2.814356285582924500e+00
1.285077888002584823e-01 2.055227154323624461e+00
1.295483376969238654e-01 2.218746723795856468e+00
1.305888865935892484e-01 2.067989116251794712e+00
1.316294354902546315e-01 1.684303898735219462e+00
1.326699843869200146e-01 1.401043808641833976e+00
1.337105332835853977e-01 1.540229427052960176e+00
1.347510821802507808e-01 1.871498894576820504e+00
1.357916310769161639e-01 2.185820600937898206e+00
1.368321799735815469e-01 2.008782009388841772e+00
1.378727288702469300e-01 2.339486435191581393e+00
1.389132777669123131e-01 2.827090844806008363e+00
1.399538266635776962e-01 2.993378857806828108e+00
1.409943755602430793e-01 3.831271345859509125e+00
1.420349244569084624e-01 4.301130528523831487e+00
1.430754733535738454e-01 5.212973013761924790e+00
1.441160222502392285e-01 6.659306513609084988e+00
1.451565711469046116e-01 7.157725014587043688e+00
1.461971200435699947e-01 6.692297897660811401e+00
1.472376689402353778e-01 6.856711956119301732e+00
1.482782178369007609e-01 7.067761506777081593e+00
1.493187667335661439e-01 7.528473530650813927e+00
1.503593156302315270e-01 8.348596772550802569e+00
1.513998645268969101e-01 9.336141430036935418e+00
1.524404134235622932e-01 9.840800298014389824e+00
1.534809623202276763e-01 1.010526668631047542e+01
1.545215112168930593e-01 1.072069226473080406e+01
1.555620601135584424e-01 1.144269321282223117e+01
1.566026090102238255e-01 1.237117193077853727e+01
1.576431579068892086e-01 1.258549581872822642e+01
1.586837068035545917e-01 1.219390651627580979e+01
1.597242557002199748e-01 1.211658414795778782e+01
1.607648045968853578e-01 1.242863123813861748e+01
1.618053534935507409e-01 1.272360109921375226e+01
1.628459023902161240e-01 1.297974546556705633e+01
1.638864512868815071e-01 1.328694350865202622e+01
1.649270001835468902e-01 1.312031380980602080e+01
1.659675490802122733e-01 1.327265079133774606e+01
1.670080979768776563e-01 1.398352846940508698e+01
1.680486468735430672e-01 1.582559744357683229e+01
1.690891957702084503e-01 1.800644652323076045e+01
1.701297446668738333e-01 1.694871697722935622e+01
1.711702935635392164e-01 1.522731903880192661e+01
1.722108424602045995e-01 1.527383815536662226e+01
1.732513913568699826e-01 1.487596457058672428e+01
1.742919402535353657e-01 1.371973534856370946e+01
1.753324891502007488e-01 1.332603515051436460e+01
1.763730380468661318e-01 1.317736675952314940e+01
1.774135869435315149e-01 1.287570732065055168e+01
1.784541358401968980e-01 1.214141836564272836e+01
1.794946847368622811e-01 1.168904721886359610e+01
1.805352336335276642e-01 1.127060223407728046e+01
1.815757825301930473e-01 1.124960571364456641e+01
1.826163314268584303e-01 1.093399064387902087e+01
1.836568803235238134e-01 1.026721391903691583e+01
1.846974292201891965e-01 9.870227987201058539e+00
1.857379781168545796e-01 9.516645462189561755e+00
1.867785270135199627e-01 9.144824976723679555e+00
1.878190759101853458e-01 8.998946601077523866e+00
1.888596248068507288e-01 9.099193021843952067e+00
1.899001737035161119e-01 8.688942605054243984e+00
1.909407226001814950e-01 8.156590935956558042e+00
1.919812714968468781e-01 7.893166772623249727e+00
1.930218203935122612e-01 7.523035587833337701e+00
1.940623692901776443e-01 7.011823594047154273e+00
1.951029181868430273e-01 6.852264852851426724e+00
1.961434670835084104e-01 6.594015752175941714e+00
1.971840159801737935e-01 6.087453766529307586e+00
1.982245648768391766e-01 5.781190054812686441e+00
1.992651137735045597e-01 5.200374161413833463e+00
2.003056626701699428e-01 4.383819904449271831e+00
2.013462115668353813e-01 4.072028314968420659e+00
2.023867604635007644e-01 3.788772606301488821e+00
2.034273093601661475e-01 3.862598808923948468e+00
2.044678582568315306e-01 3.707923923777322273e+00
2.055084071534969137e-01 3.331971529532733456e+00
2.065489560501622968e-01 3.125912647179134751e+00
2.075895049468276798e-01 3.054295943857209039e+00
2.086300538434930629e-01 2.403831240441263617e+00
2.096706027401584460e-01 2.114711695127166280e+00
2.107111516368238291e-01 2.171702610902229935e+00
2.117517005334892122e-01 1.948066331900456305e+00
2.127922494301545953e-01 1.889904017172295170e+00
2.138327983268199783e-01 1.647589792887316662e+00
2.148733472234853614e-01 1.245158469742420948e+00
2.159138961201507445e-01 1.294214723895485974e+00
2.169544450168161276e-01 1.140315583294270851e+00
2.179949939134815107e-01 1.018420018031569896e+00
2.190355428101468938e-01 9.901040639147389300e-01
2.200760917068122768e-01 8.113577414675781085e-01
2.211166406034776599e-01 7.954049519556924963e-01
2.221571895001430430e-01 6.858659174687780080e-01
2.231977383968084261e-01 7.887835043094391096e-01
2.242382872934738092e-01 8.030383731766832511e-01
2.252788361901391923e-01 6.432432269685541826e-01
2.263193850868045753e-01 7.316943622046956364e-01
2.273599339834699584e-01 5.275565112312321503e-01
2.284004828801353415e-01 4.540636017432611027e-01
2.294410317768007246e-01 3.669546357939559300e-01
2.304815806734661077e-01 4.865964567659446516e-01
2.315221295701314908e-01 6.558303231870432626e-01
2.325626784667968738e-01 6.197372030854850777e-01
2.336032273634622569e-01 5.277778024626726960e-01
2.346437762601276400e-01 5.586444411164741553e-01
2.356843251567930231e-01 7.280352576095410200e-01
2.367248740534584062e-01 9.524386796029595814e-01
2.377654229501237892e-01 7.327566528844897675e-01
2.388059718467891723e-01 7.661269963506178726e-01
2.398465207434545554e-01 9.552281000757005813e-01
2.408870696401199385e-01 1.081663811953806231e+00
2.419276185367853216e-01 1.124616209109657206e+00
2.429681674334507047e-01 1.394911442890876430e+00
2.440087163301160877e-01 1.405518216520203367e+00
2.450492652267814708e-01 1.363463260729382398e+00
2.460898141234468539e-01 1.347514183897089879e+00
2.471303630201122370e-01 1.495541503451750742e+00
2.481709119167776201e-01 1.470656889590884475e+00
2.492114608134430032e-01 1.462841029459010400e+00
2.502520097101083585e-01 1.652533556110618918e+00
2.512925586067737416e-01 1.828609476056016092e+00
2.523331075034391247e-01 1.781853524080901252e+00
2.533736564001045077e-01 2.036922536253669591e+00
2.544142052967698908e-01 2.080167633147425477e+00
2.554547541934352739e-01 2.102903230653005551e+00
2.564953030901006570e-01 2.040695492069204420e+00
2.575358519867660401e-01 2.349593476482692012e+00
2.585764008834314231e-01 2.353950063671284454e+00
2.596169497800968062e-01 2.335011925020292978e+00
2.606574986767621893e-01 2.122347633087290575e+00
2.616980475734275724e-01 1.923176138633451160e+00
2.627385964700929555e-01 2.191135595232307054e+00
2.637791453667583386e-01 2.698430851368765815e+00
2.648196942634237216e-01 2.708293704453069495e+00
2.658602431600891047e-01 2.501434072545688281e+00
2.669007920567544878e-01 2.367057418417054748e+00
2.679413409534198709e-01 2.365991310916118806e+00
2.689818898500852540e-01 2.214958630422962926e+00
2.700224387467506371e-01 2.231564288474409352e+00
2.710629876434160201e-01 2.036351965987257984e+00
2.721035365400814032e-01 2.057066862976320465e+00
2.731440854367467863e-01 2.041611015896837245e+00
2.741846343334121694e-01 2.164010535605395802e+00
2.752251832300775525e-01 2.186412224314985053e+00
2.762657321267429356e-01 2.016943748172870698e+00
2.773062810234083186e-01 1.905111564445473249e+00
2.783468299200737017e-01 2.052389968514713559e+00
2.793873788167390848e-01 1.783081412193006088e+00
2.804279277134044679e-01 1.614824759790980835e+00
2.814684766100698510e-01 1.537842129773316913e+00
2.825090255067352341e-01 1.692837036724316846e+00
2.835495744034006171e-01 1.665196439144285279e+00
2.845901233000660002e-01 1.748716390042414304e+00
2.856306721967313833e-01 1.563916153192671743e+00
2.866712210933967664e-01 1.512808041695894445e+00
2.877117699900621495e-01 1.568979093585898710e+00
2.887523188867275326e-01 1.167233777425455088e+00
2.897928677833929156e-01 1.287002155618981902e+00
2.908334166800582987e-01 1.289499621775672011e+00
2.918739655767236818e-01 1.375267078273356702e+00
2.929145144733890649e-01 1.367879788545881325e+00
2.939550633700544480e-01 1.030126428191241672e+00
2.949956122667198311e-01 1.060457237543868558e+00
2.960361611633852141e-01 1.106567236540310972e+00
2.970767100600505972e-01 9.997119943715659929e-01
2.981172589567159803e-01 9.424705238258788143e-01
2.991578078533813634e-01 1.093600785051691560e+00
3.001983567500468020e-01 9.960327385733869221e-01
3.012389056467121851e-01 1.098216383913502625e+00
3.022794545433775681e-01 1.034199236993810445e+00
3.033200034400429512e-01 8.699801831937072905e-01
3.043605523367083343e-01 6.947783530059936652e-01
3.054011012333737174e-01 5.841650067774679655e-01
3.064416501300391005e-01 6.644952222616460347e-01
3.074821990267044836e-01 4.835252818961421895e-01
3.085227479233698666e-01 3.906617162980303704e-01
3.095632968200352497e-01 4.549286788357100875e-01
3.106038457167006328e-01 5.327470755390102397e-01
3.116443946133660159e-01 3.704546651782933964e-01
3.126849435100313990e-01 3.059627414400196699e-01
3.137254924066967821e-01 3.998986309067333877e-01
3.147660413033621651e-01 3.479409556005350623e-01
3.158065902000275482e-01 3.267810925124834398e-01
3.168471390966929313e-01 3.712017046508329088e-01
3.178876879933583144e-01 3.198533247882124897e-01
3.189282368900236975e-01 2.247508335465298046e-01
3.199687857866890806e-01 2.665371632165864924e-01
3.210093346833544636e-01 3.427842429817218317e-01
3.220498835800198467e-01 1.261170084466449737e-01
3.230904324766852298e-01 3.464060921227591905e-01
3.241309813733506129e-01 3.776814701664434892e-01
3.251715302700159960e-01 2.097268890259336160e-01
3.262120791666813790e-01 1.525220995910707700e-01
3.272526280633467621e-01 1.329707588054525047e-01
3.282931769600121452e-01 8.566699000186162039e-02
3.293337258566775283e-01 3.574993553747987107e-01
3.303742747533429114e-01 5.077429993293343102e-01
3.314148236500082945e-01 7.064228030253332236e-01
3.324553725466736775e-01 7.087019427689398299e-01
3.334959214433390606e-01 3.410867404118214097e-01
3.345364703400044437e-01 6.468248038225716812e-01
3.355770192366698268e-01 6.298562664615801054e-01
3.366175681333352099e-01 5.240318829489964969e-01
3.376581170300005930e-01 4.183257772588220291e-01
3.386986659266659760e-01 3.750569637899374698e-01
3.397392148233313591e-01 6.378506544293927050e-01
3.407797637199967422e-01 7.505415151917524952e-01
3.418203126166621253e-01 7.177404995861671466e-01
3.428608615133275084e-01 6.879521732657387645e-01
3.439014104099928915e-01 5.612042509302668236e-01
3.449419593066582745e-01 6.559255297179120703e-01
3.459825082033236576e-01 6.242083205176633953e-01
3.470230570999890407e-01 7.894420891149138697e-01
3.480636059966544238e-01 9.712395706312690891e-01
3.491041548933198069e-01 8.089905921959683610e-01
3.501447037899851900e-01 5.920559034573464885e-01
3.511852526866505730e-01 6.221402532909792171e-01
3.522258015833159561e-01 5.755577320359819282e-01
3.532663504799813392e-01 6.996893697789126065e-01
3.543068993766467223e-01 7.070117142888925343e-01
3.553474482733121054e-01 4.640303167647026328e-01
3.563879971699774885e-01 7.451992518792387443e-01
3.574285460666428715e-01 9.168206646905652235e-01
3.584690949633082546e-01 8.421216457187838955e-01
3.595096438599736377e-01 7.087427232708201075e-01
3.605501927566390208e-01 7.329969148431878523e-01
3.615907416533044039e-01 7.788627171849711317e-01
3.626312905499697870e-01 9.949101156636288579e-01
3.636718394466351700e-01 9.322175292881063058e-01
3.647123883433005531e-01 8.735373755381772298e-01
3.657529372399659362e-01 8.904822237393865692e-01
3.667934861366313193e-01 8.680807342947041150e-01
3.678340350332967024e-01 7.214729965279218504e-01
3.688745839299620854e-01 6.111147222380708399e-01
3.699151328266274685e-01 7.331804278599385327e-01
3.709556817232928516e-01 7.151688650805851921e-01
3.719962306199582347e-01 5.910847919204904599e-01
3.730367795166236178e-01 7.439053488729499009e-01
3.740773284132890009e-01 5.361933485483625361e-01
3.751178773099543839e-01 5.516192608136343267e-01
3.761584262066197670e-01 5.927335498399344260e-01
3.771989751032851501e-01 7.206427279293698973e-01
3.782395239999505332e-01 6.241808914147739529e-01
3.792800728966159163e-01 6.037242928628536731e-01
3.803206217932812994e-01 7.340900911155934239e-01
3.813611706899466824e-01 7.219603553456828138e-01
3.824017195866120655e-01 7.969265161969971700e-01
3.834422684832774486e-01 6.743031554468394972e-01
3.844828173799428317e-01 4.941304839543434468e-01
3.855233662766082148e-01 3.446367788347224348e-01
3.865639151732735979e-01 4.954867449642570421e-01
3.876044640699389809e-01 5.870424421284496930e-01
3.886450129666043640e-01 4.642429066255431280e-01
3.896855618632697471e-01 4.846070732951837101e-01
3.907261107599351302e-01 6.124036355535658060e-01
3.917666596566005133e-01 5.643155059867090984e-01
3.928072085532658964e-01 4.357542783386030294e-01
3.938477574499312794e-01 4.523311660781423882e-01
3.948883063465966625e-01 4.846075849551318981e-01
3.959288552432620456e-01 3.814029229109259234e-01
3.969694041399274287e-01 3.769918810455834546e-01
3.980099530365928118e-01 4.752774391208198779e-01
3.990505019332581949e-01 4.433013618809731327e-01
4.000910508299235779e-01 3.847833594248655231e-01
4.011315997265889610e-01 3.211158928091535358e-01
4.021721486232543441e-01 4.237771190313495140e-01
4.032126975199197272e-01 4.649430395480180778e-01
4.042532464165851103e-01 3.296358654470594729e-01
4.052937953132504934e-01 4.181965577537489764e-01
4.063343442099158764e-01 4.303676166702246064e-01
4.073748931065812595e-01 3.929029436433246758e-01
4.084154420032466426e-01 3.334828710523858319e-01
4.094559908999120257e-01 3.471142940196365601e-01
4.104965397965774088e-01 2.579453040355694782e-01
4.115370886932427918e-01 1.686053082087433097e-01
4.125776375899081749e-01 4.353442483146459097e-01
4.136181864865735580e-01 4.972559206392794806e-01
4.146587353832389411e-01 3.774202226399374638e-01
4.156992842799043242e-01 3.840291942132481040e-01
4.167398331765697073e-01 3.817243168025008515e-01
4.177803820732350903e-01 4.549737560155939775e-01
4.188209309699004734e-01 6.037285453671366042e-01
4.198614798665658565e-01 6.362925291410697071e-01
4.209020287632312396e-01 4.905913509344834722e-01
4.219425776598966227e-01 3.257398819816437197e-01
4.229831265565620058e-01 2.563204266940779519e-01
4.240236754532273888e-01 3.101579560801326352e-01
4.250642243498927719e-01 3.368127290277094232e-01
4.261047732465581550e-01 4.140072500817666423e-01
4.271453221432235381e-01 4.732727811358508063e-01
4.281858710398889212e-01 5.338604728424805046e-01
4.292264199365543043e-01 5.483824540559609773e-01
4.302669688332196873e-01 4.321127057421563222e-01
4.313075177298850704e-01 5.523287018092233325e-01
4.323480666265504535e-01 4.826840139050467826e-01
4.333886155232158366e-01 4.230545594539449894e-01
4.344291644198812197e-01 3.507309010287578133e-01
