# q (1/Angstrom), Intensity (arb)
2.029070354705860696e-02 1.644496255238669619e+03
2.133125244372399004e-02 1.643359190226164401e+03
2.237180134038937659e-02 1.639272774709125088e+03
2.341235023705475968e-02 1.621304430958945659e+03
2.445289913372014276e-02 1.607109566066334537e+03
2.549344803038552584e-02 1.600670737028974145e+03
2.653399692705091240e-02 1.577238295253520846e+03
2.757454582371629548e-02 1.554718007959262422e+03
2.861509472038167856e-02 1.538983864182815751e+03
2.965564361704706164e-02 1.522772179142265259e+03
3.069619251371244473e-02 1.503188169763754559e+03
3.173674141037782781e-02 1.481138369694566336e+03
3.277729030704321089e-02 1.458665633180860368e+03
3.381783920370859398e-02 1.430917030334805531e+03
3.485838810037397706e-02 1.409024663072670592e+03
3.589893699703936014e-02 1.391617472890453428e+03
3.693948589370474322e-02 1.368327317647361042e+03
3.798003479037012631e-02 1.343660322110413745e+03
3.902058368703550939e-02 1.317397500214588945e+03
4.006113258370089247e-02 1.289074144238202734e+03
4.110168148036627556e-02 1.264939011447422445e+03
4.214223037703165864e-02 1.238874775288808223e+03
4.318277927369704866e-02 1.213140505891496559e+03
4.422332817036243174e-02 1.180499655996339925e+03
4.526387706702781483e-02 1.155093642436848995e+03
4.630442596369319791e-02 1.129331921495170718e+03
4.734497486035858099e-02 1.104153556998574231e+03
4.838552375702396408e-02 1.080509698625605552e+03
4.942607265368934716e-02 1.049852879343523000e+03
5.046662155035473024e-02 1.024815503343723549e+03
5.150717044702011332e-02 1.002195961560305705e+03
5.254771934368549641e-02 9.737357600340453700e+02
5.358826824035087949e-02 9.464797755578815668e+02
5.462881713701626257e-02 9.183344691269468285e+02
5.566936603368164566e-02 8.939380832759461555e+02
5.670991493034702874e-02 8.649129226705375686e+02
5.775046382701241182e-02 8.379473699993169475e+02
5.879101272367779490e-02 8.115913548525871875e+02
5.983156162034317799e-02 7.854173616096607020e+02
6.087211051700856107e-02 7.622268146440642340e+02
6.191265941367394415e-02 7.367500438666969558e+02
6.295320831033933417e-02 7.129302165828157740e+02
6.399375720700471726e-02 6.869003915990315363e+02
6.503430610367010034e-02 6.620592839975540755e+02
6.607485500033548342e-02 6.396262307261529259e+02
6.711540389700086651e-02 6.149611756980909831e+02
6.815595279366624959e-02 5.897622322747732824e+02
6.919650169033163267e-02 5.666418376249714584e+02
7.023705058699701576e-02 5.449763968727129395e+02
7.127759948366239884e-02 5.233543761263669012e+02
7.231814838032778192e-02 5.023015289912819412e+02
7.335869727699316500e-02 4.804136537982488449e+02
7.439924617365854809e-02 4.604717955458208394e+02
7.543979507032393117e-02 4.391583806806150392e+02
7.648034396698931425e-02 4.184370811326860462e+02
7.752089286365469734e-02 3.989361316606631931e+02
7.856144176032008042e-02 3.791325984897829926e+02
7.960199065698546350e-02 3.603959103150899068e+02
8.064253955365084658e-02 3.430071564481428368e+02
8.168308845031622967e-02 3.244336595057886825e+02
8.272363734698161275e-02 3.088271150590422849e+02
8.376418624364699583e-02 2.923976986342170221e+02
8.480473514031239279e-02 2.767546712025939541e+02
8.584528403697777588e-02 2.604129766920486304e+02
8.688583293364315896e-02 2.458738781448885504e+02
8.792638183030854204e-02 2.329753741505224411e+02
8.896693072697392513e-02 2.181497224372278652e+02
9.000747962363930821e-02 2.044249549005285758e+02
9.104802852030469129e-02 1.925024194868926202e+02
9.208857741697007437e-02 1.800981399973865962e+02
9.312912631363545746e-02 1.673359761864641655e+02
9.416967521030084054e-02 1.569537895269922387e+02
9.521022410696622362e-02 1.469653331350807264e+02
9.625077300363160671e-02 1.364289462630756589e+02
9.729132190029698979e-02 1.254775162796814243e+02
9.833187079696237287e-02 1.168942568151173163e+02
9.937241969362775595e-02 1.080017215414178224e+02
1.004129685902931390e-01 9.955888913629993908e+01
1.014535174869585221e-01 9.123524386289420818e+01
1.024940663836239052e-01 8.411296490073846144e+01
1.035346152802892883e-01 7.702300435557965841e+01
1.045751641769546714e-01 6.980122801329098081e+01
1.056157130736200545e-01 6.348255956854661974e+01
1.066562619702854375e-01 5.733301207753480355e+01
1.076968108669508206e-01 5.163901065353536524e+01
1.087373597636162037e-01 4.654738958393026849e+01
1.097779086602815868e-01 4.203600600052809000e+01
1.108184575569469699e-01 3.719877568130939949e+01
1.118590064536123529e-01 3.337606608394918339e+01
1.128995553502777360e-01 2.990297226542108788e+01
1.139401042469431191e-01 2.607979843357076888e+01
1.149806531436085022e-01 2.259084226248095462e+01
1.160212020402738853e-01 1.977916402306790644e+01
1.170617509369392684e-01 1.726156272987977047e+01
1.181022998336046514e-01 1.488134632183568939e+01
1.191428487302700345e-01 1.309888428640874736e+01
1.201833976269354176e-01 1.108255857245189802e+01
1.212239465236008007e-01 9.412568392135167272e+00
1.222644954202661838e-01 7.839695096325787205e+00
1.233050443169315669e-01 6.627049707424959024e+00
1.243455932135969499e-01 5.447585205615506965e+00
1.253861421102623330e-01 4.383864400318362442e+00
1.264266910069277161e-01 3.472364123189716878e+00
1.274672399035930992e-01 2.947437244670098266e+00
1.285077888002584823e-01 2.257627200978923554e+00
1.295483376969238654e-01 1.653275420141842034e+00
1.305888865935892484e-01 1.989999774829577461e+00
1.316294354902546315e-01 1.664352921186761591e+00
1.326699843869200146e-01 1.553796988874971419e+00
1.337105332835853977e-01 1.796804525500210303e+00
1.347510821802507808e-01 1.982447897151541127e+00
1.357916310769161639e-01 2.212894687039113961e+00
1.368321799735815469e-01 2.181233827432375705e+00
1.378727288702469300e-01 2.641266103792908382e+00
1.389132777669123131e-01 3.072986337332764606e+00
1.399538266635776962e-01 3.280623451049585526e+00
1.409943755602430793e-01 3.837135835840957299e+00
1.420349244569084624e-01 4.519308092759224849e+00
1.430754733535738454e-01 4.838454228644675226e+00
1.441160222502392285e-01 5.601678201495452925e+00
1.451565711469046116e-01 5.943517993893216556e+00
1.461971200435699947e-01 6.632859486732748167e+00
1.472376689402353778e-01 7.248485435478041694e+00
1.482782178369007609e-01 7.652028517593425505e+00
1.493187667335661439e-01 8.192690789023700404e+00
1.503593156302315270e-01 8.727241614256406876e+00
1.513998645268969101e-01 9.618777611353774404e+00
1.524404134235622932e-01 9.950652732005398349e+00
1.534809623202276763e-01 1.060168195515706913e+01
1.545215112168930593e-01 1.076253172995208729e+01
1.555620601135584424e-01 1.086148564436729558e+01
1.566026090102238255e-01 1.145200499692514740e+01
1.576431579068892086e-01 1.181944380132590311e+01
1.586837068035545917e-01 1.208390993501835098e+01
1.597242557002199748e-01 1.229765202861589657e+01
1.607648045968853578e-01 1.237996300607036204e+01
1.618053534935507409e-01 1.268768644732244866e+01
1.628459023902161240e-01 1.263484474287244197e+01
1.638864512868815071e-01 1.307015985671669966e+01
1.649270001835468902e-01 1.348353674881726860e+01
1.659675490802122733e-01 1.336290025980458651e+01
1.670080979768776563e-01 1.326877497359931368e+01
1.680486468735430672e-01 1.352450487650941113e+01
1.690891957702084503e-01 1.405861717971349378e+01
1.701297446668738333e-01 1.358993255021380619e+01
1.711702935635392164e-01 1.336816122510376204e+01
1.722108424602045995e-01 1.323519837406919208e+01
1.732513913568699826e-01 1.330757842930183088e+01
1.742919402535353657e-01 1.321095857041105859e+01
1.753324891502007488e-01 1.285757025919475538e+01
1.763730380468661318e-01 1.240063701346054614e+01
1.774135869435315149e-01 1.200817173086873524e+01
1.784541358401968980e-01 1.205725748324136504e+01
1.794946847368622811e-01 1.167321724603450761e+01
1.805352336335276642e-01 1.153281419506147287e+01
1.815757825301930473e-01 1.149259384672443929e+01
1.826163314268584303e-01 1.154479972254248210e+01
1.836568803235238134e-01 1.080509225203291024e+01
1.846974292201891965e-01 1.036689459851914208e+01
1.857379781168545796e-01 1.030722575773446437e+01
1.867785270135199627e-01 9.728173920307455091e+00
1.878190759101853458e-01 9.513415240573284137e+00
1.888596248068507288e-01 9.146890582099128864e+00
1.899001737035161119e-01 8.619831554607650048e+00
1.909407226001814950e-01 8.107126901952849352e+00
1.919812714968468781e-01 7.513625099833440402e+00
1.930218203935122612e-01 7.262703707790493013e+00
1.940623692901776443e-01 7.284944614477289804e+00
1.951029181868430273e-01 7.134520047471660575e+00
1.961434670835084104e-01 6.113553191809263154e+00
1.971840159801737935e-01 5.649664430077699251e+00
1.982245648768391766e-01 5.632892400237999198e+00
1.992651137735045597e-01 5.262220986475025342e+00
2.003056626701699428e-01 4.882958257238307453e+00
2.013462115668353813e-01 4.548896448768410039e+00
2.023867604635007644e-01 4.292502377552480652e+00
2.034273093601661475e-01 4.067716315682325501e+00
2.044678582568315306e-01 3.620731808670772267e+00
2.055084071534969137e-01 3.430485695703058724e+00
2.065489560501622968e-01 3.112305849304934924e+00
2.075895049468276798e-01 2.792199995846946337e+00
2.086300538434930629e-01 2.798719089477852862e+00
2.096706027401584460e-01 2.629629157266844430e+00
2.107111516368238291e-01 2.504011643234200335e+00
2.117517005334892122e-01 2.278728597580990112e+00
2.127922494301545953e-01 1.858853773347700411e+00
2.138327983268199783e-01 1.469485632946913256e+00
2.148733472234853614e-01 1.506704364649905870e+00
2.159138961201507445e-01 1.451076957754906971e+00
2.169544450168161276e-01 1.265360588212967485e+00
2.179949939134815107e-01 9.378372165962858276e-01
2.190355428101468938e-01 7.257971592933678551e-01
2.200760917068122768e-01 8.455574671393506492e-01
2.211166406034776599e-01 9.593604002278688370e-01
2.221571895001430430e-01 7.638690992542116476e-01
2.231977383968084261e-01 6.552634603737317320e-01
2.242382872934738092e-01 5.857537162191697178e-01
2.252788361901391923e-01 3.683592917215214868e-01
2.263193850868045753e-01 4.240655066399590112e-01
2.273599339834699584e-01 4.322031007925559720e-01
2.284004828801353415e-01 2.814192054205619797e-01
2.294410317768007246e-01 3.954577734642974463e-01
2.304815806734661077e-01 7.249551299843517427e-01
2.315221295701314908e-01 8.459254573190442272e-01
2.325626784667968738e-01 8.622201519677759052e-01
2.336032273634622569e-01 7.005809191578187267e-01
2.346437762601276400e-01 8.052670058811450815e-01
2.356843251567930231e-01 7.381394713031284027e-01
2.367248740534584062e-01 7.027406687585155964e-01
2.377654229501237892e-01 6.529591077186580605e-01
2.388059718467891723e-01 9.339010019993274625e-01
2.398465207434545554e-01 1.048379642915033827e+00
2.408870696401199385e-01 1.041504736046888979e+00
2.419276185367853216e-01 1.035300430055912102e+00
2.429681674334507047e-01 1.154266269130832967e+00
2.440087163301160877e-01 1.443309354073470274e+00
2.450492652267814708e-01 1.464451495701418082e+00
2.460898141234468539e-01 1.587279519776405579e+00
2.471303630201122370e-01 1.436258850045636137e+00
2.481709119167776201e-01 1.545389193589933541e+00
2.492114608134430032e-01 1.431269507456846668e+00
2.502520097101083585e-01 1.686455367750014034e+00
2.512925586067737416e-01 1.866550598983433673e+00
2.523331075034391247e-01 1.815775172342025456e+00
2.533736564001045077e-01 1.687901642873729458e+00
2.544142052967698908e-01 1.917494424692609556e+00
2.554547541934352739e-01 2.212085910983539350e+00
2.564953030901006570e-01 2.269184974687039613e+00
2.575358519867660401e-01 2.308188118300783742e+00
2.585764008834314231e-01 2.443182201235515549e+00
2.596169497800968062e-01 2.175111407369996641e+00
2.606574986767621893e-01 2.203954000761388698e+00
2.616980475734275724e-01 2.350917483777102746e+00
2.627385964700929555e-01 2.440111550318057709e+00
2.637791453667583386e-01 2.184500826504820026e+00
2.648196942634237216e-01 2.302302256938425273e+00
2.658602431600891047e-01 2.346164987352761244e+00
2.669007920567544878e-01 2.424973401481569368e+00
2.679413409534198709e-01 2.474176339033760996e+00
2.689818898500852540e-01 2.337670814760521409e+00
2.700224387467506371e-01 2.067589934289500775e+00
2.710629876434160201e-01 2.031721946021114888e+00
2.721035365400814032e-01 2.206112958611452513e+00
2.731440854367467863e-01 2.081679066898939112e+00
2.741846343334121694e-01 1.977347744984221833e+00
2.752251832300775525e-01 1.900602831765343836e+00
2.762657321267429356e-01 1.936055024091235310e+00
2.773062810234083186e-01 1.979199643470156644e+00
2.783468299200737017e-01 1.829569476724270061e+00
2.793873788167390848e-01 1.763637917076177786e+00
2.804279277134044679e-01 1.742156289080437404e+00
2.814684766100698510e-01 1.792247887875713985e+00
2.825090255067352341e-01 1.957845072894830452e+00
2.835495744034006171e-01 1.766481148812061974e+00
2.845901233000660002e-01 1.530517181529418735e+00
2.856306721967313833e-01 1.510287680399517996e+00
2.866712210933967664e-01 1.687534746080881831e+00
2.877117699900621495e-01 1.880139136123439414e+00
2.887523188867275326e-01 1.545267789821650695e+00
2.897928677833929156e-01 1.407028089462372122e+00
2.908334166800582987e-01 1.128111882462015103e+00
2.918739655767236818e-01 1.444803342432042115e+00
2.929145144733890649e-01 1.308982151179694853e+00
2.939550633700544480e-01 1.364885823816269550e+00
2.949956122667198311e-01 1.301201823597750717e+00
2.960361611633852141e-01 1.145762730373355964e+00
2.970767100600505972e-01 1.139922493326199771e+00
2.981172589567159803e-01 1.035091308235951857e+00
2.991578078533813634e-01 9.758606467571340204e-01
3.001983567500468020e-01 8.965922911438291010e-01
3.012389056467121851e-01 9.662437331350091085e-01
3.022794545433775681e-01 8.247139979548983035e-01
3.033200034400429512e-01 7.324925405478168727e-01
3.043605523367083343e-01 4.307090155067143655e-01
3.054011012333737174e-01 5.704422990932300763e-01
3.064416501300391005e-01 5.887757243259450490e-01
3.074821990267044836e-01 6.905735527716707622e-01
3.085227479233698666e-01 4.373373060102672127e-01
3.095632968200352497e-01 3.691166024485426078e-01
3.106038457167006328e-01 3.496189646216123492e-01
3.116443946133660159e-01 3.192146299290925526e-01
3.126849435100313990e-01 3.594633921338044047e-01
3.137254924066967821e-01 2.676076657251371671e-01
3.147660413033621651e-01 3.299975828240313547e-01
3.158065902000275482e-01 3.368204914357804114e-01
3.168471390966929313e-01 2.771243525890128012e-01
3.178876879933583144e-01 5.085032294481450776e-01
3.189282368900236975e-01 4.844342524588718391e-01
3.199687857866890806e-01 5.889772267207078471e-01
3.210093346833544636e-01 5.239956068499118658e-01
3.220498835800198467e-01 3.589701526983652968e-01
3.230904324766852298e-01 4.942056063908175645e-01
3.241309813733506129e-01 6.169245152610436378e-01
3.251715302700159960e-01 5.677847685980133008e-01
3.262120791666813790e-01 4.089221529024236190e-01
3.272526280633467621e-01 3.892552042127519485e-01
3.282931769600121452e-01 3.545191411861416952e-01
3.293337258566775283e-01 4.505751587888795484e-01
3.303742747533429114e-01 4.559691134825705205e-01
3.314148236500082945e-01 3.449783959881997930e-01
3.324553725466736775e-01 4.805640813428588842e-01
3.334959214433390606e-01 5.005877491436834248e-01
3.345364703400044437e-01 5.675208275934231494e-01
3.355770192366698268e-01 4.396314597150343673e-01
3.366175681333352099e-01 4.954411683994557336e-01
3.376581170300005930e-01 7.161351223008480815e-01
3.386986659266659760e-01 6.268585252470657565e-01
3.397392148233313591e-01 7.040953880263494113e-01
3.407797637199967422e-01 9.129083243328821595e-01
3.418203126166621253e-01 6.987704171257718144e-01
3.428608615133275084e-01 7.052895594399153367e-01
3.439014104099928915e-01 7.293951016074693428e-01
3.449419593066582745e-01 5.798687507405411168e-01
3.459825082033236576e-01 5.947740804953873806e-01
3.470230570999890407e-01 7.787524891414818740e-01
3.480636059966544238e-01 1.088417760676815504e+00
3.491041548933198069e-01 9.562423251397476065e-01
3.501447037899851900e-01 9.619776854785548892e-01
3.511852526866505730e-01 9.822231940782124582e-01
3.522258015833159561e-01 6.332474450492675544e-01
3.532663504799813392e-01 8.921566839705192820e-01
3.543068993766467223e-01 9.428725202204759626e-01
3.553474482733121054e-01 7.637173488696404888e-01
3.563879971699774885e-01 9.222364418698312249e-01
3.574285460666428715e-01 1.116466638951294499e+00
3.584690949633082546e-01 9.184179647090751075e-01
3.595096438599736377e-01 8.820062728613109471e-01
3.605501927566390208e-01 8.918989111396768976e-01
3.615907416533044039e-01 7.754622592246356305e-01
3.626312905499697870e-01 6.041737203350905361e-01
3.636718394466351700e-01 6.964162294576254908e-01
3.647123883433005531e-01 5.307798985107154977e-01
3.657529372399659362e-01 5.815235380597663095e-01
3.667934861366313193e-01 7.191394239922175302e-01
3.678340350332967024e-01 7.546451742044837374e-01
3.688745839299620854e-01 8.232895779336892872e-01
3.699151328266274685e-01 8.857766749470030732e-01
3.709556817232928516e-01 7.582857579878741205e-01
3.719962306199582347e-01 6.939846671917599963e-01
3.730367795166236178e-01 7.396898133496527805e-01
3.740773284132890009e-01 7.581544313465755636e-01
3.751178773099543839e-01 7.014499414132089328e-01
3.761584262066197670e-01 6.694444792991554039e-01
3.771989751032851501e-01 7.235558963755970296e-01
3.782395239999505332e-01 7.954936026389383130e-01
3.792800728966159163e-01 7.110787096591124623e-01
3.803206217932812994e-01 7.612210088377793227e-01
3.813611706899466824e-01 7.062203742202974865e-01
3.824017195866120655e-01 4.673290815001287513e-01
3.834422684832774486e-01 5.341570833622739656e-01
3.844828173799428317e-01 5.987502815939897971e-01
3.855233662766082148e-01 5.810643878070749224e-01
3.865639151732735979e-01 4.782943650257500678e-01
3.876044640699389809e-01 6.099860029459165389e-01
3.886450129666043640e-01 5.121326144043898410e-01
3.896855618632697471e-01 4.299626007184329524e-01
3.907261107599351302e-01 5.916616893187480741e-01
3.917666596566005133e-01 4.888617856713537435e-01
3.928072085532658964e-01 3.705163777461457641e-01
3.938477574499312794e-01 3.988093394162071093e-01
3.948883063465966625e-01 4.113942612622523143e-01
3.959288552432620456e-01 4.757887960000992678e-01
3.969694041399274287e-01 5.179488423644222905e-01
3.980099530365928118e-01 3.656025993093869886e-01
3.990505019332581949e-01 3.867164219389849222e-01
4.000910508299235779e-01 4.621339939977957556e-01
4.011315997265889610e-01 3.650155152261120861e-01
4.021721486232543441e-01 3.181801135971475958e-01
4.032126975199197272e-01 2.775751332140750094e-01
4.042532464165851103e-01 4.472460905432100731e-01
4.052937953132504934e-01 2.684776975950811106e-01
4.063343442099158764e-01 2.520644598006782644e-01
4.073748931065812595e-01 4.472768345020519121e-01
4.084154420032466426e-01 3.229347897501853026e-01
4.094559908999120257e-01 2.017445637968116046e-01
4.104965397965774088e-01 2.807185224232782161e-01
4.115370886932427918e-01 3.461925632473814574e-01
4.125776375899081749e-01 3.789496478711669170e-01
4.136181864865735580e-01 3.151926871374683969e-01
4.146587353832389411e-01 2.415406446579346778e-01
4.156992842799043242e-01 3.903278863978201230e-01
4.167398331765697073e-01 4.438442966331130890e-01
4.177803820732350903e-01 4.019912390481756859e-01
4.188209309699004734e-01 2.592119031076300928e-01
4.198614798665658565e-01 1.823391368008735469e-01
4.209020287632312396e-01 4.007409541392803476e-01
4.219425776598966227e-01 3.033265408270153785e-01
4.229831265565620058e-01 3.543157700735513060e-01
4.240236754532273888e-01 4.014018006324384658e-01
4.250642243498927719e-01 3.189473650418754858e-01
4.261047732465581550e-01 2.443685713564214268e-01
4.271453221432235381e-01 2.310825166033332323e-01
4.281858710398889212e-01 3.674686280269838790e-01
4.292264199365543043e-01 3.266910733461649841e-01
4.302669688332196873e-01 5.017910394033648913e-01
4.313075177298850704e-01 4.201918573152632064e-01
4.323480666265504535e-01 4.613730108912541539e-01
4.333886155232158366e-01 6.010041684380453830e-01
4.344291644198812197e-01 4.279694874252086834e-01
