# q (1/Angstrom), Intensity (arb)
2.029070354705860696e-02 1.664265982024091272e+03
2.133125244372399004e-02 1.652452443911457522e+03
2.237180134038937659e-02 1.640715781018345524e+03
2.341235023705475968e-02 1.621965959246565262e+03
2.445289913372014276e-02 1.607127530399588522e+03
2.549344803038552584e-02 1.599538248025136909e+03
2.653399692705091240e-02 1.581254300603762886e+03
2.757454582371629548e-02 1.564494196406145875e+03
2.861509472038167856e-02 1.546784160359763746e+03
2.965564361704706164e-02 1.528173874634321010e+03
3.069619251371244473e-02 1.503453463197068686e+03
3.173674141037782781e-02 1.480496074624985113e+03
3.277729030704321089e-02 1.462803603039978725e+03
3.381783920370859398e-02 1.440053630910584616e+03
3.485838810037397706e-02 1.413740169666318025e+03
3.589893699703936014e-02 1.392106407568436907e+03
3.693948589370474322e-02 1.365155790510985980e+03
3.798003479037012631e-02 1.343169439861121646e+03
3.902058368703550939e-02 1.317024944495651425e+03
4.006113258370089247e-02 1.288960165025940341e+03
4.110168148036627556e-02 1.261924580388400045e+03
4.214223037703165864e-02 1.239279784558801566e+03
4.318277927369704866e-02 1.214577550171076382e+03
4.422332817036243174e-02 1.189913448399000572e+03
4.526387706702781483e-02 1.162459796456986851e+03
4.630442596369319791e-02 1.134086731662363491e+03
4.734497486035858099e-02 1.105680006329924481e+03
4.838552375702396408e-02 1.083452075528087789e+03
4.942607265368934716e-02 1.057131394074217724e+03
5.046662155035473024e-02 1.029876548671613591e+03
5.150717044702011332e-02 1.001294432337920966e+03
5.254771934368549641e-02 9.731867138861199464e+02
5.358826824035087949e-02 9.477934963921291001e+02
5.462881713701626257e-02 9.196061515470684071e+02
5.566936603368164566e-02 8.924529927391529327e+02
5.670991493034702874e-02 8.690694825895312761e+02
5.775046382701241182e-02 8.410609460795603809e+02
5.879101272367779490e-02 8.135318969730963090e+02
5.983156162034317799e-02 7.885657725852416888e+02
6.087211051700856107e-02 7.626652199885112395e+02
6.191265941367394415e-02 7.396583051512785687e+02
6.295320831033933417e-02 7.149372921459204235e+02
6.399375720700471726e-02 6.894727252778568527e+02
6.503430610367010034e-02 6.635773411045873900e+02
6.607485500033548342e-02 6.385904203759753273e+02
6.711540389700086651e-02 6.144518538620567369e+02
6.815595279366624959e-02 5.912600251046121684e+02
6.919650169033163267e-02 5.692426223607034217e+02
7.023705058699701576e-02 5.471934933475962453e+02
7.127759948366239884e-02 5.240286638794203782e+02
7.231814838032778192e-02 5.023837175627606371e+02
7.335869727699316500e-02 4.806831258179702218e+02
7.439924617365854809e-02 4.588482582579517270e+02
7.543979507032393117e-02 4.382580636776737038e+02
7.648034396698931425e-02 4.192025923604397804e+02
7.752089286365469734e-02 4.000326758276521559e+02
7.856144176032008042e-02 3.801901798348549733e+02
7.960199065698546350e-02 3.628813131450999094e+02
8.064253955365084658e-02 3.443579671655235188e+02
8.168308845031622967e-02 3.264670093286491692e+02
8.272363734698161275e-02 3.097096561911005210e+02
8.376418624364699583e-02 2.930917112630832548e+02
8.480473514031239279e-02 2.781694413107201171e+02
8.584528403697777588e-02 2.631136168122804406e+02
8.688583293364315896e-02 2.483924993771724985e+02
8.792638183030854204e-02 2.329093752737584282e+02
8.896693072697392513e-02 2.187706789007116868e+02
9.000747962363930821e-02 2.058437980183435911e+02
9.104802852030469129e-02 1.933684896601136529e+02
9.208857741697007437e-02 1.801785850539273497e+02
9.312912631363545746e-02 1.675763308650989813e+02
9.416967521030084054e-02 1.565553885056513082e+02
9.521022410696622362e-02 1.466069323808982006e+02
9.625077300363160671e-02 1.362409903871419203e+02
9.729132190029698979e-02 1.262120284801319485e+02
9.833187079696237287e-02 1.171155996856192161e+02
9.937241969362775595e-02 1.080148890815052738e+02
1.004129685902931390e-01 9.950736880849994748e+01
1.014535174869585221e-01 9.153630337979549836e+01
1.024940663836239052e-01 8.497037297190793481e+01
1.035346152802892883e-01 7.792135364883287707e+01
1.045751641769546714e-01 7.160000730940414826e+01
1.056157130736200545e-01 6.422669194718739050e+01
1.066562619702854375e-01 5.771369994498655842e+01
1.076968108669508206e-01 5.210435004089637800e+01
1.087373597636162037e-01 4.685383764860150535e+01
1.097779086602815868e-01 4.234439373421473363e+01
1.108184575569469699e-01 3.822425043937364109e+01
1.118590064536123529e-01 3.378212969376939157e+01
1.128995553502777360e-01 3.010980040248861300e+01
1.139401042469431191e-01 2.650603431628302786e+01
1.149806531436085022e-01 2.330922490755594723e+01
1.160212020402738853e-01 2.057630054741151326e+01
1.170617509369392684e-01 1.791335815951685362e+01
1.181022998336046514e-01 1.513543715649269572e+01
1.191428487302700345e-01 1.293670797715518717e+01
1.201833976269354176e-01 1.131786384802863310e+01
1.212239465236008007e-01 9.335178743368143017e+00
1.222644954202661838e-01 7.603090713301533299e+00
1.233050443169315669e-01 6.470290361787878197e+00
1.243455932135969499e-01 5.529846581303974773e+00
1.253861421102623330e-01 4.906438618251574013e+00
1.264266910069277161e-01 3.831376705745842770e+00
1.274672399035930992e-01 2.983028760652000955e+00
1.285077888002584823e-01 2.550195962605595668e+00
1.295483376969238654e-01 2.214914306398348742e+00
1.305888865935892484e-01 2.231706444512191467e+00
1.316294354902546315e-01 2.071076838586126456e+00
1.326699843869200146e-01 2.277053245943623239e+00
1.337105332835853977e-01 2.133722093355217453e+00
1.347510821802507808e-01 2.229371288782914462e+00
1.357916310769161639e-01 1.692941762295841812e+00
1.368321799735815469e-01 2.288436179080886035e+00
1.378727288702469300e-01 2.804915135640552393e+00
1.389132777669123131e-01 3.568939605969795537e+00
1.399538266635776962e-01 3.901677217144271737e+00
1.409943755602430793e-01 4.243933695797082351e+00
1.420349244569084624e-01 4.408785570210302041e+00
1.430754733535738454e-01 4.582286836986529721e+00
1.441160222502392285e-01 5.790898495490171882e+00
1.451565711469046116e-01 6.439345547698401617e+00
1.461971200435699947e-01 6.535366445990558049e+00
1.472376689402353778e-01 6.976798425844748408e+00
1.482782178369007609e-01 7.812144338968121104e+00
1.493187667335661439e-01 8.230935152959478529e+00
1.503593156302315270e-01 8.730760462309103076e+00
1.513998645268969101e-01 9.464991773151272270e+00
1.524404134235622932e-01 9.885111245718537276e+00
1.534809623202276763e-01 1.052831201281597373e+01
1.545215112168930593e-01 1.088718126088188143e+01
1.555620601135584424e-01 1.130742451699201112e+01
1.566026090102238255e-01 1.145970122661427482e+01
1.576431579068892086e-01 1.181455835445667901e+01
1.586837068035545917e-01 1.209690238100990811e+01
1.597242557002199748e-01 1.223976482054188608e+01
1.607648045968853578e-01 1.276484879067200140e+01
1.618053534935507409e-01 1.280549072824216239e+01
1.628459023902161240e-01 1.297928714192942934e+01
1.638864512868815071e-01 1.331683138464474325e+01
1.649270001835468902e-01 1.351021311377039780e+01
1.659675490802122733e-01 1.392785137019635755e+01
1.670080979768776563e-01 1.400434335030561428e+01
1.680486468735430672e-01 1.388042087744001307e+01
1.690891957702084503e-01 1.375492665666120828e+01
1.701297446668738333e-01 1.379313785545177851e+01
1.711702935635392164e-01 1.356525358091091604e+01
1.722108424602045995e-01 1.340665582859003280e+01
1.732513913568699826e-01 1.321250018351027933e+01
1.742919402535353657e-01 1.327285116160041767e+01
1.753324891502007488e-01 1.326088258499211037e+01
1.763730380468661318e-01 1.292663313419150128e+01
1.774135869435315149e-01 1.246034563352677083e+01
1.784541358401968980e-01 1.246193039092932864e+01
1.794946847368622811e-01 1.243417373633763745e+01
1.805352336335276642e-01 1.196824879751443760e+01
1.815757825301930473e-01 1.148652317385132449e+01
1.826163314268584303e-01 1.137347818583355874e+01
1.836568803235238134e-01 1.080022550746405940e+01
1.846974292201891965e-01 1.053654229228379791e+01
1.857379781168545796e-01 1.016660124648708319e+01
1.867785270135199627e-01 1.010030169037546344e+01
1.878190759101853458e-01 9.840536260939781954e+00
1.888596248068507288e-01 9.009714524124721180e+00
1.899001737035161119e-01 8.565567396475994855e+00
1.909407226001814950e-01 8.539610450175320722e+00
1.919812714968468781e-01 7.973226739786131390e+00
1.930218203935122612e-01 7.508569801535415422e+00
1.940623692901776443e-01 7.384752966865796964e+00
1.951029181868430273e-01 6.924259496454546081e+00
1.961434670835084104e-01 6.358441265181561164e+00
1.971840159801737935e-01 5.918216715692310004e+00
1.982245648768391766e-01 5.334398336682326658e+00
1.992651137735045597e-01 5.313700898443066478e+00
2.003056626701699428e-01 5.065288101127823239e+00
2.013462115668353813e-01 4.479579937290132818e+00
2.023867604635007644e-01 4.343572475387084353e+00
2.034273093601661475e-01 4.062486332527704747e+00
2.044678582568315306e-01 3.574857257672405808e+00
2.055084071534969137e-01 3.102108631818630613e+00
2.065489560501622968e-01 2.986038052170318480e+00
2.075895049468276798e-01 2.701226886389530790e+00
2.086300538434930629e-01 2.429986715003174425e+00
2.096706027401584460e-01 2.145210753273754989e+00
2.107111516368238291e-01 2.160301015424419546e+00
2.117517005334892122e-01 2.245852209048642578e+00
2.127922494301545953e-01 2.103565884543577624e+00
2.138327983268199783e-01 1.900905186193689644e+00
2.148733472234853614e-01 1.484561181659508122e+00
2.159138961201507445e-01 1.467624503149771442e+00
2.169544450168161276e-01 1.222476417167033702e+00
2.179949939134815107e-01 1.031195879598683973e+00
2.190355428101468938e-01 8.801962550588875445e-01
2.200760917068122768e-01 7.910645366908362064e-01
2.211166406034776599e-01 9.468817067019834610e-01
2.221571895001430430e-01 8.633320217880502412e-01
2.231977383968084261e-01 9.158130831633961577e-01
2.242382872934738092e-01 7.166093484440807515e-01
2.252788361901391923e-01 7.267650371246219265e-01
2.263193850868045753e-01 5.582612763038561354e-01
2.273599339834699584e-01 4.317117867367628037e-01
2.284004828801353415e-01 5.388818110021418306e-01
2.294410317768007246e-01 6.607464740435275985e-01
2.304815806734661077e-01 3.441711530553632770e-01
2.315221295701314908e-01 6.604755881465500522e-01
2.325626784667968738e-01 9.727556187482093719e-01
2.336032273634622569e-01 7.066293749449101824e-01
2.346437762601276400e-01 8.512033052351739570e-01
2.356843251567930231e-01 1.075272333240842926e+00
2.367248740534584062e-01 1.076113682523498483e+00
2.377654229501237892e-01 9.735047820833457877e-01
2.388059718467891723e-01 1.021581807334829506e+00
2.398465207434545554e-01 1.111588123262954753e+00
2.408870696401199385e-01 1.304879877039542890e+00
2.419276185367853216e-01 1.106065723700591974e+00
2.429681674334507047e-01 1.188175455150727089e+00
2.440087163301160877e-01 1.430047237981479924e+00
2.450492652267814708e-01 1.431539559893948876e+00
2.460898141234468539e-01 1.457752890878726504e+00
2.471303630201122370e-01 1.735507996919750440e+00
2.481709119167776201e-01 1.838490731572491654e+00
2.492114608134430032e-01 1.923078526764431473e+00
2.502520097101083585e-01 1.904991970175142768e+00
2.512925586067737416e-01 1.943333002024001388e+00
2.523331075034391247e-01 2.085637825411847501e+00
2.533736564001045077e-01 2.250301769671516183e+00
2.544142052967698908e-01 2.400028675567302372e+00
2.554547541934352739e-01 2.136260199063379162e+00
2.564953030901006570e-01 2.307959988520096317e+00
2.575358519867660401e-01 2.544917099853631015e+00
2.585764008834314231e-01 2.341968245244480329e+00
2.596169497800968062e-01 2.585280729600249572e+00
2.606574986767621893e-01 2.436341461210776771e+00
2.616980475734275724e-01 2.443032607239857157e+00
2.627385964700929555e-01 2.537624594701075154e+00
2.637791453667583386e-01 2.561955482487796587e+00
2.648196942634237216e-01 2.660692595537504701e+00
2.658602431600891047e-01 2.497941486075575312e+00
2.669007920567544878e-01 2.302004473195523815e+00
2.679413409534198709e-01 2.066084020375715369e+00
2.689818898500852540e-01 2.228204907946029323e+00
2.700224387467506371e-01 2.390368540452691093e+00
2.710629876434160201e-01 2.416748754038959390e+00
2.721035365400814032e-01 2.318991089939643757e+00
2.731440854367467863e-01 2.336926261467400678e+00
2.741846343334121694e-01 2.094153917667021858e+00
2.752251832300775525e-01 1.960424978106807714e+00
2.762657321267429356e-01 2.090030900727608554e+00
2.773062810234083186e-01 2.242889798950642444e+00
2.783468299200737017e-01 2.142000109417818265e+00
2.793873788167390848e-01 2.162847053994372715e+00
2.804279277134044679e-01 2.019872168817382629e+00
2.814684766100698510e-01 2.018907664973124128e+00
2.825090255067352341e-01 1.946266311549052830e+00
2.835495744034006171e-01 1.912097704628603623e+00
2.845901233000660002e-01 1.924348413354483256e+00
2.856306721967313833e-01 1.966202706391026567e+00
2.866712210933967664e-01 1.723431962166699805e+00
2.877117699900621495e-01 1.478217852962099954e+00
2.887523188867275326e-01 1.401280450004289690e+00
2.897928677833929156e-01 1.502099126218372049e+00
2.908334166800582987e-01 1.475353892078032914e+00
2.918739655767236818e-01 1.420639706589540197e+00
2.929145144733890649e-01 1.196667260894269447e+00
2.939550633700544480e-01 1.235366392404102953e+00
2.949956122667198311e-01 1.222863116039167863e+00
2.960361611633852141e-01 1.286896463454088035e+00
2.970767100600505972e-01 1.268181118067236213e+00
2.981172589567159803e-01 1.333527306968022685e+00
2.991578078533813634e-01 1.185834950716976977e+00
3.001983567500468020e-01 1.060198209558244287e+00
3.012389056467121851e-01 8.716687584643700859e-01
3.022794545433775681e-01 9.398288679277868596e-01
3.033200034400429512e-01 9.086958378402698600e-01
3.043605523367083343e-01 6.450366571585988140e-01
3.054011012333737174e-01 7.343959662540591182e-01
3.064416501300391005e-01 6.477295658238766407e-01
3.074821990267044836e-01 6.260121945835557256e-01
3.085227479233698666e-01 5.498470852289827349e-01
3.095632968200352497e-01 7.304559113739976794e-01
3.106038457167006328e-01 5.583716938464142743e-01
3.116443946133660159e-01 7.464111481553352689e-01
3.126849435100313990e-01 5.969812453057770085e-01
3.137254924066967821e-01 5.263169631020190309e-01
3.147660413033621651e-01 6.213945663020474797e-01
3.158065902000275482e-01 5.814516652684673659e-01
3.168471390966929313e-01 6.362803221226585038e-01
3.178876879933583144e-01 4.992077694591223747e-01
3.189282368900236975e-01 5.051501993134017710e-01
3.199687857866890806e-01 3.965045660985921927e-01
3.210093346833544636e-01 5.249929204872643140e-01
3.220498835800198467e-01 6.498897978951951870e-01
3.230904324766852298e-01 5.901532901311199453e-01
3.241309813733506129e-01 5.858469849594101220e-01
3.251715302700159960e-01 5.900991006006961470e-01
3.262120791666813790e-01 5.509148096279048445e-01
3.272526280633467621e-01 4.202804282584153839e-01
3.282931769600121452e-01 5.352671313406993647e-01
3.293337258566775283e-01 6.755110955333485379e-01
3.303742747533429114e-01 6.814343216302063411e-01
3.314148236500082945e-01 7.639233083339789232e-01
3.324553725466736775e-01 7.277125094450447307e-01
3.334959214433390606e-01 6.141854608037426999e-01
3.345364703400044437e-01 7.101312840521423198e-01
3.355770192366698268e-01 5.918665006784138427e-01
3.366175681333352099e-01 7.697540459471667873e-01
3.376581170300005930e-01 7.293407150221788982e-01
3.386986659266659760e-01 6.737498132825336938e-01
3.397392148233313591e-01 6.102372919851646316e-01
3.407797637199967422e-01 8.606078744760097265e-01
3.418203126166621253e-01 8.326992666727583980e-01
3.428608615133275084e-01 8.009449188520640917e-01
3.439014104099928915e-01 7.627423108103172922e-01
3.449419593066582745e-01 8.635153069623591193e-01
3.459825082033236576e-01 8.065534476151086096e-01
3.470230570999890407e-01 9.014869046058713309e-01
3.480636059966544238e-01 1.007703199781129655e+00
3.491041548933198069e-01 9.633976494412266334e-01
3.501447037899851900e-01 9.404262211056604315e-01
3.511852526866505730e-01 1.049869476108714395e+00
3.522258015833159561e-01 1.155129116977988701e+00
3.532663504799813392e-01 1.064113610494445084e+00
3.543068993766467223e-01 8.180253930511121041e-01
3.553474482733121054e-01 9.175924026795918564e-01
3.563879971699774885e-01 1.033058041789210790e+00
3.574285460666428715e-01 9.559985143736078328e-01
3.584690949633082546e-01 8.887622911445873797e-01
3.595096438599736377e-01 9.602234397201243610e-01
3.605501927566390208e-01 9.382614337152048734e-01
3.615907416533044039e-01 8.878026460783701168e-01
3.626312905499697870e-01 9.303751834538864784e-01
3.636718394466351700e-01 8.235908640767313216e-01
3.647123883433005531e-01 9.938298619747705231e-01
3.657529372399659362e-01 7.395831651727675649e-01
3.667934861366313193e-01 8.575287215417368714e-01
3.678340350332967024e-01 8.383029238336625610e-01
3.688745839299620854e-01 7.984908952890883427e-01
3.699151328266274685e-01 8.260370663894391896e-01
3.709556817232928516e-01 9.489613688275326808e-01
3.719962306199582347e-01 5.306255352123265823e-01
3.730367795166236178e-01 6.705734167679722191e-01
3.740773284132890009e-01 8.183071799084871145e-01
3.751178773099543839e-01 8.605637774351642122e-01
3.761584262066197670e-01 7.603701664088191592e-01
3.771989751032851501e-01 6.169203809869792110e-01
3.782395239999505332e-01 7.885441310916228019e-01
3.792800728966159163e-01 7.259532447607490724e-01
3.803206217932812994e-01 6.745155331358212436e-01
3.813611706899466824e-01 6.495572385582839559e-01
3.824017195866120655e-01 7.077395110684960855e-01
3.834422684832774486e-01 7.328184676961981836e-01
3.844828173799428317e-01 6.235669159295795794e-01
3.855233662766082148e-01 6.064301661539204247e-01
3.865639151732735979e-01 6.674762698623233348e-01
3.876044640699389809e-01 4.704956095583021636e-01
3.886450129666043640e-01 5.807564675472001170e-01
3.896855618632697471e-01 6.577219382945891368e-01
3.907261107599351302e-01 6.130515104946532290e-01
3.917666596566005133e-01 6.468034638387010204e-01
3.928072085532658964e-01 7.322844828104315695e-01
3.938477574499312794e-01 7.523488064212102699e-01
3.948883063465966625e-01 6.623420043161303283e-01
3.959288552432620456e-01 4.032953236484217996e-01
3.969694041399274287e-01 3.517423732570392758e-01
3.980099530365928118e-01 4.415224977318743527e-01
3.990505019332581949e-01 5.216068188653153470e-01
4.000910508299235779e-01 5.020325196558808045e-01
4.011315997265889610e-01 4.880022946557254215e-01
4.021721486232543441e-01 4.559682132505145091e-01
4.032126975199197272e-01 4.598168000102447195e-01
4.042532464165851103e-01 4.989067509324520699e-01
4.052937953132504934e-01 3.996338430853363377e-01
4.063343442099158764e-01 2.386021788804058019e-01
4.073748931065812595e-01 3.103775639655097507e-01
4.084154420032466426e-01 3.406215302528714517e-01
4.094559908999120257e-01 3.097063194425224708e-01
4.104965397965774088e-01 3.374009268159596786e-01
4.115370886932427918e-01 3.146834760380805562e-01
4.125776375899081749e-01 4.297499588672337723e-01
4.136181864865735580e-01 4.323166039016967943e-01
4.146587353832389411e-01 1.819522342638890677e-01
4.156992842799043242e-01 3.704209657498225283e-01
4.167398331765697073e-01 4.193070226011919033e-01
4.177803820732350903e-01 2.582127795286162097e-01
4.188209309699004734e-01 3.749385290006905791e-01
4.198614798665658565e-01 4.798833488236979861e-01
4.209020287632312396e-01 5.677854489075464528e-01
4.219425776598966227e-01 5.895485654821115418e-01
4.229831265565620058e-01 3.510389669694227166e-01
4.240236754532273888e-01 3.493407412562348213e-01
4.250642243498927719e-01 4.435392567651561535e-01
4.261047732465581550e-01 5.055023544789989387e-01
4.271453221432235381e-01 6.083843795110688291e-01
4.281858710398889212e-01 5.653796799763775027e-01
4.292264199365543043e-01 5.024500866646874897e-01
4.302669688332196873e-01 4.990548603831470587e-01
4.313075177298850704e-01 4.643413740910844467e-01
4.323480666265504535e-01 4.063519246068594271e-01
4.333886155232158366e-01 3.851924584891825987e-01
4.344291644198812197e-01 5.372899443735796865e-01
