# q (1/Angstrom), Intensity (arb)
2.029070354705860696e-02 1.511642550548457166e+03
2.133125244372399004e-02 1.499669079814944098e+03
2.237180134038937659e-02 1.493296889267982806e+03
2.341235023705475968e-02 1.482822510155023110e+03
2.445289913372014276e-02 1.473848008100637344e+03
2.549344803038552584e-02 1.459349865808555023e+03
2.653399692705091240e-02 1.441582548053550454e+03
2.757454582371629548e-02 1.418310289012204521e+03
2.861509472038167856e-02 1.405874968452915937e+03
2.965564361704706164e-02 1.393244728858666576e+03
3.069619251371244473e-02 1.372895262882491352e+03
3.173674141037782781e-02 1.347505281110624310e+03
3.277729030704321089e-02 1.322996932190481630e+03
3.381783920370859398e-02 1.305263790754060665e+03
3.485838810037397706e-02 1.287635750395519835e+03
3.589893699703936014e-02 1.266270667261110702e+03
3.693948589370474322e-02 1.247356141221762527e+03
3.798003479037012631e-02 1.224573642179555691e+03
3.902058368703550939e-02 1.198831206388931605e+03
4.006113258370089247e-02 1.173825567810724351e+03
4.110168148036627556e-02 1.149055101491753703e+03
4.214223037703165864e-02 1.126836732113238213e+03
4.318277927369704866e-02 1.104010343127519036e+03
4.422332817036243174e-02 1.080732643017403689e+03
4.526387706702781483e-02 1.057063359424281089e+03
4.630442596369319791e-02 1.031187321286680117e+03
4.734497486035858099e-02 1.003920334176723031e+03
4.838552375702396408e-02 9.793226175405591221e+02
4.942607265368934716e-02 9.536206365490543249e+02
5.046662155035473024e-02 9.305905856453858860e+02
5.150717044702011332e-02 9.091806080058358930e+02
5.254771934368549641e-02 8.823652608560116732e+02
5.358826824035087949e-02 8.561287193143449485e+02
5.462881713701626257e-02 8.335364179438664678e+02
5.566936603368164566e-02 8.106374750633666508e+02
5.670991493034702874e-02 7.852537815191464006e+02
5.775046382701241182e-02 7.599453584559392993e+02
5.879101272367779490e-02 7.367652589240757379e+02
5.983156162034317799e-02 7.137708503492701766e+02
6.087211051700856107e-02 6.892717484105070298e+02
6.191265941367394415e-02 6.637042181067483853e+02
6.295320831033933417e-02 6.398558951564757535e+02
6.399375720700471726e-02 6.194300923048306231e+02
6.503430610367010034e-02 5.977153626876597627e+02
6.607485500033548342e-02 5.748698076366428040e+02
6.711540389700086651e-02 5.527775779312394206e+02
6.815595279366624959e-02 5.327673201976773498e+02
6.919650169033163267e-02 5.127600162383032512e+02
7.023705058699701576e-02 4.909530545876050951e+02
7.127759948366239884e-02 4.699198246299986863e+02
7.231814838032778192e-02 4.494457740789720219e+02
7.335869727699316500e-02 4.309265274445564273e+02
7.439924617365854809e-02 4.108129500878657154e+02
7.543979507032393117e-02 3.931346440928596166e+02
7.648034396698931425e-02 3.739350734385982378e+02
7.752089286365469734e-02 3.559151694814867142e+02
7.856144176032008042e-02 3.391162777768756200e+02
7.960199065698546350e-02 3.242330855589839871e+02
8.064253955365084658e-02 3.075114156975451465e+02
8.168308845031622967e-02 2.905070367945012322e+02
8.272363734698161275e-02 2.764967750416506078e+02
8.376418624364699583e-02 2.608489403945237086e+02
8.480473514031239279e-02 2.461664891935159005e+02
8.584528403697777588e-02 2.324117237553951725e+02
8.688583293364315896e-02 2.196205244931962284e+02
8.792638183030854204e-02 2.067546558970572903e+02
8.896693072697392513e-02 1.937575664385379355e+02
9.000747962363930821e-02 1.809279863274065008e+02
9.104802852030469129e-02 1.709118508060472550e+02
9.208857741697007437e-02 1.598847531561743267e+02
9.312912631363545746e-02 1.486558274677509530e+02
9.416967521030084054e-02 1.388146808322237291e+02
9.521022410696622362e-02 1.290821349773623581e+02
9.625077300363160671e-02 1.196474839560922874e+02
9.729132190029698979e-02 1.110945233161542092e+02
9.833187079696237287e-02 1.029078209762786287e+02
9.937241969362775595e-02 9.457654272728214551e+01
1.004129685902931390e-01 8.752986566145247593e+01
1.014535174869585221e-01 8.054713197085544607e+01
1.024940663836239052e-01 7.380273397963077286e+01
1.035346152802892883e-01 6.712548794708601463e+01
1.045751641769546714e-01 6.029336590188557921e+01
1.056157130736200545e-01 5.463431799734394190e+01
1.066562619702854375e-01 4.935666972423626220e+01
1.076968108669508206e-01 4.440268543792222999e+01
1.087373597636162037e-01 4.057162954255356624e+01
1.097779086602815868e-01 3.649913342583988651e+01
1.108184575569469699e-01 3.221814049277671188e+01
1.118590064536123529e-01 2.879839874407543476e+01
1.128995553502777360e-01 2.569241970845194345e+01
1.139401042469431191e-01 2.273780737780366223e+01
1.149806531436085022e-01 1.971596312822538977e+01
1.160212020402738853e-01 1.704650291524235683e+01
1.170617509369392684e-01 1.440572321963719560e+01
1.181022998336046514e-01 1.190690968270379813e+01
1.191428487302700345e-01 1.021522678660824113e+01
1.201833976269354176e-01 8.992414763778043607e+00
1.212239465236008007e-01 7.486468129404528327e+00
1.222644954202661838e-01 6.021209887836469932e+00
1.233050443169315669e-01 4.976313930360788618e+00
1.243455932135969499e-01 3.955838422374057473e+00
1.253861421102623330e-01 3.385138182035696275e+00
1.264266910069277161e-01 3.020445787160198847e+00
1.274672399035930992e-01 2.297850730688189458e+00
1.285077888002584823e-01 1.743706170988524207e+00
1.295483376969238654e-01 9.684368871859660999e-01
1.305888865935892484e-01 7.867359120591359556e-01
1.316294354902546315e-01 1.159951572810847154e+00
1.326699843869200146e-01 1.102290054147125886e+00
1.337105332835853977e-01 1.464947472024270780e+00
1.347510821802507808e-01 1.711491942617207940e+00
1.357916310769161639e-01 1.666429934273651270e+00
1.368321799735815469e-01 1.872301515860129939e+00
1.378727288702469300e-01 2.186354043123330371e+00
1.389132777669123131e-01 2.641943415379969906e+00
1.399538266635776962e-01 2.820489381858500622e+00
1.409943755602430793e-01 3.348821283719630060e+00
1.420349244569084624e-01 3.782955322097642181e+00
1.430754733535738454e-01 4.237025472402144999e+00
1.441160222502392285e-01 5.193275752538539791e+00
1.451565711469046116e-01 5.268760131527514545e+00
1.461971200435699947e-01 5.682392272322211113e+00
1.472376689402353778e-01 6.391769483625033388e+00
1.482782178369007609e-01 6.915191120525499002e+00
1.493187667335661439e-01 7.286647288593300686e+00
1.503593156302315270e-01 7.650041136656412277e+00
1.513998645268969101e-01 8.309791583377013069e+00
1.524404134235622932e-01 8.804788094262974596e+00
1.534809623202276763e-01 8.743829696639714655e+00
1.545215112168930593e-01 9.531977033441705771e+00
1.555620601135584424e-01 1.013613398510912589e+01
1.566026090102238255e-01 1.078859148780853161e+01
1.576431579068892086e-01 1.073291150909516745e+01
1.586837068035545917e-01 1.114213437088896086e+01
1.597242557002199748e-01 1.133721103173701295e+01
1.607648045968853578e-01 1.157776634578267760e+01
1.618053534935507409e-01 1.141295712117298677e+01
1.628459023902161240e-01 1.140265369830792253e+01
1.638864512868815071e-01 1.179200716413549799e+01
1.649270001835468902e-01 1.170982205439359802e+01
1.659675490802122733e-01 1.197389489827924081e+01
1.670080979768776563e-01 1.224507977451656870e+01
1.680486468735430672e-01 1.237497143487401274e+01
1.690891957702084503e-01 1.238676812648017034e+01
1.701297446668738333e-01 1.251295804710586879e+01
1.711702935635392164e-01 1.253714844711019083e+01
1.722108424602045995e-01 1.192282495896266425e+01
1.732513913568699826e-01 1.168230038581477004e+01
1.742919402535353657e-01 1.158075245278433840e+01
1.753324891502007488e-01 1.175858118742932845e+01
1.763730380468661318e-01 1.136393401162271033e+01
1.774135869435315149e-01 1.073185828056868729e+01
1.784541358401968980e-01 1.049686427947040102e+01
1.794946847368622811e-01 1.031140327147977587e+01
1.805352336335276642e-01 9.790459049581954787e+00
1.815757825301930473e-01 9.882386882621595703e+00
1.826163314268584303e-01 9.641710027249224879e+00
1.836568803235238134e-01 9.694595014573508251e+00
1.846974292201891965e-01 9.371068544410064760e+00
1.857379781168545796e-01 9.000808151105438526e+00
1.867785270135199627e-01 8.510810536240043689e+00
1.878190759101853458e-01 8.007643026186137547e+00
1.888596248068507288e-01 7.753311901672780948e+00
1.899001737035161119e-01 7.484841448667530983e+00
1.909407226001814950e-01 7.163496182125861367e+00
1.919812714968468781e-01 6.720615508720484854e+00
1.930218203935122612e-01 6.548605020694694190e+00
1.940623692901776443e-01 6.279651441153568214e+00
1.951029181868430273e-01 5.891871745520301573e+00
1.961434670835084104e-01 5.288936333394651967e+00
1.971840159801737935e-01 5.107287114745599155e+00
1.982245648768391766e-01 4.697861526893039041e+00
1.992651137735045597e-01 4.325678524127194891e+00
2.003056626701699428e-01 4.229970299396011768e+00
2.013462115668353813e-01 3.803406786464119449e+00
2.023867604635007644e-01 3.638099652235663228e+00
2.034273093601661475e-01 3.586990491035265904e+00
2.044678582568315306e-01 3.252500127283543208e+00
2.055084071534969137e-01 2.709417235071395424e+00
2.065489560501622968e-01 2.444133693327383838e+00
2.075895049468276798e-01 2.476876906290488733e+00
2.086300538434930629e-01 1.954862633229893731e+00
2.096706027401584460e-01 1.602629815734786689e+00
2.107111516368238291e-01 1.545423909203023527e+00
2.117517005334892122e-01 1.672270666271465700e+00
2.127922494301545953e-01 1.469319026629761993e+00
2.138327983268199783e-01 1.242710695800170129e+00
2.148733472234853614e-01 7.192631255713664018e-01
2.159138961201507445e-01 7.991194889796240375e-01
2.169544450168161276e-01 7.095381428264389001e-01
2.179949939134815107e-01 6.022482461303333423e-01
2.190355428101468938e-01 4.402093924000283209e-01
2.200760917068122768e-01 3.437820904584505399e-01
2.211166406034776599e-01 3.307252333854933113e-01
2.221571895001430430e-01 2.788429811692090254e-01
2.231977383968084261e-01 5.335796427773402684e-01
2.242382872934738092e-01 5.742107048740656694e-01
2.252788361901391923e-01 0.000000000000000000e+00
2.263193850868045753e-01 1.699368169038528720e-01
2.273599339834699584e-01 4.671390303748452766e-01
2.284004828801353415e-01 4.039051122455141751e-01
2.294410317768007246e-01 4.078095332640785387e-01
2.304815806734661077e-01 4.695430281408299322e-01
2.315221295701314908e-01 3.277412993631507732e-01
2.325626784667968738e-01 5.984541709384103569e-01
2.336032273634622569e-01 6.984247738106645897e-01
2.346437762601276400e-01 5.646180949804033844e-01
2.356843251567930231e-01 4.568678764308060636e-01
2.367248740534584062e-01 7.003426667272840689e-01
2.377654229501237892e-01 5.315557627261142670e-01
2.388059718467891723e-01 1.055305177661352900e+00
2.398465207434545554e-01 1.044330832172036594e+00
2.408870696401199385e-01 8.627820064730613581e-01
2.419276185367853216e-01 9.480815425593505097e-01
2.429681674334507047e-01 9.202788090144906619e-01
2.440087163301160877e-01 1.024432282558699114e+00
2.450492652267814708e-01 1.383054219905183402e+00
2.460898141234468539e-01 8.857720615508597461e-01
2.471303630201122370e-01 1.039007715264901321e+00
2.481709119167776201e-01 1.549423582065806215e+00
2.492114608134430032e-01 1.477390062868707332e+00
2.502520097101083585e-01 1.694069913255496829e+00
2.512925586067737416e-01 1.418860864858697113e+00
2.523331075034391247e-01 1.282067859052272496e+00
2.533736564001045077e-01 1.489357463890396360e+00
2.544142052967698908e-01 1.803738119361320003e+00
2.554547541934352739e-01 2.023580614779788789e+00
2.564953030901006570e-01 1.668070288927186340e+00
2.575358519867660401e-01 1.563742233121718783e+00
2.585764008834314231e-01 1.696010919695549291e+00
2.596169497800968062e-01 1.955508181202880280e+00
2.606574986767621893e-01 1.763068551398305317e+00
2.616980475734275724e-01 1.886567402962732842e+00
2.627385964700929555e-01 2.067010167312592017e+00
2.637791453667583386e-01 2.423070287667258071e+00
2.648196942634237216e-01 2.434685630144311830e+00
2.658602431600891047e-01 2.164183949980095889e+00
2.669007920567544878e-01 2.248931795505608733e+00
2.679413409534198709e-01 1.913950037789859948e+00
2.689818898500852540e-01 1.925509682602683625e+00
2.700224387467506371e-01 2.347750894491223761e+00
2.710629876434160201e-01 2.147466887577980543e+00
2.721035365400814032e-01 1.780951718654286253e+00
2.731440854367467863e-01 1.838323562808888312e+00
2.741846343334121694e-01 1.883869160746666438e+00
2.752251832300775525e-01 1.887005394415695037e+00
2.762657321267429356e-01 1.868490200037495441e+00
2.773062810234083186e-01 1.990214907477042772e+00
2.783468299200737017e-01 2.108146998896462065e+00
2.793873788167390848e-01 1.914567702789099712e+00
2.804279277134044679e-01 1.665245802272938391e+00
2.814684766100698510e-01 1.713631388912990161e+00
2.825090255067352341e-01 2.033724540517425794e+00
2.835495744034006171e-01 1.806784081317172053e+00
2.845901233000660002e-01 1.634927631855504160e+00
2.856306721967313833e-01 1.505322346862175920e+00
2.866712210933967664e-01 1.398537215159986857e+00
2.877117699900621495e-01 1.155100456528163733e+00
2.887523188867275326e-01 9.350115425928642310e-01
2.897928677833929156e-01 7.360191722805424774e-01
2.908334166800582987e-01 8.157287795496763749e-01
2.918739655767236818e-01 1.054880273323508533e+00
2.929145144733890649e-01 9.294537823268314014e-01
2.939550633700544480e-01 6.607977234649275999e-01
2.949956122667198311e-01 8.380650782024190448e-01
2.960361611633852141e-01 7.642708200403589558e-01
2.970767100600505972e-01 5.218204808869444378e-01
2.981172589567159803e-01 8.724280356466813657e-01
2.991578078533813634e-01 9.115836984103182772e-01
3.001983567500468020e-01 4.853492101253706892e-01
3.012389056467121851e-01 8.154768496017084090e-01
3.022794545433775681e-01 9.896781994184706832e-01
3.033200034400429512e-01 8.181048737252289982e-01
3.043605523367083343e-01 7.282247269835480097e-01
3.054011012333737174e-01 8.424464863234888412e-01
3.064416501300391005e-01 8.827955374026714708e-01
3.074821990267044836e-01 6.857591286217932236e-01
3.085227479233698666e-01 5.163757930937791230e-01
3.095632968200352497e-01 3.634574616429091520e-01
3.106038457167006328e-01 1.862253893725167586e-01
3.116443946133660159e-01 2.558089940881060897e-01
3.126849435100313990e-01 4.786662481832628657e-01
3.137254924066967821e-01 4.524519666325232947e-01
3.147660413033621651e-01 5.340553095892914826e-01
3.158065902000275482e-01 3.745383574584231212e-01
3.168471390966929313e-01 3.334437037095021594e-01
3.178876879933583144e-01 2.710083244328416185e-01
3.189282368900236975e-01 3.635107156763481839e-01
3.199687857866890806e-01 3.596630074143831735e-01
3.210093346833544636e-01 3.602125750622633404e-01
3.220498835800198467e-01 4.712317729134589683e-01
3.230904324766852298e-01 4.227094968851545786e-01
3.241309813733506129e-01 3.586161721276823755e-01
3.251715302700159960e-01 4.035183589683803973e-01
3.262120791666813790e-01 3.242749677537766217e-01
3.272526280633467621e-01 1.271172955984987141e-01
3.282931769600121452e-01 1.367577557986017212e-01
3.293337258566775283e-01 3.574166441421162688e-01
3.303742747533429114e-01 5.239970007121712570e-01
3.314148236500082945e-01 4.051013589668919224e-01
3.324553725466736775e-01 3.803421845776178145e-01
3.334959214433390606e-01 3.471466517238326333e-01
3.345364703400044437e-01 4.245404744546483755e-01
3.355770192366698268e-01 7.405531749874079139e-01
3.366175681333352099e-01 4.740534357171029001e-01
3.376581170300005930e-01 2.559708566444776068e-01
3.386986659266659760e-01 3.848679188014507702e-01
3.397392148233313591e-01 5.567058043955164237e-01
3.407797637199967422e-01 7.600425887656072632e-01
3.418203126166621253e-01 6.989880972878879106e-01
3.428608615133275084e-01 6.140154296737669881e-01
3.439014104099928915e-01 6.658639174433567121e-01
3.449419593066582745e-01 8.051975061871701200e-01
3.459825082033236576e-01 8.264726162173090529e-01
3.470230570999890407e-01 6.924571861311008547e-01
3.480636059966544238e-01 8.215427404613677709e-01
3.491041548933198069e-01 6.959741420005016721e-01
3.501447037899851900e-01 6.932112128639964510e-01
3.511852526866505730e-01 7.222718466459383535e-01
3.522258015833159561e-01 7.776292625647123202e-01
3.532663504799813392e-01 8.925745515762990578e-01
3.543068993766467223e-01 8.880896147852368472e-01
3.553474482733121054e-01 6.919211259837609873e-01
3.563879971699774885e-01 6.912820929907965706e-01
3.574285460666428715e-01 8.577528701305752179e-01
3.584690949633082546e-01 8.431640042595844875e-01
3.595096438599736377e-01 5.358397613606591392e-01
3.605501927566390208e-01 5.593904544386560929e-01
3.615907416533044039e-01 9.071296848310126393e-01
3.626312905499697870e-01 8.716783691246376975e-01
3.636718394466351700e-01 8.331788060019356124e-01
3.647123883433005531e-01 1.001579016675325562e+00
3.657529372399659362e-01 9.329400936721334858e-01
3.667934861366313193e-01 7.999485288581666964e-01
3.678340350332967024e-01 8.139313696521277564e-01
3.688745839299620854e-01 5.723104032634367400e-01
3.699151328266274685e-01 6.422280973563090356e-01
3.709556817232928516e-01 8.526124792130502783e-01
3.719962306199582347e-01 9.515310849089004819e-01
3.730367795166236178e-01 1.036860848519545186e+00
3.740773284132890009e-01 7.640550770424567872e-01
3.751178773099543839e-01 8.264847242489743451e-01
3.761584262066197670e-01 1.711355483213981898e+00
3.771989751032851501e-01 1.488955118070290240e+00
3.782395239999505332e-01 6.807083284618293817e-01
3.792800728966159163e-01 5.558973787684671208e-01
3.803206217932812994e-01 6.206217001751568318e-01
3.813611706899466824e-01 7.831083112152725789e-01
3.824017195866120655e-01 7.513871759764860769e-01
3.834422684832774486e-01 6.529963336700248533e-01
3.844828173799428317e-01 6.798663330900787116e-01
3.855233662766082148e-01 8.492387721148659807e-01
3.865639151732735979e-01 5.710078710488311060e-01
3.876044640699389809e-01 5.032576745282533182e-01
3.886450129666043640e-01 4.686177367282482464e-01
3.896855618632697471e-01 5.248973809761601217e-01
3.907261107599351302e-01 5.701139679844189345e-01
3.917666596566005133e-01 3.465988538701054722e-01
3.928072085532658964e-01 3.950044795924476659e-01
3.938477574499312794e-01 3.660667602029121781e-01
3.948883063465966625e-01 4.631836090465348832e-01
3.959288552432620456e-01 5.241726048273669392e-01
3.969694041399274287e-01 5.296643888116925325e-01
3.980099530365928118e-01 3.849929074263584994e-01
3.990505019332581949e-01 4.950185416666563754e-01
4.000910508299235779e-01 6.399992656852973028e-01
4.011315997265889610e-01 2.629542905210797699e+00
4.021721486232543441e-01 5.018678379641912102e-01
4.032126975199197272e-01 6.005081835285253078e-01
4.042532464165851103e-01 5.261958237468427058e-01
4.052937953132504934e-01 4.007983417050979824e-01
4.063343442099158764e-01 5.518316620070216061e-01
4.073748931065812595e-01 6.556569885820877630e-01
4.084154420032466426e-01 4.516762148858468606e-01
4.094559908999120257e-01 3.470570986589329721e-01
4.104965397965774088e-01 2.479663486923335824e-01
4.115370886932427918e-01 3.692065711773793169e-01
4.125776375899081749e-01 4.497207132637015548e-01
4.136181864865735580e-01 3.476397783874496383e-01
4.146587353832389411e-01 5.312322460127916202e-01
4.156992842799043242e-01 4.863647348517297075e-01
4.167398331765697073e-01 3.587232895133745103e-01
4.177803820732350903e-01 2.434834977338660167e-01
4.188209309699004734e-01 3.053284655089818500e-01
4.198614798665658565e-01 3.256112188953217412e-01
4.209020287632312396e-01 4.031154664612657257e-01
4.219425776598966227e-01 2.814595215598991729e-01
4.229831265565620058e-01 2.776802311354451547e-01
4.240236754532273888e-01 3.436944312159617709e-01
4.250642243498927719e-01 5.425315374651624722e-01
4.261047732465581550e-01 5.934190836752186726e-01
4.271453221432235381e-01 4.768953702463640809e-01
4.281858710398889212e-01 6.006142568325785192e-01
4.292264199365543043e-01 7.494030343360051916e-01
4.302669688332196873e-01 6.336743439056391480e-01
4.313075177298850704e-01 6.681964342036863513e-01
4.323480666265504535e-01 4.470689036799591065e-01
4.333886155232158366e-01 3.494510846899636647e-01
4.344291644198812197e-01 5.124442266288546932e-01
