# q (1/Angstrom), Intensity (arb)
2.029070354705860696e-02 1.595123021543256755e+03
2.133125244372399004e-02 1.586493830771878720e+03
2.237180134038937659e-02 1.581062745695207695e+03
2.341235023705475968e-02 1.570684652717318841e+03
2.445289913372014276e-02 1.555555862336743303e+03
2.549344803038552584e-02 1.540012655412542472e+03
2.653399692705091240e-02 1.526090482902188114e+03
2.757454582371629548e-02 1.510936708836918115e+03
2.861509472038167856e-02 1.493468711719760904e+03
2.965564361704706164e-02 1.478082805121042156e+03
3.069619251371244473e-02 1.457338943052598779e+03
3.173674141037782781e-02 1.433717809522295283e+03
3.277729030704321089e-02 1.405042800563360288e+03
3.381783920370859398e-02 1.385009898149570290e+03
3.485838810037397706e-02 1.368771929630161139e+03
3.589893699703936014e-02 1.348071680151290593e+03
3.693948589370474322e-02 1.326334153641692865e+03
3.798003479037012631e-02 1.301964353115987706e+03
3.902058368703550939e-02 1.275850339547948352e+03
4.006113258370089247e-02 1.246839459603109617e+03
4.110168148036627556e-02 1.221487437761617457e+03
4.214223037703165864e-02 1.200510475360226792e+03
4.318277927369704866e-02 1.174499498173808206e+03
4.422332817036243174e-02 1.149119260758485098e+03
4.526387706702781483e-02 1.122822593779222643e+03
4.630442596369319791e-02 1.097937209798738422e+03
4.734497486035858099e-02 1.070300211220518577e+03
4.838552375702396408e-02 1.044970067644187566e+03
4.942607265368934716e-02 1.017196658980851225e+03
5.046662155035473024e-02 9.916330874691419694e+02
5.150717044702011332e-02 9.709840142209734495e+02
5.254771934368549641e-02 9.406084564601391094e+02
5.358826824035087949e-02 9.125048374603780985e+02
5.462881713701626257e-02 8.871912420409637434e+02
5.566936603368164566e-02 8.600320307936012796e+02
5.670991493034702874e-02 8.355804231196449336e+02
5.775046382701241182e-02 8.101825445440201747e+02
5.879101272367779490e-02 7.846451423326388976e+02
5.983156162034317799e-02 7.613506414876676445e+02
6.087211051700856107e-02 7.384878658754074650e+02
6.191265941367394415e-02 7.137062617817160799e+02
6.295320831033933417e-02 6.882222763536051389e+02
6.399375720700471726e-02 6.628128741814217619e+02
6.503430610367010034e-02 6.392513340132120447e+02
6.607485500033548342e-02 6.137764602649995140e+02
6.711540389700086651e-02 5.923310196563674026e+02
6.815595279366624959e-02 5.703192880804573406e+02
6.919650169033163267e-02 5.470697494755706884e+02
7.023705058699701576e-02 5.247810676112558212e+02
7.127759948366239884e-02 5.028337570770556226e+02
7.231814838032778192e-02 4.810976476177896757e+02
7.335869727699316500e-02 4.593863282319717314e+02
7.439924617365854809e-02 4.418232584608147135e+02
7.543979507032393117e-02 4.207794015116999162e+02
7.648034396698931425e-02 4.008355078934522453e+02
7.752089286365469734e-02 3.833893812519696098e+02
7.856144176032008042e-02 3.653301833031595152e+02
7.960199065698546350e-02 3.477273325573950729e+02
8.064253955365084658e-02 3.314014581299310294e+02
8.168308845031622967e-02 3.145203364497009488e+02
8.272363734698161275e-02 2.976607315033718919e+02
8.376418624364699583e-02 2.809661571306783685e+02
8.480473514031239279e-02 2.646545409611145487e+02
8.584528403697777588e-02 2.500864505682569643e+02
8.688583293364315896e-02 2.361145066016551652e+02
8.792638183030854204e-02 2.234187509366843187e+02
8.896693072697392513e-02 2.098743472640658752e+02
9.000747962363930821e-02 1.967847281202167551e+02
9.104802852030469129e-02 1.840736864942141153e+02
9.208857741697007437e-02 1.720243373890597525e+02
9.312912631363545746e-02 1.615913386215118521e+02
9.416967521030084054e-02 1.514448661197427271e+02
9.521022410696622362e-02 1.413321661718837277e+02
9.625077300363160671e-02 1.309331665205093600e+02
9.729132190029698979e-02 1.215547762049494338e+02
9.833187079696237287e-02 1.119688007596067791e+02
9.937241969362775595e-02 1.033866643718171048e+02
1.004129685902931390e-01 9.544584632115635259e+01
1.014535174869585221e-01 8.738260348609713901e+01
1.024940663836239052e-01 7.988013999860571346e+01
1.035346152802892883e-01 7.336062034171527557e+01
1.045751641769546714e-01 6.718714670969619362e+01
1.056157130736200545e-01 6.156240969437911303e+01
1.066562619702854375e-01 5.599821565456565509e+01
1.076968108669508206e-01 5.061694646890312299e+01
1.087373597636162037e-01 4.550887370317066427e+01
1.097779086602815868e-01 4.094339683194426982e+01
1.108184575569469699e-01 3.673151377031291531e+01
1.118590064536123529e-01 3.200342471560534108e+01
1.128995553502777360e-01 2.833273548210013004e+01
1.139401042469431191e-01 2.527086030913106285e+01
1.149806531436085022e-01 2.225296478179619797e+01
1.160212020402738853e-01 1.901482118774092811e+01
1.170617509369392684e-01 1.660140311222103904e+01
1.181022998336046514e-01 1.466030126541994605e+01
1.191428487302700345e-01 1.255301767284848680e+01
1.201833976269354176e-01 1.072491905358424802e+01
1.212239465236008007e-01 8.804264134374299999e+00
1.222644954202661838e-01 7.424697162289305652e+00
1.233050443169315669e-01 6.410652414106188246e+00
1.243455932135969499e-01 5.382646558410073112e+00
1.253861421102623330e-01 4.408611163226755281e+00
1.264266910069277161e-01 3.910035986400490771e+00
1.274672399035930992e-01 3.200750191382446985e+00
1.285077888002584823e-01 2.513808164819693047e+00
1.295483376969238654e-01 2.699605258789123496e+00
1.305888865935892484e-01 2.605497390847503425e+00
1.316294354902546315e-01 2.013867909921650323e+00
1.326699843869200146e-01 1.581467106082410368e+00
1.337105332835853977e-01 1.798135479675266879e+00
1.347510821802507808e-01 1.958470785099983402e+00
1.357916310769161639e-01 2.620695370108510502e+00
1.368321799735815469e-01 2.825444706423891006e+00
1.378727288702469300e-01 3.475348296575681672e+00
1.389132777669123131e-01 3.307801963425358593e+00
1.399538266635776962e-01 3.669063160559787207e+00
1.409943755602430793e-01 4.406931696653298758e+00
1.420349244569084624e-01 5.084675842462011985e+00
1.430754733535738454e-01 5.693717111001799225e+00
1.441160222502392285e-01 6.121336924667275525e+00
1.451565711469046116e-01 6.582043900608709919e+00
1.461971200435699947e-01 6.680329635253340115e+00
1.472376689402353778e-01 6.695528867219021407e+00
1.482782178369007609e-01 7.266102701991457025e+00
1.493187667335661439e-01 8.274351137246807042e+00
1.503593156302315270e-01 9.086557568026261578e+00
1.513998645268969101e-01 9.393528510725854375e+00
1.524404134235622932e-01 9.904421059213454726e+00
1.534809623202276763e-01 1.048871481469792499e+01
1.545215112168930593e-01 1.103549196573154134e+01
1.555620601135584424e-01 1.122659788967599326e+01
1.566026090102238255e-01 1.153768567187752936e+01
1.576431579068892086e-01 1.227602111310018174e+01
1.586837068035545917e-01 1.246979824379744528e+01
1.597242557002199748e-01 1.252601306365312084e+01
1.607648045968853578e-01 1.292169529338028866e+01
1.618053534935507409e-01 1.278890867539850262e+01
1.628459023902161240e-01 1.274459123943179151e+01
1.638864512868815071e-01 1.281153206677376133e+01
1.649270001835468902e-01 1.307265312036406613e+01
1.659675490802122733e-01 1.354931800415289445e+01
1.670080979768776563e-01 1.330603383352582725e+01
1.680486468735430672e-01 1.355463331877347599e+01
1.690891957702084503e-01 1.384204602890293501e+01
1.701297446668738333e-01 1.370390477110618477e+01
1.711702935635392164e-01 1.343499518987169594e+01
1.722108424602045995e-01 1.358426928216239560e+01
1.732513913568699826e-01 1.324266157202383098e+01
1.742919402535353657e-01 1.318857383387686966e+01
1.753324891502007488e-01 1.298877400351430822e+01
1.763730380468661318e-01 1.244071366506483045e+01
1.774135869435315149e-01 1.225484287178927900e+01
1.784541358401968980e-01 1.202794517792172613e+01
1.794946847368622811e-01 1.165365675935795053e+01
1.805352336335276642e-01 1.119478396729421021e+01
1.815757825301930473e-01 1.146868093933661825e+01
1.826163314268584303e-01 1.148871272283154354e+01
1.836568803235238134e-01 1.103417819600755223e+01
1.846974292201891965e-01 1.079750167974395225e+01
1.857379781168545796e-01 1.038205060545423919e+01
1.867785270135199627e-01 9.770918740863219654e+00
1.878190759101853458e-01 9.392315160821770093e+00
1.888596248068507288e-01 9.010602489540520565e+00
1.899001737035161119e-01 8.589526117597760191e+00
1.909407226001814950e-01 8.129367565837956278e+00
1.919812714968468781e-01 7.642997008770102241e+00
1.930218203935122612e-01 7.635021591246083261e+00
1.940623692901776443e-01 7.358240074321884094e+00
1.951029181868430273e-01 6.808908240407557599e+00
1.961434670835084104e-01 6.340165158406641410e+00
1.971840159801737935e-01 5.946804226891607925e+00
1.982245648768391766e-01 5.745981870243255685e+00
1.992651137735045597e-01 5.535779383030998702e+00
2.003056626701699428e-01 5.041718701323031127e+00
2.013462115668353813e-01 4.759556502368251785e+00
2.023867604635007644e-01 4.341683818387284788e+00
2.034273093601661475e-01 4.256393088863489993e+00
2.044678582568315306e-01 3.841805285189778374e+00
2.055084071534969137e-01 3.886485414761200019e+00
2.065489560501622968e-01 3.543309572511141425e+00
2.075895049468276798e-01 3.220718228444248155e+00
2.086300538434930629e-01 3.076165319958867883e+00
2.096706027401584460e-01 2.571371148458887035e+00
2.107111516368238291e-01 2.701231747530073335e+00
2.117517005334892122e-01 2.881555406538634401e+00
2.127922494301545953e-01 2.363601130311678844e+00
2.138327983268199783e-01 2.018017098751137439e+00
2.148733472234853614e-01 1.921071262469254748e+00
2.159138961201507445e-01 1.607927300619632405e+00
2.169544450168161276e-01 1.370605092833034888e+00
2.179949939134815107e-01 1.274958473273319015e+00
2.190355428101468938e-01 1.216699262384384639e+00
2.200760917068122768e-01 1.131317960651056609e+00
2.211166406034776599e-01 1.248300819779387894e+00
2.221571895001430430e-01 9.029030586033819361e-01
2.231977383968084261e-01 9.176873361912178950e-01
2.242382872934738092e-01 1.202196209374964297e+00
2.252788361901391923e-01 1.200931775426358428e+00
2.263193850868045753e-01 1.240550274165720168e+00
2.273599339834699584e-01 1.250725210730564640e+00
2.284004828801353415e-01 1.020709157408631995e+00
2.294410317768007246e-01 9.818173931914095931e-01
2.304815806734661077e-01 1.004107500685389454e+00
2.315221295701314908e-01 1.187330314512671237e+00
2.325626784667968738e-01 1.094079780454414674e+00
2.336032273634622569e-01 7.803844333150173895e-01
2.346437762601276400e-01 1.025068857323155669e+00
2.356843251567930231e-01 1.264490607333669914e+00
2.367248740534584062e-01 1.117628441324654887e+00
2.377654229501237892e-01 1.117161643836954710e+00
2.388059718467891723e-01 1.378027262394642349e+00
2.398465207434545554e-01 1.566774962850399078e+00
2.408870696401199385e-01 1.260946826062294690e+00
2.419276185367853216e-01 1.226547233504145851e+00
2.429681674334507047e-01 1.663568012042887290e+00
2.440087163301160877e-01 1.880755244899816603e+00
2.450492652267814708e-01 2.099103160281636349e+00
2.460898141234468539e-01 1.921224583518448270e+00
2.471303630201122370e-01 1.533018193390859096e+00
2.481709119167776201e-01 1.579346828593411800e+00
2.492114608134430032e-01 1.801062757261593816e+00
2.502520097101083585e-01 2.202362744298444142e+00
2.512925586067737416e-01 2.215409544347362925e+00
2.523331075034391247e-01 2.228864590576240090e+00
2.533736564001045077e-01 2.376095035420664914e+00
2.544142052967698908e-01 2.405703999455994335e+00
2.554547541934352739e-01 2.428341672056987477e+00
2.564953030901006570e-01 2.293499919691836197e+00
2.575358519867660401e-01 2.657753373561703825e+00
2.585764008834314231e-01 2.613643062718914223e+00
2.596169497800968062e-01 2.674329885761622450e+00
2.606574986767621893e-01 2.460811312017003871e+00
2.616980475734275724e-01 2.401289837481133560e+00
2.627385964700929555e-01 2.475543195334548585e+00
2.637791453667583386e-01 2.594263471729981063e+00
2.648196942634237216e-01 2.738230097203150137e+00
2.658602431600891047e-01 2.811385105542598239e+00
2.669007920567544878e-01 2.494357364940352539e+00
2.679413409534198709e-01 2.558268577747615069e+00
2.689818898500852540e-01 2.358089149868074941e+00
2.700224387467506371e-01 2.444953603938301967e+00
2.710629876434160201e-01 2.654204067922648846e+00
2.721035365400814032e-01 2.694846380979260658e+00
2.731440854367467863e-01 2.557381181998639619e+00
2.741846343334121694e-01 2.498422940887969901e+00
2.752251832300775525e-01 2.388479229995372322e+00
2.762657321267429356e-01 2.226868433800039071e+00
2.773062810234083186e-01 2.189771650747786680e+00
2.783468299200737017e-01 2.285565015458733029e+00
2.793873788167390848e-01 2.223362940042971303e+00
2.804279277134044679e-01 1.967799793618993931e+00
2.814684766100698510e-01 1.990399747658781138e+00
2.825090255067352341e-01 1.839495622271037689e+00
2.835495744034006171e-01 1.936696165387974844e+00
2.845901233000660002e-01 1.855239694942593331e+00
2.856306721967313833e-01 1.674290416585407115e+00
2.866712210933967664e-01 1.766898878894824776e+00
2.877117699900621495e-01 1.869519010934755698e+00
2.887523188867275326e-01 2.085623659856711498e+00
2.897928677833929156e-01 1.824706564780253615e+00
2.908334166800582987e-01 1.546810025256924348e+00
2.918739655767236818e-01 1.655376591045520485e+00
2.929145144733890649e-01 1.665414615721953595e+00
2.939550633700544480e-01 1.332857265473549546e+00
2.949956122667198311e-01 1.141246370373153241e+00
2.960361611633852141e-01 1.294305827922784147e+00
2.970767100600505972e-01 1.192969184206571498e+00
2.981172589567159803e-01 9.154590567676557100e-01
2.991578078533813634e-01 8.545974859045522010e-01
3.001983567500468020e-01 9.558550610378979684e-01
3.012389056467121851e-01 9.803040210539357702e-01
3.022794545433775681e-01 8.636042762713280752e-01
3.033200034400429512e-01 7.190288798349904198e-01
3.043605523367083343e-01 9.838494122062684255e-01
3.054011012333737174e-01 1.244660962933647141e+00
3.064416501300391005e-01 9.010337125016576465e-01
3.074821990267044836e-01 7.658044727267991902e-01
3.085227479233698666e-01 8.548445793539727333e-01
3.095632968200352497e-01 8.034701451541188533e-01
3.106038457167006328e-01 7.361873574930584141e-01
3.116443946133660159e-01 7.919217373499556345e-01
3.126849435100313990e-01 7.328113790328636412e-01
3.137254924066967821e-01 8.546328302205807859e-01
3.147660413033621651e-01 1.021766388150716409e+00
3.158065902000275482e-01 8.359721967448372482e-01
3.168471390966929313e-01 8.455982662705210373e-01
3.178876879933583144e-01 6.660498599591662128e-01
3.189282368900236975e-01 7.423976976748853929e-01
3.199687857866890806e-01 7.582844323796926744e-01
3.210093346833544636e-01 9.800528847553877654e-01
3.220498835800198467e-01 8.649198749610818027e-01
3.230904324766852298e-01 7.509751237375326127e-01
3.241309813733506129e-01 8.066255533289954371e-01
3.251715302700159960e-01 8.635741266217706880e-01
3.262120791666813790e-01 6.608582040694628290e-01
3.272526280633467621e-01 5.851365349434516361e-01
3.282931769600121452e-01 8.958248779854116606e-01
3.293337258566775283e-01 6.705554432506168894e-01
3.303742747533429114e-01 8.655601667992840476e-01
3.314148236500082945e-01 1.015710155314220486e+00
3.324553725466736775e-01 1.040124380057786624e+00
3.334959214433390606e-01 9.695004940027125429e-01
3.345364703400044437e-01 9.329079226935910185e-01
3.355770192366698268e-01 8.562757282620196975e-01
3.366175681333352099e-01 9.390080800894509139e-01
3.376581170300005930e-01 9.440641519826584727e-01
3.386986659266659760e-01 7.217372259785541644e-01
3.397392148233313591e-01 7.602864682123531281e-01
3.407797637199967422e-01 9.599279793597226274e-01
3.418203126166621253e-01 9.407733909669246941e-01
3.428608615133275084e-01 7.773272255711312084e-01
3.439014104099928915e-01 8.321571939624874403e-01
3.449419593066582745e-01 9.443828141561709799e-01
3.459825082033236576e-01 1.004186209619014392e+00
3.470230570999890407e-01 1.023089924689635666e+00
3.480636059966544238e-01 1.127483316011694825e+00
3.491041548933198069e-01 9.490479396870625806e-01
3.501447037899851900e-01 9.312824110381221487e-01
3.511852526866505730e-01 1.077718739467275810e+00
3.522258015833159561e-01 8.742025694444954809e-01
3.532663504799813392e-01 8.486710057721253975e-01
3.543068993766467223e-01 7.923245780535737026e-01
3.553474482733121054e-01 9.607316529811242845e-01
3.563879971699774885e-01 1.123955348144274780e+00
3.574285460666428715e-01 1.001410884959540226e+00
3.584690949633082546e-01 1.078212068036663140e+00
3.595096438599736377e-01 1.336827211008490224e+00
3.605501927566390208e-01 1.230337824978285255e+00
3.615907416533044039e-01 1.002228606726738747e+00
3.626312905499697870e-01 1.070892092676984930e+00
3.636718394466351700e-01 1.043870081376859105e+00
3.647123883433005531e-01 1.104764580136325947e+00
3.657529372399659362e-01 1.029775075038752874e+00
3.667934861366313193e-01 1.091257421490070101e+00
3.678340350332967024e-01 1.113331752611351533e+00
3.688745839299620854e-01 1.144285792695384885e+00
3.699151328266274685e-01 1.008063703990334403e+00
3.709556817232928516e-01 1.028237750998826527e+00
3.719962306199582347e-01 6.947288282317494179e-01
3.730367795166236178e-01 7.877027968697163374e-01
3.740773284132890009e-01 1.044506571832791053e+00
3.751178773099543839e-01 9.574779051856410206e-01
3.761584262066197670e-01 8.150473472084662774e-01
3.771989751032851501e-01 8.782497105595048481e-01
3.782395239999505332e-01 1.056991539545485637e+00
3.792800728966159163e-01 9.436992345679016125e-01
3.803206217932812994e-01 8.093184111752158572e-01
3.813611706899466824e-01 9.022489298944762481e-01
3.824017195866120655e-01 1.114796508239532358e+00
3.834422684832774486e-01 8.983112486714190936e-01
3.844828173799428317e-01 9.497284646152941434e-01
3.855233662766082148e-01 1.037806837378852265e+00
3.865639151732735979e-01 1.038792698266806980e+00
3.876044640699389809e-01 8.582245311224170337e-01
3.886450129666043640e-01 6.925412301951574534e-01
3.896855618632697471e-01 7.676389902061657722e-01
3.907261107599351302e-01 9.253133345997177628e-01
3.917666596566005133e-01 6.237483460042803074e-01
3.928072085532658964e-01 7.046499745962506722e-01
3.938477574499312794e-01 7.354050362960400378e-01
3.948883063465966625e-01 7.589881325211749186e-01
3.959288552432620456e-01 5.881681814064805280e-01
3.969694041399274287e-01 6.295547191783263941e-01
3.980099530365928118e-01 8.489163233189707114e-01
3.990505019332581949e-01 8.019122357342034491e-01
4.000910508299235779e-01 7.621171874773615684e-01
4.011315997265889610e-01 7.661216461917952358e-01
4.021721486232543441e-01 6.831495152371402924e-01
4.032126975199197272e-01 5.233205834513690036e-01
4.042532464165851103e-01 4.690678809413135752e-01
4.052937953132504934e-01 7.303220108749854944e-01
4.063343442099158764e-01 5.661897997173319652e-01
4.073748931065812595e-01 4.970675229187548894e-01
4.084154420032466426e-01 4.762819229738362026e-01
4.094559908999120257e-01 5.059683188184180835e-01
4.104965397965774088e-01 6.153695038095854386e-01
4.115370886932427918e-01 4.783791840021933695e-01
4.125776375899081749e-01 4.838107693087785321e-01
4.136181864865735580e-01 8.045805055776256154e-01
4.146587353832389411e-01 6.973608734980345503e-01
4.156992842799043242e-01 5.056096060077983623e-01
4.167398331765697073e-01 5.893081517564624505e-01
4.177803820732350903e-01 5.191689850038088139e-01
4.188209309699004734e-01 4.889436648124920737e-01
4.198614798665658565e-01 4.651017703365987188e-01
4.209020287632312396e-01 5.233124825700912197e-01
4.219425776598966227e-01 6.758874268684387232e-01
4.229831265565620058e-01 7.566285070048195394e-01
4.240236754532273888e-01 6.160040046192811758e-01
4.250642243498927719e-01 5.265497517015127471e-01
4.261047732465581550e-01 3.972219990786420851e-01
4.271453221432235381e-01 6.293253445478619312e-01
4.281858710398889212e-01 7.554858029758797500e-01
4.292264199365543043e-01 8.447694168872104115e-01
4.302669688332196873e-01 8.695733815832262792e-01
4.313075177298850704e-01 7.762615852680738726e-01
4.323480666265504535e-01 6.431106693904347082e-01
4.333886155232158366e-01 5.764069143237868786e-01
4.344291644198812197e-01 5.816505535784521896e-01
