# q (1/Angstrom), Intensity (arb)
2.029070354705860696e-02 4.904407323173335840e+02
2.133125244372399004e-02 4.861032004202236863e+02
2.237180134038937659e-02 4.817294256479387968e+02
2.341235023705475968e-02 4.802471094812736965e+02
2.445289913372014276e-02 4.766516566446451293e+02
2.549344803038552584e-02 4.682571209606911680e+02
2.653399692705091240e-02 4.676502004697901498e+02
2.757454582371629548e-02 4.623774712432579008e+02
2.861509472038167856e-02 4.541545946728395506e+02
2.965564361704706164e-02 4.495485140041641898e+02
3.069619251371244473e-02 4.461534133641081894e+02
3.173674141037782781e-02 4.399743577645152754e+02
3.277729030704321089e-02 4.329306172821574137e+02
3.381783920370859398e-02 4.283895128053967483e+02
3.485838810037397706e-02 4.226920715660320980e+02
3.589893699703936014e-02 4.131673309772407379e+02
3.693948589370474322e-02 4.065133959518834104e+02
3.798003479037012631e-02 4.023735845286573749e+02
3.902058368703550939e-02 3.960049954005131099e+02
4.006113258370089247e-02 3.873052943522623082e+02
4.110168148036627556e-02 3.806145469882870316e+02
4.214223037703165864e-02 3.749979911606698124e+02
4.318277927369704866e-02 3.645069053238310630e+02
4.422332817036243174e-02 3.569419950694722843e+02
4.526387706702781483e-02 3.502341816000260337e+02
4.630442596369319791e-02 3.409098734047585708e+02
4.734497486035858099e-02 3.333746662915365278e+02
4.838552375702396408e-02 3.264499476713448303e+02
4.942607265368934716e-02 3.182233597118357693e+02
5.046662155035473024e-02 3.111250457134534599e+02
5.150717044702011332e-02 3.035067943646997151e+02
5.254771934368549641e-02 2.967949233678399992e+02
5.358826824035087949e-02 2.874182448644734222e+02
5.462881713701626257e-02 2.798967216941912852e+02
5.566936603368164566e-02 2.734214945595790027e+02
5.670991493034702874e-02 2.654422943192320758e+02
5.775046382701241182e-02 2.573634368619394195e+02
5.879101272367779490e-02 2.487256326935583388e+02
5.983156162034317799e-02 2.407391800275511287e+02
6.087211051700856107e-02 2.338465697513435089e+02
6.191265941367394415e-02 2.277442533515298067e+02
6.295320831033933417e-02 2.210766225177719946e+02
6.399375720700471726e-02 2.139627758986056563e+02
6.503430610367010034e-02 2.067271981289265739e+02
6.607485500033548342e-02 1.979971430846821931e+02
6.711540389700086651e-02 1.910214507170971956e+02
6.815595279366624959e-02 1.837230633977306411e+02
6.919650169033163267e-02 1.776807566916437793e+02
7.023705058699701576e-02 1.717053299433575262e+02
7.127759948366239884e-02 1.661804066211206532e+02
7.231814838032778192e-02 1.603621842868309102e+02
7.335869727699316500e-02 1.549902164332969789e+02
7.439924617365854809e-02 1.496993828694390345e+02
7.543979507032393117e-02 1.430444091185983666e+02
7.648034396698931425e-02 1.366448499544265474e+02
7.752089286365469734e-02 1.331627572814073517e+02
7.856144176032008042e-02 1.319990991317091868e+02
7.960199065698546350e-02 1.322056881592713751e+02
8.064253955365084658e-02 1.414358509454116586e+02
8.168308845031622967e-02 2.183781911550254904e+02
8.272363734698161275e-02 4.728485522611603642e+02
8.376418624364699583e-02 6.152968437968690978e+02
8.480473514031239279e-02 3.975820230050352961e+02
8.584528403697777588e-02 2.511920810527153378e+02
8.688583293364315896e-02 3.364520599539816317e+02
8.792638183030854204e-02 6.365330088358570038e+02
8.896693072697392513e-02 6.876768516534455102e+02
9.000747962363930821e-02 3.839409781062194043e+02
9.104802852030469129e-02 2.605294565109558107e+02
9.208857741697007437e-02 3.473267421746064656e+02
9.312912631363545746e-02 6.556376439968696559e+02
9.416967521030084054e-02 1.008360802400331295e+03
9.521022410696622362e-02 8.300647255191893237e+02
9.625077300363160671e-02 3.851286485338026750e+02
9.729132190029698979e-02 1.781332736331470130e+02
9.833187079696237287e-02 1.115847127536878247e+02
9.937241969362775595e-02 8.224794277318112279e+01
1.004129685902931390e-01 6.933934118369977284e+01
1.014535174869585221e-01 6.682652415064312379e+01
1.024940663836239052e-01 6.029578945932311740e+01
1.035346152802892883e-01 4.639034787058977827e+01
1.045751641769546714e-01 3.660471833308609746e+01
1.056157130736200545e-01 3.153341015953485993e+01
1.066562619702854375e-01 2.767518319102844160e+01
1.076968108669508206e-01 2.444208306600265246e+01
1.087373597636162037e-01 2.202474787605285655e+01
1.097779086602815868e-01 1.971744427081161533e+01
1.108184575569469699e-01 1.750874324752083311e+01
1.118590064536123529e-01 1.559808936336682805e+01
1.128995553502777360e-01 1.414932267554728540e+01
1.139401042469431191e-01 1.271465566796646129e+01
1.149806531436085022e-01 1.179036014877389249e+01
1.160212020402738853e-01 1.050259722759121317e+01
1.170617509369392684e-01 9.962831588412580430e+00
1.181022998336046514e-01 9.292214773421008545e+00
1.191428487302700345e-01 8.786789929864365689e+00
1.201833976269354176e-01 9.450883762399062249e+00
1.212239465236008007e-01 9.154482374275360712e+00
1.222644954202661838e-01 7.520533851807925885e+00
1.233050443169315669e-01 5.683990679057874473e+00
1.243455932135969499e-01 4.366126259608879678e+00
1.253861421102623330e-01 3.037264944333326611e+00
1.264266910069277161e-01 2.583549976165524953e+00
1.274672399035930992e-01 2.666170297756142560e+00
1.285077888002584823e-01 2.122153678574026259e+00
1.295483376969238654e-01 1.645064293989069171e+00
1.305888865935892484e-01 1.697481114302384242e+00
1.316294354902546315e-01 1.739874381085847688e+00
1.326699843869200146e-01 1.317091787381581725e+00
1.337105332835853977e-01 1.405994092661799755e+00
1.347510821802507808e-01 1.611846849964308603e+00
1.357916310769161639e-01 1.448848385591286814e+00
1.368321799735815469e-01 1.397951391078770200e+00
1.378727288702469300e-01 1.490987993497391528e+00
1.389132777669123131e-01 1.652330756263225453e+00
1.399538266635776962e-01 1.816017222607989368e+00
1.409943755602430793e-01 2.263146512806830657e+00
1.420349244569084624e-01 3.263372507180225313e+00
1.430754733535738454e-01 7.339857021365531864e+00
1.441160222502392285e-01 1.538599945662817348e+01
1.451565711469046116e-01 1.418773260869819097e+01
1.461971200435699947e-01 6.559043431254512058e+00
1.472376689402353778e-01 3.961512167167629883e+00
1.482782178369007609e-01 3.533284931593644984e+00
1.493187667335661439e-01 3.541534738152748218e+00
1.503593156302315270e-01 4.153067764481679802e+00
1.513998645268969101e-01 4.699948246490730952e+00
1.524404134235622932e-01 5.766305837121773692e+00
1.534809623202276763e-01 7.152647665732903448e+00
1.545215112168930593e-01 9.829753426336782951e+00
1.555620601135584424e-01 1.651729316798658687e+01
1.566026090102238255e-01 2.360790628704695848e+01
1.576431579068892086e-01 2.162861872872541014e+01
1.586837068035545917e-01 1.383686975160074795e+01
1.597242557002199748e-01 9.307112610189165025e+00
1.607648045968853578e-01 7.756639717682283219e+00
1.618053534935507409e-01 7.456999111122044610e+00
1.628459023902161240e-01 6.870195175420363398e+00
1.638864512868815071e-01 6.693723503339185754e+00
1.649270001835468902e-01 7.529861936216203588e+00
1.659675490802122733e-01 1.107884427239745762e+01
1.670080979768776563e-01 1.686706820249017724e+01
1.680486468735430672e-01 3.077516788862081754e+01
1.690891957702084503e-01 5.996176284724592165e+01
1.701297446668738333e-01 5.494309398569900793e+01
1.711702935635392164e-01 3.294183952967443929e+01
1.722108424602045995e-01 3.530414013933182815e+01
1.732513913568699826e-01 3.144666696195917766e+01
1.742919402535353657e-01 1.701128068012362249e+01
1.753324891502007488e-01 1.137674547108566614e+01
1.763730380468661318e-01 1.306506199271766278e+01
1.774135869435315149e-01 1.306391775869049354e+01
1.784541358401968980e-01 8.822685155799938173e+00
1.794946847368622811e-01 6.076897369213657640e+00
1.805352336335276642e-01 5.478910427862963672e+00
1.815757825301930473e-01 5.072047521549251314e+00
1.826163314268584303e-01 4.844567215987542141e+00
1.836568803235238134e-01 4.871797257763862632e+00
1.846974292201891965e-01 4.886124322948560916e+00
1.857379781168545796e-01 4.835126125028573085e+00
1.867785270135199627e-01 5.099077030951271183e+00
1.878190759101853458e-01 5.987338537064548660e+00
1.888596248068507288e-01 6.465562613104900436e+00
1.899001737035161119e-01 5.824493103051711529e+00
1.909407226001814950e-01 4.823481209215806587e+00
1.919812714968468781e-01 4.516904252007911680e+00
1.930218203935122612e-01 4.283846884431778079e+00
1.940623692901776443e-01 3.880604223355806681e+00
1.951029181868430273e-01 3.887978638037200341e+00
1.961434670835084104e-01 3.985167432700496448e+00
1.971840159801737935e-01 3.714652309149148124e+00
1.982245648768391766e-01 3.077216657046818682e+00
1.992651137735045597e-01 2.661160354995416810e+00
2.003056626701699428e-01 2.312454590502284191e+00
2.013462115668353813e-01 2.357033235770781943e+00
2.023867604635007644e-01 2.124139778001808310e+00
2.034273093601661475e-01 1.980866416809799802e+00
2.044678582568315306e-01 1.711082454466819058e+00
2.055084071534969137e-01 1.533135504712394237e+00
2.065489560501622968e-01 1.449470430673805765e+00
2.075895049468276798e-01 1.326356203129620326e+00
2.086300538434930629e-01 1.288905474186975653e+00
2.096706027401584460e-01 1.363157631203055331e+00
2.107111516368238291e-01 1.483087046186955860e+00
2.117517005334892122e-01 1.732155268243783297e+00
2.127922494301545953e-01 1.833854150080583167e+00
2.138327983268199783e-01 1.771172204711703557e+00
2.148733472234853614e-01 1.183264604496603312e+00
2.159138961201507445e-01 9.137735773329609401e-01
2.169544450168161276e-01 9.155406450908145644e-01
2.179949939134815107e-01 7.937844680482477600e-01
2.190355428101468938e-01 4.322839996402905172e-01
2.200760917068122768e-01 5.430142602951661956e-01
2.211166406034776599e-01 5.479276613902435145e-01
2.221571895001430430e-01 5.229348480032633972e-01
2.231977383968084261e-01 3.623108756143018638e-01
2.242382872934738092e-01 5.427393947423020393e-01
2.252788361901391923e-01 6.942042643000476687e-01
2.263193850868045753e-01 5.374379642752948882e-01
2.273599339834699584e-01 2.790876438252460900e-01
2.284004828801353415e-01 2.337894155374478089e-01
2.294410317768007246e-01 3.864492694236751902e-01
2.304815806734661077e-01 2.450660363573966549e-01
2.315221295701314908e-01 3.154514450550820470e-01
2.325626784667968738e-01 2.801393841082635561e-01
2.336032273634622569e-01 2.503960927702628680e-01
2.346437762601276400e-01 3.260258331711476387e-01
2.356843251567930231e-01 6.194867039622735660e-01
2.367248740534584062e-01 8.544581458560926990e-01
2.377654229501237892e-01 8.847275475097440278e-01
2.388059718467891723e-01 7.755722813695626883e-01
2.398465207434545554e-01 7.427798134220218174e-01
2.408870696401199385e-01 5.468134123950747494e-01
2.419276185367853216e-01 7.851071810251148975e-01
2.429681674334507047e-01 8.824479530553333007e-01
2.440087163301160877e-01 8.606839900074305660e-01
2.450492652267814708e-01 8.364443870843381035e-01
2.460898141234468539e-01 9.257433783151221007e-01
2.471303630201122370e-01 8.149622415018669130e-01
2.481709119167776201e-01 9.275362954371857427e-01
2.492114608134430032e-01 1.507333597130187997e+00
2.502520097101083585e-01 2.012123902018039701e+00
2.512925586067737416e-01 1.778496749491221607e+00
2.523331075034391247e-01 1.225052420218020188e+00
2.533736564001045077e-01 1.055822507631710039e+00
2.544142052967698908e-01 1.093853299855069849e+00
2.554547541934352739e-01 1.701407269004352685e+00
2.564953030901006570e-01 2.688821507882796169e+00
2.575358519867660401e-01 3.456944788517283484e+00
2.585764008834314231e-01 2.743639489751412697e+00
2.596169497800968062e-01 1.749955183809621673e+00
2.606574986767621893e-01 1.444332578194153172e+00
2.616980475734275724e-01 1.316414076277904854e+00
2.627385964700929555e-01 1.198477959721902408e+00
2.637791453667583386e-01 2.036291974820702677e+00
2.648196942634237216e-01 4.035787764961721535e+00
2.658602431600891047e-01 4.564937138302987307e+00
2.669007920567544878e-01 2.708222999482448046e+00
2.679413409534198709e-01 1.351459087538021464e+00
2.689818898500852540e-01 1.197649853444588075e+00
2.700224387467506371e-01 1.183060381144205309e+00
2.710629876434160201e-01 1.189195720172264714e+00
2.721035365400814032e-01 1.272120056179627312e+00
2.731440854367467863e-01 1.196599538872536783e+00
2.741846343334121694e-01 1.203872778956082357e+00
2.752251832300775525e-01 1.586264545246496738e+00
2.762657321267429356e-01 1.785702828153990396e+00
2.773062810234083186e-01 1.938434961149908986e+00
2.783468299200737017e-01 1.749121060717325093e+00
2.793873788167390848e-01 1.370265515350830299e+00
2.804279277134044679e-01 1.393521543526066608e+00
2.814684766100698510e-01 1.212137270443214732e+00
2.825090255067352341e-01 1.293510143796343215e+00
2.835495744034006171e-01 1.257263472543581173e+00
2.845901233000660002e-01 1.021313097811180626e+00
2.856306721967313833e-01 8.105267972026979351e-01
2.866712210933967664e-01 1.026685944468688660e+00
2.877117699900621495e-01 1.270728012663134621e+00
2.887523188867275326e-01 1.444313303284765482e+00
2.897928677833929156e-01 1.210355184418361318e+00
2.908334166800582987e-01 6.901511724950211146e-01
2.918739655767236818e-01 3.946928325823755301e-01
2.929145144733890649e-01 4.830219241432764932e-01
2.939550633700544480e-01 6.036274763566780166e-01
2.949956122667198311e-01 6.095325776144449037e-01
2.960361611633852141e-01 7.177434533352311519e-01
2.970767100600505972e-01 7.447251090161692844e-01
2.981172589567159803e-01 5.959391823974407032e-01
2.991578078533813634e-01 6.832975110115420136e-01
3.001983567500468020e-01 7.890746268284409837e-01
3.012389056467121851e-01 1.131375428109954839e+00
3.022794545433775681e-01 1.455384307361384799e+00
3.033200034400429512e-01 1.395661154055961362e+00
3.043605523367083343e-01 1.181042170528286306e+00
3.054011012333737174e-01 7.389034234403446533e-01
3.064416501300391005e-01 5.149415721853713990e-01
3.074821990267044836e-01 5.218589488790641440e-01
3.085227479233698666e-01 5.162462447789479825e-01
3.095632968200352497e-01 5.013515367444902893e-01
3.106038457167006328e-01 3.859573556339128686e-01
3.116443946133660159e-01 3.489901963044168554e-01
3.126849435100313990e-01 4.726045060446288915e-01
3.137254924066967821e-01 4.817097052015526515e-01
3.147660413033621651e-01 4.628135613685167016e-01
3.158065902000275482e-01 4.948437404616576885e-01
3.168471390966929313e-01 2.934766049133870069e-01
3.178876879933583144e-01 1.941975918469616147e-01
3.189282368900236975e-01 2.140287392627975294e-01
3.199687857866890806e-01 2.769371150921635660e-01
3.210093346833544636e-01 2.240947960824861696e-01
3.220498835800198467e-01 5.725565950228528322e-02
3.230904324766852298e-01 1.622344051397632825e-01
3.241309813733506129e-01 3.608742726212703644e-01
3.251715302700159960e-01 2.479464851028119199e-01
3.262120791666813790e-01 2.487964286191868268e-01
3.272526280633467621e-01 3.036307384768441864e-01
3.282931769600121452e-01 2.501539895712454609e-01
3.293337258566775283e-01 3.074145620699226811e-01
3.303742747533429114e-01 1.836608305305489353e-01
3.314148236500082945e-01 1.372687787174484697e-01
3.324553725466736775e-01 3.081622103653742784e-01
3.334959214433390606e-01 2.498669776156958733e-01
3.345364703400044437e-01 2.537553836186958733e-01
3.355770192366698268e-01 5.903847268029629447e-01
3.366175681333352099e-01 6.255247786414201983e-01
3.376581170300005930e-01 4.473051635352831568e-01
3.386986659266659760e-01 4.631502252239627637e-01
3.397392148233313591e-01 4.377439894239181228e-01
3.407797637199967422e-01 3.666040421083351930e-01
3.418203126166621253e-01 2.268713192179738769e-01
3.428608615133275084e-01 2.374133003194849323e-01
3.439014104099928915e-01 2.503119026719176077e-01
3.449419593066582745e-01 3.328535205560108068e-01
3.459825082033236576e-01 3.902946481106397414e-01
3.470230570999890407e-01 4.568553799769254908e-01
3.480636059966544238e-01 5.014788955403943760e-01
3.491041548933198069e-01 5.708544151900767361e-01
3.501447037899851900e-01 3.540247551050761388e-01
3.511852526866505730e-01 3.693714182530705159e-01
3.522258015833159561e-01 5.361942219813720101e-01
3.532663504799813392e-01 8.528325134891758807e-01
3.543068993766467223e-01 6.711292720973993653e-01
3.553474482733121054e-01 5.031793761896246053e-01
3.563879971699774885e-01 5.617452576352661708e-01
3.574285460666428715e-01 6.602575933674437181e-01
3.584690949633082546e-01 5.620533891164392060e-01
3.595096438599736377e-01 5.110368098591173691e-01
3.605501927566390208e-01 6.338591087209763941e-01
3.615907416533044039e-01 6.014698543537981834e-01
3.626312905499697870e-01 6.390197542925690755e-01
3.636718394466351700e-01 8.597103083764281450e-01
3.647123883433005531e-01 1.141902666237378128e+00
3.657529372399659362e-01 1.234801916308644110e+00
3.667934861366313193e-01 1.136590369152312263e+00
3.678340350332967024e-01 8.843754545265412048e-01
3.688745839299620854e-01 7.199692021758963278e-01
3.699151328266274685e-01 6.156909858758758958e-01
3.709556817232928516e-01 5.589006627272148364e-01
3.719962306199582347e-01 5.675258584068103573e-01
3.730367795166236178e-01 8.096041216117413342e-01
3.740773284132890009e-01 9.083704016125615510e-01
3.751178773099543839e-01 7.008467798675575011e-01
3.761584262066197670e-01 5.837122559638885377e-01
3.771989751032851501e-01 6.859091813644866420e-01
3.782395239999505332e-01 6.539347274631843732e-01
3.792800728966159163e-01 6.195815589119284539e-01
3.803206217932812994e-01 7.025516865615344386e-01
3.813611706899466824e-01 7.616388295051237378e-01
3.824017195866120655e-01 8.320130087109021133e-01
3.834422684832774486e-01 6.418766524957035813e-01
3.844828173799428317e-01 6.207004502721709116e-01
3.855233662766082148e-01 5.631010829302844911e-01
3.865639151732735979e-01 5.288415120888743104e-01
3.876044640699389809e-01 4.779734515120459548e-01
3.886450129666043640e-01 4.551803676308097124e-01
3.896855618632697471e-01 4.736335611651796285e-01
3.907261107599351302e-01 5.435129097551723021e-01
3.917666596566005133e-01 5.491415746269403542e-01
3.928072085532658964e-01 5.208961964317992965e-01
3.938477574499312794e-01 3.773016792597445601e-01
3.948883063465966625e-01 3.663585730351215375e-01
3.959288552432620456e-01 2.533129661454260884e-01
3.969694041399274287e-01 2.077754952528465537e-01
3.980099530365928118e-01 1.983982124975263162e-01
3.990505019332581949e-01 1.293414069381064735e-01
4.000910508299235779e-01 8.963653475060695541e-02
4.011315997265889610e-01 2.955493120542485030e-02
4.021721486232543441e-01 2.805313465634888814e-01
4.032126975199197272e-01 4.245649384968182005e-01
4.042532464165851103e-01 5.448888467796280111e-01
4.052937953132504934e-01 3.720465050472903101e-01
4.063343442099158764e-01 3.100265855565140782e-01
4.073748931065812595e-01 3.768172983321527170e-01
4.084154420032466426e-01 4.762546625570749370e-01
4.094559908999120257e-01 4.027384596925536187e-01
4.104965397965774088e-01 2.496652604984817003e-01
4.115370886932427918e-01 2.695482492253766793e-01
4.125776375899081749e-01 3.362031717268294528e-01
4.136181864865735580e-01 3.618251613606950912e-01
4.146587353832389411e-01 3.279291174809735310e-01
4.156992842799043242e-01 2.601324346078470739e-01
4.167398331765697073e-01 2.788474369891851268e-01
4.177803820732350903e-01 3.363666476184477006e-01
4.188209309699004734e-01 2.965546947178054893e-01
4.198614798665658565e-01 3.067345002770522910e-01
4.209020287632312396e-01 3.822639947657684445e-01
4.219425776598966227e-01 5.605702747923153595e-01
4.229831265565620058e-01 4.016861104003197624e-01
4.240236754532273888e-01 3.932521969932984973e-01
4.250642243498927719e-01 3.292457294319639516e-01
4.261047732465581550e-01 4.537690903582536350e-01
4.271453221432235381e-01 3.453775819859501439e-01
4.281858710398889212e-01 9.103586717057154942e-02
4.292264199365543043e-01 1.927389614081747027e-01
4.302669688332196873e-01 3.943791314374358592e-01
4.313075177298850704e-01 2.867816395794626771e-01
4.323480666265504535e-01 3.052204126499518111e-01
4.333886155232158366e-01 3.513358834060014146e-01
4.344291644198812197e-01 4.065534460653736915e-01
