# q (1/Angstrom), Intensity (arb)
2.029070354705860696e-02 1.613767027652341312e+03
2.133125244372399004e-02 1.609146714609228411e+03
2.237180134038937659e-02 1.602556485312186851e+03
2.341235023705475968e-02 1.589944400023080789e+03
2.445289913372014276e-02 1.573445397225880470e+03
2.549344803038552584e-02 1.571602255222747772e+03
2.653399692705091240e-02 1.554026095307936885e+03
2.757454582371629548e-02 1.535487796658690058e+03
2.861509472038167856e-02 1.513745457748313129e+03
2.965564361704706164e-02 1.491058366615976411e+03
3.069619251371244473e-02 1.470109583534618650e+03
3.173674141037782781e-02 1.457998193603406207e+03
3.277729030704321089e-02 1.436644718541029533e+03
3.381783920370859398e-02 1.409586599646927198e+03
3.485838810037397706e-02 1.387604673568902854e+03
3.589893699703936014e-02 1.364455548162359264e+03
3.693948589370474322e-02 1.344378555063459089e+03
3.798003479037012631e-02 1.318150317017052430e+03
3.902058368703550939e-02 1.292736567027631281e+03
4.006113258370089247e-02 1.265972845642218090e+03
4.110168148036627556e-02 1.242207444484379721e+03
4.214223037703165864e-02 1.220350440995388681e+03
4.318277927369704866e-02 1.194146239101130050e+03
4.422332817036243174e-02 1.164301164191802400e+03
4.526387706702781483e-02 1.135299039693711393e+03
4.630442596369319791e-02 1.113316685144999383e+03
4.734497486035858099e-02 1.087762004682562974e+03
4.838552375702396408e-02 1.058663063629926683e+03
4.942607265368934716e-02 1.030435965341411929e+03
5.046662155035473024e-02 1.002697192156505594e+03
5.150717044702011332e-02 9.749969573254369379e+02
5.254771934368549641e-02 9.490434971255610890e+02
5.358826824035087949e-02 9.253829403567463032e+02
5.462881713701626257e-02 9.015510684349793564e+02
5.566936603368164566e-02 8.754994397135415056e+02
5.670991493034702874e-02 8.479941711348998297e+02
5.775046382701241182e-02 8.204590979274815936e+02
5.879101272367779490e-02 7.945885820577624372e+02
5.983156162034317799e-02 7.704814431276537334e+02
6.087211051700856107e-02 7.458157627963664709e+02
6.191265941367394415e-02 7.214281257696555940e+02
6.295320831033933417e-02 6.977922689471787407e+02
6.399375720700471726e-02 6.730167415578159762e+02
6.503430610367010034e-02 6.486274999522171356e+02
6.607485500033548342e-02 6.255489951185670634e+02
6.711540389700086651e-02 6.008882328430478310e+02
6.815595279366624959e-02 5.767091071922599212e+02
6.919650169033163267e-02 5.556273584000183519e+02
7.023705058699701576e-02 5.342207883560296295e+02
7.127759948366239884e-02 5.136413672498890719e+02
7.231814838032778192e-02 4.900949532192918809e+02
7.335869727699316500e-02 4.691064921691209975e+02
7.439924617365854809e-02 4.497023195810032234e+02
7.543979507032393117e-02 4.286278625249956917e+02
7.648034396698931425e-02 4.106745010888791967e+02
7.752089286365469734e-02 3.906785341008463206e+02
7.856144176032008042e-02 3.708536650848800491e+02
7.960199065698546350e-02 3.546030837748146496e+02
8.064253955365084658e-02 3.362765328865661445e+02
8.168308845031622967e-02 3.185899234724213898e+02
8.272363734698161275e-02 3.013036315167604471e+02
8.376418624364699583e-02 2.856568100059478184e+02
8.480473514031239279e-02 2.703716071827447536e+02
8.584528403697777588e-02 2.567608483924772145e+02
8.688583293364315896e-02 2.421080033780006886e+02
8.792638183030854204e-02 2.275032307758817751e+02
8.896693072697392513e-02 2.141384778580521413e+02
9.000747962363930821e-02 2.017848606241453524e+02
9.104802852030469129e-02 1.895152030382933219e+02
9.208857741697007437e-02 1.761923965519336548e+02
9.312912631363545746e-02 1.632315896468992946e+02
9.416967521030084054e-02 1.523907590952174189e+02
9.521022410696622362e-02 1.423798695841194615e+02
9.625077300363160671e-02 1.324826039727712441e+02
9.729132190029698979e-02 1.232090167518385329e+02
9.833187079696237287e-02 1.145871962185002815e+02
9.937241969362775595e-02 1.053825559542298720e+02
1.004129685902931390e-01 9.689152145021836304e+01
1.014535174869585221e-01 8.927582862194780944e+01
1.024940663836239052e-01 8.175125875587072244e+01
1.035346152802892883e-01 7.420520987626784404e+01
1.045751641769546714e-01 6.812906617837880674e+01
1.056157130736200545e-01 6.206750495133312739e+01
1.066562619702854375e-01 5.645185756248726960e+01
1.076968108669508206e-01 5.097061155113723174e+01
1.087373597636162037e-01 4.634955711144429813e+01
1.097779086602815868e-01 4.198826774650992633e+01
1.108184575569469699e-01 3.707942439916212152e+01
1.118590064536123529e-01 3.253408652560304404e+01
1.128995553502777360e-01 2.854556012827716671e+01
1.139401042469431191e-01 2.526400639150116234e+01
1.149806531436085022e-01 2.263850647544201422e+01
1.160212020402738853e-01 1.954923530153780575e+01
1.170617509369392684e-01 1.702579197373345110e+01
1.181022998336046514e-01 1.437556522112801360e+01
1.191428487302700345e-01 1.228748399194075347e+01
1.201833976269354176e-01 1.059102590100166097e+01
1.212239465236008007e-01 9.159205352444256931e+00
1.222644954202661838e-01 8.031539939871926492e+00
1.233050443169315669e-01 6.668908983187382233e+00
1.243455932135969499e-01 5.620925158916996622e+00
1.253861421102623330e-01 4.663538584139157450e+00
1.264266910069277161e-01 3.556229744324731712e+00
1.274672399035930992e-01 3.081708008413261979e+00
1.285077888002584823e-01 2.594470330090402399e+00
1.295483376969238654e-01 2.318204520645458899e+00
1.305888865935892484e-01 2.306299688616590515e+00
1.316294354902546315e-01 2.035169431656221661e+00
1.326699843869200146e-01 1.693262608095384536e+00
1.337105332835853977e-01 1.963573860434657092e+00
1.347510821802507808e-01 2.570135740125994772e+00
1.357916310769161639e-01 2.797882593692463615e+00
1.368321799735815469e-01 2.680480075962581310e+00
1.378727288702469300e-01 2.564549420193223739e+00
1.389132777669123131e-01 3.236843029917309877e+00
1.399538266635776962e-01 4.016006985443439703e+00
1.409943755602430793e-01 4.525599558992919214e+00
1.420349244569084624e-01 4.838821051342097945e+00
1.430754733535738454e-01 5.087060766953442226e+00
1.441160222502392285e-01 5.736946094022666642e+00
1.451565711469046116e-01 6.285580847259467419e+00
1.461971200435699947e-01 6.766002963830089811e+00
1.472376689402353778e-01 7.197768122118638701e+00
1.482782178369007609e-01 7.765436610521039285e+00
1.493187667335661439e-01 8.509565719344816870e+00
1.503593156302315270e-01 8.897667846363148669e+00
1.513998645268969101e-01 9.509235344962505110e+00
1.524404134235622932e-01 9.707862366722704195e+00
1.534809623202276763e-01 9.635104289925120469e+00
1.545215112168930593e-01 1.016273814528689101e+01
1.555620601135584424e-01 1.104174829108306710e+01
1.566026090102238255e-01 1.158346931472920005e+01
1.576431579068892086e-01 1.237386415022726993e+01
1.586837068035545917e-01 1.267567310448990625e+01
1.597242557002199748e-01 1.251615638888776161e+01
1.607648045968853578e-01 1.260758881942527765e+01
1.618053534935507409e-01 1.325393414481425225e+01
1.628459023902161240e-01 1.345839145161988526e+01
1.638864512868815071e-01 1.327272464247187855e+01
1.649270001835468902e-01 1.340366313714591584e+01
1.659675490802122733e-01 1.381787846840240164e+01
1.670080979768776563e-01 1.397914065888375745e+01
1.680486468735430672e-01 1.415961537078648647e+01
1.690891957702084503e-01 1.414556975960723051e+01
1.701297446668738333e-01 1.394644127049716786e+01
1.711702935635392164e-01 1.385149405763377928e+01
1.722108424602045995e-01 1.359254334995080526e+01
1.732513913568699826e-01 1.357316840393102808e+01
1.742919402535353657e-01 1.328395653001690135e+01
1.753324891502007488e-01 1.323838161352698606e+01
1.763730380468661318e-01 1.290813151682326421e+01
1.774135869435315149e-01 1.229733497748533821e+01
1.784541358401968980e-01 1.209837184405107990e+01
1.794946847368622811e-01 1.228910971822246978e+01
1.805352336335276642e-01 1.155432490566583326e+01
1.815757825301930473e-01 1.111000180340558430e+01
1.826163314268584303e-01 1.095082256691558698e+01
1.836568803235238134e-01 1.107040317906589166e+01
1.846974292201891965e-01 1.091146675743399896e+01
1.857379781168545796e-01 1.048318595057066815e+01
1.867785270135199627e-01 1.002535952605634861e+01
1.878190759101853458e-01 9.733188193513154118e+00
1.888596248068507288e-01 9.356129573520512110e+00
1.899001737035161119e-01 8.711897785928456983e+00
1.909407226001814950e-01 7.995214806543526009e+00
1.919812714968468781e-01 7.807341227638797676e+00
1.930218203935122612e-01 7.439287794334241255e+00
1.940623692901776443e-01 7.098314485826527687e+00
1.951029181868430273e-01 6.774100527781541814e+00
1.961434670835084104e-01 6.353779898289772632e+00
1.971840159801737935e-01 5.991118687545139210e+00
1.982245648768391766e-01 5.544703404302797622e+00
1.992651137735045597e-01 5.462515900649140832e+00
2.003056626701699428e-01 5.150486316487864258e+00
2.013462115668353813e-01 4.691614934188088171e+00
2.023867604635007644e-01 4.468349984294206934e+00
2.034273093601661475e-01 3.917465612131742603e+00
2.044678582568315306e-01 3.695183852534615454e+00
2.055084071534969137e-01 3.703039362518563138e+00
2.065489560501622968e-01 3.344025486188918705e+00
2.075895049468276798e-01 2.971187870013338284e+00
2.086300538434930629e-01 2.782486361598373037e+00
2.096706027401584460e-01 2.397439822298018441e+00
2.107111516368238291e-01 2.335763378399136059e+00
2.117517005334892122e-01 2.386783288077008791e+00
2.127922494301545953e-01 2.452089399171430983e+00
2.138327983268199783e-01 2.212658436491732772e+00
2.148733472234853614e-01 1.663577846585461373e+00
2.159138961201507445e-01 1.403669074911576331e+00
2.169544450168161276e-01 1.242694026071905711e+00
2.179949939134815107e-01 1.085359271701470618e+00
2.190355428101468938e-01 1.069381043286036004e+00
2.200760917068122768e-01 1.048569162259926912e+00
2.211166406034776599e-01 8.492491085649938043e-01
2.221571895001430430e-01 7.597244439296026997e-01
2.231977383968084261e-01 8.984437819074067022e-01
2.242382872934738092e-01 9.039673676925019663e-01
2.252788361901391923e-01 8.093752618663074827e-01
2.263193850868045753e-01 8.568917705510727956e-01
2.273599339834699584e-01 9.300885195276080708e-01
2.284004828801353415e-01 9.322502080985479722e-01
2.294410317768007246e-01 9.091074534633101223e-01
2.304815806734661077e-01 9.140990355717342197e-01
2.315221295701314908e-01 9.344440257528212612e-01
2.325626784667968738e-01 1.035603834985142413e+00
2.336032273634622569e-01 1.045936262960971419e+00
2.346437762601276400e-01 9.395258142431508475e-01
2.356843251567930231e-01 1.017986974681143408e+00
2.367248740534584062e-01 1.360299074029960309e+00
2.377654229501237892e-01 1.261380460008400206e+00
2.388059718467891723e-01 1.113947175808679191e+00
2.398465207434545554e-01 1.446135141495894061e+00
2.408870696401199385e-01 1.574233817367254318e+00
2.419276185367853216e-01 1.750859847530463753e+00
2.429681674334507047e-01 1.745064361839034461e+00
2.440087163301160877e-01 1.714449711685599453e+00
2.450492652267814708e-01 1.616916463033255980e+00
2.460898141234468539e-01 1.711241638098211837e+00
2.471303630201122370e-01 1.957712254782439487e+00
2.481709119167776201e-01 2.187372736483318647e+00
2.492114608134430032e-01 2.046802906435747360e+00
2.502520097101083585e-01 2.344927132526620994e+00
2.512925586067737416e-01 2.191069424179637792e+00
2.523331075034391247e-01 2.356023180304116948e+00
2.533736564001045077e-01 2.421710394259836363e+00
2.544142052967698908e-01 2.154172993087886567e+00
2.554547541934352739e-01 2.043733171504033663e+00
2.564953030901006570e-01 2.408075510112325901e+00
2.575358519867660401e-01 2.591789109748859232e+00
2.585764008834314231e-01 2.524003464330991875e+00
2.596169497800968062e-01 2.626513924081393725e+00
2.606574986767621893e-01 2.738950239150558019e+00
2.616980475734275724e-01 2.730662696001544987e+00
2.627385964700929555e-01 2.673156139429590183e+00
2.637791453667583386e-01 2.794259192271010050e+00
2.648196942634237216e-01 2.772452306742092532e+00
2.658602431600891047e-01 2.588969164083998464e+00
2.669007920567544878e-01 2.651756355572615576e+00
2.679413409534198709e-01 2.555103421285455312e+00
2.689818898500852540e-01 2.674928430650609812e+00
2.700224387467506371e-01 2.384576853053744117e+00
2.710629876434160201e-01 2.274104037717556537e+00
2.721035365400814032e-01 2.390566506619393294e+00
2.731440854367467863e-01 2.245803592695146733e+00
2.741846343334121694e-01 1.933014767868201034e+00
2.752251832300775525e-01 2.332818376947024319e+00
2.762657321267429356e-01 2.416167654092671313e+00
2.773062810234083186e-01 2.472637568631991911e+00
2.783468299200737017e-01 2.604802017736339792e+00
2.793873788167390848e-01 2.668212968286745479e+00
2.804279277134044679e-01 2.435948038607168797e+00
2.814684766100698510e-01 2.216421253357861332e+00
2.825090255067352341e-01 2.003539126323186537e+00
2.835495744034006171e-01 1.932004243088755402e+00
2.845901233000660002e-01 2.047878391823758193e+00
2.856306721967313833e-01 2.072848926501691835e+00
2.866712210933967664e-01 1.766922214695838989e+00
2.877117699900621495e-01 1.839614388765873798e+00
2.887523188867275326e-01 1.835638908187895879e+00
2.897928677833929156e-01 1.482329157597561675e+00
2.908334166800582987e-01 1.516585303927413975e+00
2.918739655767236818e-01 1.648199046817591551e+00
2.929145144733890649e-01 1.747284155000681238e+00
2.939550633700544480e-01 1.638547163461975487e+00
2.949956122667198311e-01 1.488622425011929096e+00
2.960361611633852141e-01 1.372131511738430731e+00
2.970767100600505972e-01 1.290852593180613184e+00
2.981172589567159803e-01 1.221073758648234531e+00
2.991578078533813634e-01 1.338626024975116735e+00
3.001983567500468020e-01 1.312251254337610362e+00
3.012389056467121851e-01 1.041114367186477097e+00
3.022794545433775681e-01 8.898430374709853652e-01
3.033200034400429512e-01 1.124655446772187872e+00
3.043605523367083343e-01 1.157800965058264353e+00
3.054011012333737174e-01 1.016822405268072771e+00
3.064416501300391005e-01 8.326178327714046645e-01
3.074821990267044836e-01 6.687908561797932805e-01
3.085227479233698666e-01 7.762306608751075032e-01
3.095632968200352497e-01 7.449756981817579060e-01
3.106038457167006328e-01 6.706889890067877502e-01
3.116443946133660159e-01 6.327970686593147320e-01
3.126849435100313990e-01 8.097959886975054644e-01
3.137254924066967821e-01 8.705247071434918382e-01
3.147660413033621651e-01 7.084151170656980412e-01
3.158065902000275482e-01 7.171300108742180157e-01
3.168471390966929313e-01 8.111727495115665931e-01
3.178876879933583144e-01 7.196062150370963195e-01
3.189282368900236975e-01 8.729621496178481266e-01
3.199687857866890806e-01 9.110659741804809642e-01
3.210093346833544636e-01 7.873313367167860122e-01
3.220498835800198467e-01 7.849760859653756029e-01
3.230904324766852298e-01 7.765938006649228953e-01
3.241309813733506129e-01 8.230709657577506277e-01
3.251715302700159960e-01 7.191118621866827709e-01
3.262120791666813790e-01 6.475236897499456745e-01
3.272526280633467621e-01 6.017671913972932884e-01
3.282931769600121452e-01 7.037516022259637793e-01
3.293337258566775283e-01 6.043312663295949960e-01
3.303742747533429114e-01 1.059493719540725465e+00
3.314148236500082945e-01 8.250993509734740883e-01
3.324553725466736775e-01 7.587510270018462677e-01
3.334959214433390606e-01 8.614206579904646333e-01
3.345364703400044437e-01 9.465831298821747453e-01
3.355770192366698268e-01 8.355180782672242401e-01
3.366175681333352099e-01 7.381135261098457079e-01
3.376581170300005930e-01 7.271297421136750927e-01
3.386986659266659760e-01 6.565341992384254866e-01
3.397392148233313591e-01 8.219611750133566375e-01
3.407797637199967422e-01 1.079891303540524206e+00
3.418203126166621253e-01 1.106678607244838020e+00
3.428608615133275084e-01 8.969033164053108464e-01
3.439014104099928915e-01 7.477097176231097819e-01
3.449419593066582745e-01 7.940072619849942726e-01
3.459825082033236576e-01 8.335861155694068714e-01
3.470230570999890407e-01 7.868281567761599149e-01
3.480636059966544238e-01 9.200585489253967353e-01
3.491041548933198069e-01 9.728193403054419264e-01
3.501447037899851900e-01 8.849751590338073015e-01
3.511852526866505730e-01 9.221455682630015360e-01
3.522258015833159561e-01 9.090943114866938402e-01
3.532663504799813392e-01 7.797786986720929292e-01
3.543068993766467223e-01 8.579024424686885197e-01
3.553474482733121054e-01 1.098244706630971734e+00
3.563879971699774885e-01 1.222816950863556684e+00
3.574285460666428715e-01 1.180753600022526939e+00
3.584690949633082546e-01 1.028352589619537127e+00
3.595096438599736377e-01 1.022013866016020955e+00
3.605501927566390208e-01 1.162457180792031863e+00
3.615907416533044039e-01 1.263844252774095622e+00
3.626312905499697870e-01 1.139564698975245705e+00
3.636718394466351700e-01 1.114310833534968737e+00
3.647123883433005531e-01 1.207400452897186227e+00
3.657529372399659362e-01 1.091917797360434150e+00
3.667934861366313193e-01 1.075204543942010815e+00
3.678340350332967024e-01 1.007744615128078891e+00
3.688745839299620854e-01 1.094424948257902486e+00
3.699151328266274685e-01 1.214487089764102024e+00
3.709556817232928516e-01 1.127007290369078873e+00
3.719962306199582347e-01 1.174722604580093588e+00
3.730367795166236178e-01 1.008665613591293919e+00
3.740773284132890009e-01 1.196749188224700333e+00
3.751178773099543839e-01 1.234506040035729058e+00
3.761584262066197670e-01 1.015566666666476436e+00
3.771989751032851501e-01 9.618480474385187051e-01
3.782395239999505332e-01 9.737679555965250700e-01
3.792800728966159163e-01 1.077819429020152597e+00
3.803206217932812994e-01 9.472466963675358897e-01
3.813611706899466824e-01 9.122328626986124789e-01
3.824017195866120655e-01 9.947914865150337960e-01
3.834422684832774486e-01 9.296135521744304242e-01
3.844828173799428317e-01 8.671669521081781795e-01
3.855233662766082148e-01 9.852679915570696778e-01
3.865639151732735979e-01 9.408708456441630119e-01
3.876044640699389809e-01 9.851121126411435114e-01
3.886450129666043640e-01 9.500211045689610501e-01
3.896855618632697471e-01 9.218015443179439217e-01
3.907261107599351302e-01 9.512554036725369144e-01
3.917666596566005133e-01 6.978616624175160155e-01
3.928072085532658964e-01 7.411294134016515045e-01
3.938477574499312794e-01 5.628720809561400529e-01
3.948883063465966625e-01 6.501129404510628262e-01
3.959288552432620456e-01 7.489747983777448326e-01
3.969694041399274287e-01 8.574755076405651266e-01
3.980099530365928118e-01 9.682761156113670609e-01
3.990505019332581949e-01 8.428566007139615124e-01
4.000910508299235779e-01 6.145985078589291106e-01
4.011315997265889610e-01 5.845817954994316779e-01
4.021721486232543441e-01 7.059894937703816709e-01
4.032126975199197272e-01 7.790820077873981120e-01
4.042532464165851103e-01 8.335507233616823441e-01
4.052937953132504934e-01 6.218419865000512914e-01
4.063343442099158764e-01 4.338287150234165779e-01
4.073748931065812595e-01 6.188126460757032987e-01
4.084154420032466426e-01 5.110051196596891998e-01
4.094559908999120257e-01 5.880478361958090261e-01
4.104965397965774088e-01 4.844666775888128996e-01
4.115370886932427918e-01 4.055797820252351471e-01
4.125776375899081749e-01 4.696675846117166486e-01
4.136181864865735580e-01 5.676054664955287876e-01
4.146587353832389411e-01 6.501520877277044974e-01
4.156992842799043242e-01 6.464894526911031392e-01
4.167398331765697073e-01 7.842014460876427506e-01
4.177803820732350903e-01 5.899609947533015486e-01
4.188209309699004734e-01 6.409653456022255114e-01
4.198614798665658565e-01 4.867436649196257292e-01
4.209020287632312396e-01 5.895042926398588179e-01
4.219425776598966227e-01 8.167876188581892904e-01
4.229831265565620058e-01 8.191182799222573863e-01
4.240236754532273888e-01 7.839323078485982421e-01
4.250642243498927719e-01 7.382962915054172015e-01
4.261047732465581550e-01 6.561856718029766000e-01
4.271453221432235381e-01 5.576420767077330254e-01
4.281858710398889212e-01 4.089843021016079661e-01
4.292264199365543043e-01 4.064877095907490911e-01
4.302669688332196873e-01 5.545356145082251942e-01
4.313075177298850704e-01 8.193216257780484568e-01
4.323480666265504535e-01 6.739722644000742946e-01
4.333886155232158366e-01 7.702903561953355904e-01
4.344291644198812197e-01 6.831041374647988107e-01
