# q (1/Angstrom), Intensity (arb)
2.029070354705860696e-02 1.550472452673854150e+03
2.133125244372399004e-02 1.540706853412326836e+03
2.237180134038937659e-02 1.532781372127506074e+03
2.341235023705475968e-02 1.520542506615548291e+03
2.445289913372014276e-02 1.506990400305217008e+03
2.549344803038552584e-02 1.497440101589512778e+03
2.653399692705091240e-02 1.488395594609634827e+03
2.757454582371629548e-02 1.473628014653912487e+03
2.861509472038167856e-02 1.451633858601707288e+03
2.965564361704706164e-02 1.430653509680898424e+03
3.069619251371244473e-02 1.408883346077124543e+03
3.173674141037782781e-02 1.390750500702760291e+03
3.277729030704321089e-02 1.371590815507660409e+03
3.381783920370859398e-02 1.347187509871788052e+03
3.485838810037397706e-02 1.325675563479293714e+03
3.589893699703936014e-02 1.304957122022241265e+03
3.693948589370474322e-02 1.279988868551054338e+03
3.798003479037012631e-02 1.255235134015979838e+03
3.902058368703550939e-02 1.232423981566680141e+03
4.006113258370089247e-02 1.209036522070732417e+03
4.110168148036627556e-02 1.186512326300126006e+03
4.214223037703165864e-02 1.159802175774292436e+03
4.318277927369704866e-02 1.136128735155100230e+03
4.422332817036243174e-02 1.112153459994342029e+03
4.526387706702781483e-02 1.088174677751330137e+03
4.630442596369319791e-02 1.062035387901120430e+03
4.734497486035858099e-02 1.037449743441951341e+03
4.838552375702396408e-02 1.012808945473885956e+03
4.942607265368934716e-02 9.871160377400052539e+02
5.046662155035473024e-02 9.610227193647003787e+02
5.150717044702011332e-02 9.342541368847229251e+02
5.254771934368549641e-02 9.075177549069112501e+02
5.358826824035087949e-02 8.835387685667259348e+02
5.462881713701626257e-02 8.598398194671735837e+02
5.566936603368164566e-02 8.326075102321391341e+02
5.670991493034702874e-02 8.052542225771372841e+02
5.775046382701241182e-02 7.811243273612569737e+02
5.879101272367779490e-02 7.563153319000643933e+02
5.983156162034317799e-02 7.316696910927389581e+02
6.087211051700856107e-02 7.093822602509625312e+02
6.191265941367394415e-02 6.873929082570913351e+02
6.295320831033933417e-02 6.604641247266599748e+02
6.399375720700471726e-02 6.381529791645280056e+02
6.503430610367010034e-02 6.151949752818111392e+02
6.607485500033548342e-02 5.922520239770624357e+02
6.711540389700086651e-02 5.714762022288956587e+02
6.815595279366624959e-02 5.490851479948290716e+02
6.919650169033163267e-02 5.273319213542165471e+02
7.023705058699701576e-02 5.050473140781928123e+02
7.127759948366239884e-02 4.838007579926941730e+02
7.231814838032778192e-02 4.654370433840642818e+02
7.335869727699316500e-02 4.471350888158645489e+02
7.439924617365854809e-02 4.262395433985259956e+02
7.543979507032393117e-02 4.061489705858678576e+02
7.648034396698931425e-02 3.868649103410728003e+02
7.752089286365469734e-02 3.687229898888966773e+02
7.856144176032008042e-02 3.511628954206602202e+02
7.960199065698546350e-02 3.339956301562491490e+02
8.064253955365084658e-02 3.175391167966315606e+02
8.168308845031622967e-02 3.017665760617423416e+02
8.272363734698161275e-02 2.848887078902853318e+02
8.376418624364699583e-02 2.701310061765652790e+02
8.480473514031239279e-02 2.557172227521918160e+02
8.584528403697777588e-02 2.418350347352530321e+02
8.688583293364315896e-02 2.282631170780487082e+02
8.792638183030854204e-02 2.152362740082882908e+02
8.896693072697392513e-02 2.012322433484412443e+02
9.000747962363930821e-02 1.887868498527572854e+02
9.104802852030469129e-02 1.771409688600648735e+02
9.208857741697007437e-02 1.655908896227778655e+02
9.312912631363545746e-02 1.546947347084078785e+02
9.416967521030084054e-02 1.448373725275818629e+02
9.521022410696622362e-02 1.341747586553812539e+02
9.625077300363160671e-02 1.239672175554265010e+02
9.729132190029698979e-02 1.154322813259269367e+02
9.833187079696237287e-02 1.063923697005875937e+02
9.937241969362775595e-02 9.808721410031074583e+01
1.004129685902931390e-01 9.050621534174294425e+01
1.014535174869585221e-01 8.313002071208580901e+01
1.024940663836239052e-01 7.604060759461653163e+01
1.035346152802892883e-01 6.915887694245162720e+01
1.045751641769546714e-01 6.399962216548303218e+01
1.056157130736200545e-01 5.808480479949395914e+01
1.066562619702854375e-01 5.203755704845366381e+01
1.076968108669508206e-01 4.732513225064209905e+01
1.087373597636162037e-01 4.303697653662238309e+01
1.097779086602815868e-01 3.850094756022667042e+01
1.108184575569469699e-01 3.399122825435315320e+01
1.118590064536123529e-01 2.996158517291812018e+01
1.128995553502777360e-01 2.641683125780095764e+01
1.139401042469431191e-01 2.302758292352241654e+01
1.149806531436085022e-01 1.995672829442301577e+01
1.160212020402738853e-01 1.740131491114910744e+01
1.170617509369392684e-01 1.545126679956778304e+01
1.181022998336046514e-01 1.302186578624731084e+01
1.191428487302700345e-01 1.055957340998100591e+01
1.201833976269354176e-01 8.989551264975126799e+00
1.212239465236008007e-01 7.941083087235501381e+00
1.222644954202661838e-01 6.950639911890206690e+00
1.233050443169315669e-01 5.656718056105123793e+00
1.243455932135969499e-01 4.910101693265715994e+00
1.253861421102623330e-01 4.116233958889697675e+00
1.264266910069277161e-01 2.969477295658123239e+00
1.274672399035930992e-01 2.401708107948522297e+00
1.285077888002584823e-01 2.052584039892362711e+00
1.295483376969238654e-01 2.003533904909758689e+00
1.305888865935892484e-01 1.919044286098685603e+00
1.316294354902546315e-01 1.401548630077922297e+00
1.326699843869200146e-01 1.332370246924693191e+00
1.337105332835853977e-01 1.243645005715091401e+00
1.347510821802507808e-01 1.838803176712332288e+00
1.357916310769161639e-01 1.945977097983195847e+00
1.368321799735815469e-01 2.410298755622246603e+00
1.378727288702469300e-01 2.380153019024820793e+00
1.389132777669123131e-01 2.711879232912387749e+00
1.399538266635776962e-01 3.237257647322827836e+00
1.409943755602430793e-01 3.472870355687824429e+00
1.420349244569084624e-01 4.077424772476941683e+00
1.430754733535738454e-01 4.838803537314408487e+00
1.441160222502392285e-01 5.305087403518069067e+00
1.451565711469046116e-01 5.517468136684783531e+00
1.461971200435699947e-01 5.911658855797863765e+00
1.472376689402353778e-01 6.382949456220504914e+00
1.482782178369007609e-01 6.568581723754576274e+00
1.493187667335661439e-01 6.989026434608170746e+00
1.503593156302315270e-01 8.012622366247004635e+00
1.513998645268969101e-01 9.144091458411274687e+00
1.524404134235622932e-01 9.586727264121051917e+00
1.534809623202276763e-01 9.590506486606251713e+00
1.545215112168930593e-01 9.584513661178455379e+00
1.555620601135584424e-01 1.005151145394465928e+01
1.566026090102238255e-01 1.073789571292611811e+01
1.576431579068892086e-01 1.081606043413997753e+01
1.586837068035545917e-01 1.132720835632801482e+01
1.597242557002199748e-01 1.159057356276818496e+01
1.607648045968853578e-01 1.170129539741005331e+01
1.618053534935507409e-01 1.215899012689833825e+01
1.628459023902161240e-01 1.214859182440248020e+01
1.638864512868815071e-01 1.212546929700982545e+01
1.649270001835468902e-01 1.240106405561937919e+01
1.659675490802122733e-01 1.271561156808252591e+01
1.670080979768776563e-01 1.272876007949378874e+01
1.680486468735430672e-01 1.259075803138561511e+01
1.690891957702084503e-01 1.249954024954516285e+01
1.701297446668738333e-01 1.277483281323500819e+01
1.711702935635392164e-01 1.249514531142387597e+01
1.722108424602045995e-01 1.216151636312724094e+01
1.732513913568699826e-01 1.204297843920347688e+01
1.742919402535353657e-01 1.221394473903697886e+01
1.753324891502007488e-01 1.207217386931086267e+01
1.763730380468661318e-01 1.145905052911076183e+01
1.774135869435315149e-01 1.126266356835558824e+01
1.784541358401968980e-01 1.102874199486224072e+01
1.794946847368622811e-01 1.104769724635043815e+01
1.805352336335276642e-01 1.089664646992156349e+01
1.815757825301930473e-01 1.081553341656089984e+01
1.826163314268584303e-01 1.078823727939418475e+01
1.836568803235238134e-01 9.761007057018623811e+00
1.846974292201891965e-01 9.166250108857170176e+00
1.857379781168545796e-01 8.932274725215776812e+00
1.867785270135199627e-01 8.709939074617064847e+00
1.878190759101853458e-01 8.793009008474051313e+00
1.888596248068507288e-01 8.223013020216786373e+00
1.899001737035161119e-01 7.826792553879901249e+00
1.909407226001814950e-01 7.211203492418302829e+00
1.919812714968468781e-01 6.837143358929466785e+00
1.930218203935122612e-01 6.430929012383575838e+00
1.940623692901776443e-01 6.217229553485466909e+00
1.951029181868430273e-01 6.001207527671777342e+00
1.961434670835084104e-01 5.598850929147324962e+00
1.971840159801737935e-01 5.302249533877322563e+00
1.982245648768391766e-01 4.876447800088936191e+00
1.992651137735045597e-01 4.615301778328177562e+00
2.003056626701699428e-01 4.198322906305193669e+00
2.013462115668353813e-01 3.689951587221127483e+00
2.023867604635007644e-01 3.428293524093330547e+00
2.034273093601661475e-01 3.271209076110640268e+00
2.044678582568315306e-01 3.098454460059045346e+00
2.055084071534969137e-01 2.880957821141169717e+00
2.065489560501622968e-01 2.896308528117494063e+00
2.075895049468276798e-01 2.459445772020472987e+00
2.086300538434930629e-01 2.027439230993593355e+00
2.096706027401584460e-01 1.691746896148753621e+00
2.107111516368238291e-01 1.653492575814702548e+00
2.117517005334892122e-01 1.823414362823260859e+00
2.127922494301545953e-01 1.823124526207518414e+00
2.138327983268199783e-01 1.198137771663432716e+00
2.148733472234853614e-01 7.718551177270995822e-01
2.159138961201507445e-01 8.552971975008709649e-01
2.169544450168161276e-01 9.267198312049238496e-01
2.179949939134815107e-01 9.104359829233885648e-01
2.190355428101468938e-01 9.992220350095948334e-01
2.200760917068122768e-01 8.415516288551856405e-01
2.211166406034776599e-01 6.472695213867147856e-01
2.221571895001430430e-01 3.143381834456597801e-01
2.231977383968084261e-01 4.235195284423838302e-01
2.242382872934738092e-01 3.543276516492319672e-01
2.252788361901391923e-01 5.751547065090605315e-01
2.263193850868045753e-01 4.870468713718025811e-01
2.273599339834699584e-01 4.438880909620763759e-01
2.284004828801353415e-01 6.159697858778869772e-01
2.294410317768007246e-01 2.245374251568321711e-01
2.304815806734661077e-01 2.106815044180976315e-01
2.315221295701314908e-01 3.257046962267260426e-01
2.325626784667968738e-01 6.385813164238953732e-01
2.336032273634622569e-01 7.309982491379081182e-01
2.346437762601276400e-01 8.203781453517002831e-01
2.356843251567930231e-01 7.858311878727803901e-01
2.367248740534584062e-01 8.357584560980093613e-01
2.377654229501237892e-01 8.227179018138777167e-01
2.388059718467891723e-01 9.134807471953223512e-01
2.398465207434545554e-01 8.983290814622826304e-01
2.408870696401199385e-01 1.002308762792306851e+00
2.419276185367853216e-01 1.138364171398862368e+00
2.429681674334507047e-01 1.185430232890304580e+00
2.440087163301160877e-01 1.248861465676679217e+00
2.450492652267814708e-01 1.129079668431209882e+00
2.460898141234468539e-01 1.034578317460880470e+00
2.471303630201122370e-01 1.205087011814331532e+00
2.481709119167776201e-01 1.373317851364152631e+00
2.492114608134430032e-01 1.348963870974987600e+00
2.502520097101083585e-01 1.356800872351271892e+00
2.512925586067737416e-01 1.514579635937224111e+00
2.523331075034391247e-01 1.445567650412147742e+00
2.533736564001045077e-01 1.548615024425160414e+00
2.544142052967698908e-01 1.703412406418355118e+00
2.554547541934352739e-01 1.723507714222378695e+00
2.564953030901006570e-01 2.020917586805463628e+00
2.575358519867660401e-01 2.015638027743388960e+00
2.585764008834314231e-01 1.923076375532140503e+00
2.596169497800968062e-01 2.026982396843575174e+00
2.606574986767621893e-01 1.770387796675386483e+00
2.616980475734275724e-01 1.875481912251853345e+00
2.627385964700929555e-01 2.057396174255885057e+00
2.637791453667583386e-01 2.280750603931693377e+00
2.648196942634237216e-01 2.256465677131402003e+00
2.658602431600891047e-01 2.272922081289951990e+00
2.669007920567544878e-01 2.022785916799055173e+00
2.679413409534198709e-01 1.999409958042221547e+00
2.689818898500852540e-01 2.067756333948604919e+00
2.700224387467506371e-01 1.860609847513792658e+00
2.710629876434160201e-01 1.866057372149068527e+00
2.721035365400814032e-01 1.675094421561635016e+00
2.731440854367467863e-01 1.590723201864967962e+00
2.741846343334121694e-01 1.794605141672494852e+00
2.752251832300775525e-01 1.852920247816342680e+00
2.762657321267429356e-01 1.948140512085203113e+00
2.773062810234083186e-01 1.890910397590054970e+00
2.783468299200737017e-01 1.716334346116362042e+00
2.793873788167390848e-01 1.657758365391902800e+00
2.804279277134044679e-01 1.461128619701710818e+00
2.814684766100698510e-01 1.377839745820431006e+00
2.825090255067352341e-01 1.555040591475730594e+00
2.835495744034006171e-01 1.535937411103240890e+00
2.845901233000660002e-01 1.349556368155656827e+00
2.856306721967313833e-01 1.333182997402772685e+00
2.866712210933967664e-01 1.649676314681872924e+00
2.877117699900621495e-01 1.581218737468084612e+00
2.887523188867275326e-01 1.281501436904690649e+00
2.897928677833929156e-01 1.184118036742400903e+00
2.908334166800582987e-01 1.358664408486916386e+00
2.918739655767236818e-01 1.396036321237716038e+00
2.929145144733890649e-01 1.201632611316455268e+00
2.939550633700544480e-01 1.057177668399340575e+00
2.949956122667198311e-01 7.538117709019971358e-01
2.960361611633852141e-01 7.467858452671656266e-01
2.970767100600505972e-01 6.923535609131192814e-01
2.981172589567159803e-01 7.672493338740054014e-01
2.991578078533813634e-01 1.063167427196063386e+00
3.001983567500468020e-01 1.097808203039072339e+00
3.012389056467121851e-01 1.071932260995275499e+00
3.022794545433775681e-01 9.191185812232305352e-01
3.033200034400429512e-01 5.073839378958773239e-01
3.043605523367083343e-01 4.277531131304286305e-01
3.054011012333737174e-01 3.902011568463343849e-01
3.064416501300391005e-01 2.711139195577736416e-01
3.074821990267044836e-01 3.721930907764026131e-01
3.085227479233698666e-01 4.066681724996037417e-01
3.095632968200352497e-01 3.403808630317364248e-01
3.106038457167006328e-01 3.282624879489723924e-01
3.116443946133660159e-01 4.172356245824246912e-01
3.126849435100313990e-01 3.417586099687000001e-01
3.137254924066967821e-01 1.749725689236036885e-01
3.147660413033621651e-01 2.576279305776445483e-01
3.158065902000275482e-01 1.272144568030277867e-01
3.168471390966929313e-01 8.353319433484074352e-02
3.178876879933583144e-01 3.382724529695870785e-01
3.189282368900236975e-01 3.257023793691367075e-01
3.199687857866890806e-01 3.047853473020829540e-01
3.210093346833544636e-01 3.031972306456083288e-01
3.220498835800198467e-01 2.516798585227952856e-01
3.230904324766852298e-01 4.178596604450532936e-01
3.241309813733506129e-01 4.658320247014131610e-01
3.251715302700159960e-01 4.906239034752282180e-01
3.262120791666813790e-01 3.033838680818874423e-01
3.272526280633467621e-01 2.259293749168662657e-01
3.282931769600121452e-01 3.365265093365614746e-01
3.293337258566775283e-01 5.379271349571261851e-01
3.303742747533429114e-01 3.200550119822622719e-01
3.314148236500082945e-01 2.607306324195519664e-01
3.324553725466736775e-01 3.707006583923728726e-01
3.334959214433390606e-01 6.670066773331555510e-01
3.345364703400044437e-01 4.737462361636453068e-01
3.355770192366698268e-01 3.687875422867286090e-01
3.366175681333352099e-01 2.991300705961492667e-01
3.376581170300005930e-01 6.267104918957748794e-01
3.386986659266659760e-01 7.801796910323481882e-01
3.397392148233313591e-01 5.957887423702175056e-01
3.407797637199967422e-01 6.045599821831935117e-01
3.418203126166621253e-01 5.479991887253632399e-01
3.428608615133275084e-01 5.059335172925791824e-01
3.439014104099928915e-01 3.791591956296400667e-01
3.449419593066582745e-01 3.282761064317440969e-01
3.459825082033236576e-01 4.185589424319289265e-01
3.470230570999890407e-01 4.841798178708422995e-01
3.480636059966544238e-01 7.192120774128767380e-01
3.491041548933198069e-01 7.254380968816889208e-01
3.501447037899851900e-01 6.709888196858599940e-01
3.511852526866505730e-01 4.932995744512034264e-01
3.522258015833159561e-01 3.467383976238309629e-01
3.532663504799813392e-01 7.072094993954642916e-01
3.543068993766467223e-01 9.123326262116400187e-01
3.553474482733121054e-01 8.719055346352391211e-01
3.563879971699774885e-01 5.355746616851568831e-01
3.574285460666428715e-01 4.678258199474711887e-01
3.584690949633082546e-01 5.439039393592928207e-01
3.595096438599736377e-01 7.911610621951155053e-01
3.605501927566390208e-01 9.407817109356102492e-01
3.615907416533044039e-01 9.774411470787143230e-01
3.626312905499697870e-01 7.924417701263521963e-01
3.636718394466351700e-01 6.605952730567388187e-01
3.647123883433005531e-01 8.429974348989155430e-01
3.657529372399659362e-01 6.206465995875944941e-01
3.667934861366313193e-01 7.150240637161786594e-01
3.678340350332967024e-01 6.218661510032603701e-01
3.688745839299620854e-01 6.815988252378453183e-01
3.699151328266274685e-01 8.627717866709083694e-01
3.709556817232928516e-01 8.349192422893594312e-01
3.719962306199582347e-01 6.492034881291814941e-01
3.730367795166236178e-01 6.451138857988460984e-01
3.740773284132890009e-01 5.219534503668619152e-01
3.751178773099543839e-01 4.333623239667190319e-01
3.761584262066197670e-01 4.193420875325664099e-01
3.771989751032851501e-01 6.837241769979165440e-01
3.782395239999505332e-01 8.301028411962469988e-01
3.792800728966159163e-01 7.644606597767626965e-01
3.803206217932812994e-01 6.513501525700142736e-01
3.813611706899466824e-01 7.519725940608985582e-01
3.824017195866120655e-01 7.068296366757707005e-01
3.834422684832774486e-01 6.018037964822582353e-01
3.844828173799428317e-01 4.792447371289263458e-01
3.855233662766082148e-01 5.611912027026093597e-01
3.865639151732735979e-01 7.637984419766432609e-01
3.876044640699389809e-01 6.436617259785641920e-01
3.886450129666043640e-01 6.785995624012208793e-01
3.896855618632697471e-01 5.692109942999721284e-01
3.907261107599351302e-01 2.258297753746347780e-01
3.917666596566005133e-01 3.037366894278612506e-01
3.928072085532658964e-01 3.191657949175557007e-01
3.938477574499312794e-01 3.229314901242510416e-01
3.948883063465966625e-01 4.272293096491033282e-01
3.959288552432620456e-01 3.531481355093291086e-01
3.969694041399274287e-01 4.361747275874492402e-01
3.980099530365928118e-01 3.494526462717502113e-01
3.990505019332581949e-01 1.714492763786452656e-01
4.000910508299235779e-01 1.959830310557642008e-01
4.011315997265889610e-01 3.588749414021350503e-01
4.021721486232543441e-01 3.260212430520468274e-01
4.032126975199197272e-01 3.654861855564917050e-01
4.042532464165851103e-01 3.418317296899715529e-01
4.052937953132504934e-01 3.566516560675765390e-01
4.063343442099158764e-01 5.668630717972718003e-01
4.073748931065812595e-01 5.665991844659572507e-01
4.084154420032466426e-01 4.879390375646970313e-01
4.094559908999120257e-01 3.054790464391530236e-01
4.104965397965774088e-01 4.760276703205867932e-01
4.115370886932427918e-01 5.237863768167976275e-01
4.125776375899081749e-01 3.117015897796697743e-01
4.136181864865735580e-01 4.129170610610195524e-01
4.146587353832389411e-01 3.674050429816375640e-01
4.156992842799043242e-01 4.783840691147638324e-01
4.167398331765697073e-01 4.902978580154595534e-01
4.177803820732350903e-01 5.293503422341139242e-01
4.188209309699004734e-01 3.887965326346822792e-01
4.198614798665658565e-01 0.000000000000000000e+00
4.209020287632312396e-01 1.486929907073211155e-01
4.219425776598966227e-01 4.951759622441826991e-01
4.229831265565620058e-01 5.586225356939351627e-01
4.240236754532273888e-01 5.348407871034730476e-01
4.250642243498927719e-01 3.442732113922204462e-01
4.261047732465581550e-01 9.012655503849487104e-02
4.271453221432235381e-01 1.414525701646951461e-01
4.281858710398889212e-01 2.928537179307149074e-01
4.292264199365543043e-01 5.107695877110458582e-01
4.302669688332196873e-01 4.721539057288168806e-01
4.313075177298850704e-01 4.671711025407567774e-01
4.323480666265504535e-01 4.602847099551325982e-01
4.333886155232158366e-01 3.211378875907406893e-01
4.344291644198812197e-01 3.071229748456829611e-01
