# q (1/Angstrom), Intensity (arb)
2.029070354705860696e-02 1.648165737664349308e+03
2.133125244372399004e-02 1.641241628037514829e+03
2.237180134038937659e-02 1.625645548060935880e+03
2.341235023705475968e-02 1.612271919954557461e+03
2.445289913372014276e-02 1.603551003543602974e+03
2.549344803038552584e-02 1.592557012004261196e+03
2.653399692705091240e-02 1.573237641256001098e+03
2.757454582371629548e-02 1.552236289293239679e+03
2.861509472038167856e-02 1.537683301766360728e+03
2.965564361704706164e-02 1.522414080237569124e+03
3.069619251371244473e-02 1.500525907755853268e+03
3.173674141037782781e-02 1.478355025010634563e+03
3.277729030704321089e-02 1.457691630367726475e+03
3.381783920370859398e-02 1.429860142694366459e+03
3.485838810037397706e-02 1.405186721891633397e+03
3.589893699703936014e-02 1.384821269934889870e+03
3.693948589370474322e-02 1.366130020647551419e+03
3.798003479037012631e-02 1.342603719382905183e+03
3.902058368703550939e-02 1.317077374822907359e+03
4.006113258370089247e-02 1.288605207836641512e+03
4.110168148036627556e-02 1.262904450922935666e+03
4.214223037703165864e-02 1.237813168985614766e+03
4.318277927369704866e-02 1.209904108285506936e+03
4.422332817036243174e-02 1.180328164215835841e+03
4.526387706702781483e-02 1.154501278224629459e+03
4.630442596369319791e-02 1.129880992639974465e+03
4.734497486035858099e-02 1.104054249901680123e+03
4.838552375702396408e-02 1.078943654631881600e+03
4.942607265368934716e-02 1.047521632999359326e+03
5.046662155035473024e-02 1.020877176649593139e+03
5.150717044702011332e-02 9.979477647565718144e+02
5.254771934368549641e-02 9.699802772119229530e+02
5.358826824035087949e-02 9.428514832428296586e+02
5.462881713701626257e-02 9.159902122041320354e+02
5.566936603368164566e-02 8.916060472143809648e+02
5.670991493034702874e-02 8.654443621725616822e+02
5.775046382701241182e-02 8.362385780600037606e+02
5.879101272367779490e-02 8.084519854662840999e+02
5.983156162034317799e-02 7.845154418458280361e+02
6.087211051700856107e-02 7.614115711168415146e+02
6.191265941367394415e-02 7.343429609046387441e+02
6.295320831033933417e-02 7.087936081935579296e+02
6.399375720700471726e-02 6.836359339215297268e+02
6.503430610367010034e-02 6.617040038718042751e+02
6.607485500033548342e-02 6.377939934372559492e+02
6.711540389700086651e-02 6.131018599267134732e+02
6.815595279366624959e-02 5.891080663142062122e+02
6.919650169033163267e-02 5.662153909595102732e+02
7.023705058699701576e-02 5.444328702159526756e+02
7.127759948366239884e-02 5.206563732942994420e+02
7.231814838032778192e-02 4.973400267062465900e+02
7.335869727699316500e-02 4.773240112167752045e+02
7.439924617365854809e-02 4.570730360683758136e+02
7.543979507032393117e-02 4.366368351836361512e+02
7.648034396698931425e-02 4.160535971718783799e+02
7.752089286365469734e-02 3.967294799556197518e+02
7.856144176032008042e-02 3.801251765872538044e+02
7.960199065698546350e-02 3.629002696549852658e+02
8.064253955365084658e-02 3.438618810014510814e+02
8.168308845031622967e-02 3.253150343131221121e+02
8.272363734698161275e-02 3.090186494784363163e+02
8.376418624364699583e-02 2.937380157288704368e+02
8.480473514031239279e-02 2.772619508161868112e+02
8.584528403697777588e-02 2.611084747221804605e+02
8.688583293364315896e-02 2.462838197133106917e+02
8.792638183030854204e-02 2.323720110282174005e+02
8.896693072697392513e-02 2.175340348588575523e+02
9.000747962363930821e-02 2.045548459468509748e+02
9.104802852030469129e-02 1.925112859279365978e+02
9.208857741697007437e-02 1.803111257791912294e+02
9.312912631363545746e-02 1.683898521427244646e+02
9.416967521030084054e-02 1.571389873704409297e+02
9.521022410696622362e-02 1.469677924830057805e+02
9.625077300363160671e-02 1.359841290654714498e+02
9.729132190029698979e-02 1.258709229094691295e+02
9.833187079696237287e-02 1.164039171864216229e+02
9.937241969362775595e-02 1.080271571783295599e+02
1.004129685902931390e-01 9.996611438602539579e+01
1.014535174869585221e-01 9.160971029300358737e+01
1.024940663836239052e-01 8.383698898848305703e+01
1.035346152802892883e-01 7.700383875596111238e+01
1.045751641769546714e-01 6.918271071660969085e+01
1.056157130736200545e-01 6.251977784472096289e+01
1.066562619702854375e-01 5.680192673615968602e+01
1.076968108669508206e-01 5.175570913468565948e+01
1.087373597636162037e-01 4.625354107047811425e+01
1.097779086602815868e-01 4.159600683813302879e+01
1.108184575569469699e-01 3.761288047587286343e+01
1.118590064536123529e-01 3.364075710365872851e+01
1.128995553502777360e-01 2.989629810892864725e+01
1.139401042469431191e-01 2.644264879326108897e+01
1.149806531436085022e-01 2.333601168873096299e+01
1.160212020402738853e-01 1.985439166067205008e+01
1.170617509369392684e-01 1.733801569366474737e+01
1.181022998336046514e-01 1.478264601729245697e+01
1.191428487302700345e-01 1.299481223808140840e+01
1.201833976269354176e-01 1.085166590232977768e+01
1.212239465236008007e-01 8.930024465354282626e+00
1.222644954202661838e-01 7.591574346315265842e+00
1.233050443169315669e-01 6.425845446771436542e+00
1.243455932135969499e-01 5.460797390500939485e+00
1.253861421102623330e-01 4.607713285201931797e+00
1.264266910069277161e-01 3.644982534847738265e+00
1.274672399035930992e-01 3.014419069235373172e+00
1.285077888002584823e-01 2.371118414746845815e+00
1.295483376969238654e-01 1.608387735229058535e+00
1.305888865935892484e-01 1.697454462954802068e+00
1.316294354902546315e-01 1.626164733356180392e+00
1.326699843869200146e-01 1.449640971171387349e+00
1.337105332835853977e-01 1.332721588875557472e+00
1.347510821802507808e-01 1.643283412994975379e+00
1.357916310769161639e-01 1.880953007832125934e+00
1.368321799735815469e-01 1.944642074854652236e+00
1.378727288702469300e-01 2.306496364746138283e+00
1.389132777669123131e-01 2.758497852039393905e+00
1.399538266635776962e-01 3.401953189782915388e+00
1.409943755602430793e-01 3.866085955064793467e+00
1.420349244569084624e-01 4.620527186609795223e+00
1.430754733535738454e-01 4.849299268738800350e+00
1.441160222502392285e-01 5.083249956134142877e+00
1.451565711469046116e-01 5.937626230434233321e+00
1.461971200435699947e-01 6.270078079149584482e+00
1.472376689402353778e-01 6.623324542233010703e+00
1.482782178369007609e-01 7.396841791439626945e+00
1.493187667335661439e-01 7.886957284960892878e+00
1.503593156302315270e-01 8.419934190597526680e+00
1.513998645268969101e-01 9.435320955934294318e+00
1.524404134235622932e-01 9.757722380704453968e+00
1.534809623202276763e-01 1.037512013116035448e+01
1.545215112168930593e-01 1.057741651557888218e+01
1.555620601135584424e-01 1.054790638571340011e+01
1.566026090102238255e-01 1.121845782109515710e+01
1.576431579068892086e-01 1.184877515374835255e+01
1.586837068035545917e-01 1.219218931965154695e+01
1.597242557002199748e-01 1.203171097504124987e+01
1.607648045968853578e-01 1.242303476994896982e+01
1.618053534935507409e-01 1.306239798265647423e+01
1.628459023902161240e-01 1.318000926740935697e+01
1.638864512868815071e-01 1.321616555695155881e+01
1.649270001835468902e-01 1.356117812904729547e+01
1.659675490802122733e-01 1.380899128125236430e+01
1.670080979768776563e-01 1.351046968980129037e+01
1.680486468735430672e-01 1.360007117119049624e+01
1.690891957702084503e-01 1.390016871588900926e+01
1.701297446668738333e-01 1.405977050900423819e+01
1.711702935635392164e-01 1.370056849965293821e+01
1.722108424602045995e-01 1.350033804360759149e+01
1.732513913568699826e-01 1.355001547987777855e+01
1.742919402535353657e-01 1.312570567524069176e+01
1.753324891502007488e-01 1.293617952058807674e+01
1.763730380468661318e-01 1.263978128627301700e+01
1.774135869435315149e-01 1.225243973133246911e+01
1.784541358401968980e-01 1.211866841625862889e+01
1.794946847368622811e-01 1.196071019333068008e+01
1.805352336335276642e-01 1.178325038161946026e+01
1.815757825301930473e-01 1.164074073408624699e+01
1.826163314268584303e-01 1.127880950520945191e+01
1.836568803235238134e-01 1.075590584225048119e+01
1.846974292201891965e-01 1.016332437553349877e+01
1.857379781168545796e-01 1.017943209698896467e+01
1.867785270135199627e-01 9.398506658363672273e+00
1.878190759101853458e-01 9.104454232247810808e+00
1.888596248068507288e-01 8.908775108746894489e+00
1.899001737035161119e-01 8.427659912864548630e+00
1.909407226001814950e-01 8.292496457692937639e+00
1.919812714968468781e-01 7.787723823593609040e+00
1.930218203935122612e-01 7.394939984380851428e+00
1.940623692901776443e-01 7.091810700783764077e+00
1.951029181868430273e-01 6.885815312662181498e+00
1.961434670835084104e-01 6.034922690329558748e+00
1.971840159801737935e-01 5.711693442430139100e+00
1.982245648768391766e-01 5.607311885861086864e+00
1.992651137735045597e-01 5.173938090221856356e+00
2.003056626701699428e-01 4.975798792037991802e+00
2.013462115668353813e-01 4.439229296038668338e+00
2.023867604635007644e-01 3.914797552259081215e+00
2.034273093601661475e-01 3.960782717478156911e+00
2.044678582568315306e-01 3.723925172513361304e+00
2.055084071534969137e-01 3.473297407368090006e+00
2.065489560501622968e-01 3.039939650840313590e+00
2.075895049468276798e-01 2.649292776832083973e+00
2.086300538434930629e-01 2.708611991271993702e+00
2.096706027401584460e-01 2.635501592248441938e+00
2.107111516368238291e-01 2.407225156450529369e+00
2.117517005334892122e-01 2.111370100491427593e+00
2.127922494301545953e-01 1.755103773580177773e+00
2.138327983268199783e-01 1.255233620547841156e+00
2.148733472234853614e-01 1.172742664135306256e+00
2.159138961201507445e-01 1.203696789703137426e+00
2.169544450168161276e-01 1.327819153069778935e+00
2.179949939134815107e-01 1.133437506596202127e+00
2.190355428101468938e-01 7.872911180838002565e-01
2.200760917068122768e-01 9.529311222048661989e-01
2.211166406034776599e-01 9.280734027408641396e-01
2.221571895001430430e-01 6.323178904182853444e-01
2.231977383968084261e-01 4.439177869536408139e-01
2.242382872934738092e-01 6.712257391648748239e-01
2.252788361901391923e-01 7.544862060182566665e-01
2.263193850868045753e-01 6.580802408365578060e-01
2.273599339834699584e-01 5.702761627512948905e-01
2.284004828801353415e-01 4.223564685016327758e-01
2.294410317768007246e-01 4.817268567660057954e-01
2.304815806734661077e-01 8.294178360421007312e-01
2.315221295701314908e-01 8.744879211846736666e-01
2.325626784667968738e-01 8.936661617095609245e-01
2.336032273634622569e-01 7.728037610557088044e-01
2.346437762601276400e-01 7.613501715639259260e-01
2.356843251567930231e-01 6.652733853152383858e-01
2.367248740534584062e-01 7.738979880971719183e-01
2.377654229501237892e-01 8.283838707305939408e-01
2.388059718467891723e-01 8.263984015601550936e-01
2.398465207434545554e-01 9.883757579304166541e-01
2.408870696401199385e-01 1.109089964814881313e+00
2.419276185367853216e-01 9.472187150399200561e-01
2.429681674334507047e-01 1.045836697501510315e+00
2.440087163301160877e-01 1.490841074568319158e+00
2.450492652267814708e-01 1.478540943818263287e+00
2.460898141234468539e-01 1.636027343730670935e+00
2.471303630201122370e-01 1.645611866198944284e+00
2.481709119167776201e-01 1.586122724089264580e+00
2.492114608134430032e-01 1.482136417322656996e+00
2.502520097101083585e-01 1.759383295693389471e+00
2.512925586067737416e-01 1.872055188298066497e+00
2.523331075034391247e-01 1.668018680800447129e+00
2.533736564001045077e-01 1.736512321213659504e+00
2.544142052967698908e-01 1.923230687417209595e+00
2.554547541934352739e-01 2.161744349708616397e+00
2.564953030901006570e-01 2.228495431642237179e+00
2.575358519867660401e-01 2.249251940616364465e+00
2.585764008834314231e-01 2.530760629267284401e+00
2.596169497800968062e-01 2.141144778600803988e+00
2.606574986767621893e-01 2.095572356226711008e+00
2.616980475734275724e-01 2.126101089419716317e+00
2.627385964700929555e-01 2.415621578750897669e+00
2.637791453667583386e-01 2.389762308155788162e+00
2.648196942634237216e-01 2.500999413815126360e+00
2.658602431600891047e-01 2.344504306077816125e+00
2.669007920567544878e-01 2.346022416149668999e+00
2.679413409534198709e-01 2.415334278229323672e+00
2.689818898500852540e-01 2.300818364711197717e+00
2.700224387467506371e-01 2.270373494589922103e+00
2.710629876434160201e-01 2.327868339334994374e+00
2.721035365400814032e-01 2.356740101715050884e+00
2.731440854367467863e-01 2.052750717387251456e+00
2.741846343334121694e-01 2.007017249130889525e+00
2.752251832300775525e-01 1.951104754111451456e+00
2.762657321267429356e-01 2.013922900950166905e+00
2.773062810234083186e-01 2.082063362432581499e+00
2.783468299200737017e-01 2.049194779843610092e+00
2.793873788167390848e-01 1.991004111688297940e+00
2.804279277134044679e-01 1.807371123683729763e+00
2.814684766100698510e-01 1.827311306067734620e+00
2.825090255067352341e-01 1.820570127778328384e+00
2.835495744034006171e-01 1.770058186769595920e+00
2.845901233000660002e-01 1.677905178847343137e+00
2.856306721967313833e-01 1.482734552865732525e+00
2.866712210933967664e-01 1.672624717682413831e+00
2.877117699900621495e-01 1.697262437300089744e+00
2.887523188867275326e-01 1.313803739980507146e+00
2.897928677833929156e-01 1.311326436516434768e+00
2.908334166800582987e-01 1.068641335801956416e+00
2.918739655767236818e-01 1.354952798750762355e+00
2.929145144733890649e-01 1.298657105380723209e+00
2.939550633700544480e-01 9.867378677656759578e-01
2.949956122667198311e-01 1.186683013273043485e+00
2.960361611633852141e-01 1.318157946961878935e+00
2.970767100600505972e-01 1.318158901478501122e+00
2.981172589567159803e-01 1.015029777357764118e+00
2.991578078533813634e-01 9.401548256901328671e-01
3.001983567500468020e-01 8.779022279833945674e-01
3.012389056467121851e-01 9.532363601833999667e-01
3.022794545433775681e-01 6.134977017140386124e-01
3.033200034400429512e-01 5.326748852758065311e-01
3.043605523367083343e-01 5.263719896765159945e-01
3.054011012333737174e-01 6.116141991294483660e-01
3.064416501300391005e-01 6.389234939238015443e-01
3.074821990267044836e-01 6.886053187025424904e-01
3.085227479233698666e-01 4.473480439492014682e-01
3.095632968200352497e-01 4.508927135598170821e-01
3.106038457167006328e-01 4.311708704809120718e-01
3.116443946133660159e-01 4.007673046161990271e-01
3.126849435100313990e-01 4.136008940100808218e-01
3.137254924066967821e-01 2.226660979549315300e-01
3.147660413033621651e-01 2.546493150490753976e-01
3.158065902000275482e-01 3.820778406902647362e-01
3.168471390966929313e-01 3.708752298915669599e-01
3.178876879933583144e-01 4.306089549983198594e-01
3.189282368900236975e-01 3.053554648930187909e-01
3.199687857866890806e-01 4.394905640845720995e-01
3.210093346833544636e-01 4.520279715554202937e-01
3.220498835800198467e-01 4.503302598378446930e-01
3.230904324766852298e-01 3.714256965943505406e-01
3.241309813733506129e-01 3.408526978843333666e-01
3.251715302700159960e-01 3.846380745316011485e-01
3.262120791666813790e-01 2.717360314238703722e-01
3.272526280633467621e-01 2.347428011039411899e-01
3.282931769600121452e-01 4.375950497118274996e-01
3.293337258566775283e-01 5.795620673230459374e-01
3.303742747533429114e-01 4.581263539213829006e-01
3.314148236500082945e-01 4.311781466120194750e-01
3.324553725466736775e-01 6.411566591144612914e-01
3.334959214433390606e-01 5.059799172938213019e-01
3.345364703400044437e-01 3.091683826869839891e-01
3.355770192366698268e-01 1.402886360585817727e-01
3.366175681333352099e-01 3.991712269244978017e-01
3.376581170300005930e-01 7.934750759663735664e-01
3.386986659266659760e-01 9.029095745292963215e-01
3.397392148233313591e-01 9.863111971324549643e-01
3.407797637199967422e-01 8.830575528898734206e-01
3.418203126166621253e-01 8.231362021513497496e-01
3.428608615133275084e-01 6.592474781409158879e-01
3.439014104099928915e-01 7.005717217888829396e-01
3.449419593066582745e-01 5.529480504659254336e-01
3.459825082033236576e-01 5.733813307639188395e-01
3.470230570999890407e-01 7.706705575786365614e-01
3.480636059966544238e-01 1.000518930075333657e+00
3.491041548933198069e-01 6.497067920155643606e-01
3.501447037899851900e-01 5.763780263591939956e-01
3.511852526866505730e-01 6.747123918078834492e-01
3.522258015833159561e-01 7.158025089217616710e-01
3.532663504799813392e-01 9.254144266627619686e-01
3.543068993766467223e-01 9.631872585074212623e-01
3.553474482733121054e-01 6.630535678380446996e-01
3.563879971699774885e-01 7.660703128252954741e-01
3.574285460666428715e-01 9.693837131880052027e-01
3.584690949633082546e-01 8.903665820149342380e-01
3.595096438599736377e-01 8.017710138340419235e-01
3.605501927566390208e-01 8.599123838413902376e-01
3.615907416533044039e-01 8.380209045837325732e-01
3.626312905499697870e-01 6.694094163827877253e-01
3.636718394466351700e-01 6.699411730562410128e-01
3.647123883433005531e-01 5.461239260202823687e-01
3.657529372399659362e-01 6.456864034911689032e-01
3.667934861366313193e-01 6.850577870760972132e-01
3.678340350332967024e-01 6.367456300724256835e-01
3.688745839299620854e-01 6.769259030554479750e-01
3.699151328266274685e-01 7.112823058691120082e-01
3.709556817232928516e-01 5.758353014076504905e-01
3.719962306199582347e-01 4.819194597942484393e-01
3.730367795166236178e-01 7.806689989740185354e-01
3.740773284132890009e-01 6.946788962309895510e-01
3.751178773099543839e-01 7.098513147093150621e-01
3.761584262066197670e-01 6.712061099978186007e-01
3.771989751032851501e-01 4.800863623898194987e-01
3.782395239999505332e-01 4.567142285968905924e-01
3.792800728966159163e-01 5.565990809412681983e-01
3.803206217932812994e-01 6.834385676478689220e-01
3.813611706899466824e-01 7.213974475181750279e-01
3.824017195866120655e-01 5.406780893491749396e-01
3.834422684832774486e-01 5.229356674085714474e-01
3.844828173799428317e-01 5.323201145879323803e-01
3.855233662766082148e-01 5.410485131457853925e-01
3.865639151732735979e-01 3.465363739682700839e-01
3.876044640699389809e-01 3.558799208666982850e-01
3.886450129666043640e-01 5.158684836997409207e-01
3.896855618632697471e-01 5.032634214373068460e-01
3.907261107599351302e-01 4.624205478638998557e-01
3.917666596566005133e-01 5.015300601872070274e-01
3.928072085532658964e-01 4.606874023584452971e-01
3.938477574499312794e-01 4.061871524751481388e-01
3.948883063465966625e-01 5.220784549037240652e-01
3.959288552432620456e-01 6.004713681613722542e-01
3.969694041399274287e-01 5.034050140455086364e-01
3.980099530365928118e-01 1.739466258886075423e-01
3.990505019332581949e-01 2.535824285877161799e-01
4.000910508299235779e-01 3.777323641793515208e-01
4.011315997265889610e-01 5.069241703777471741e-01
4.021721486232543441e-01 4.421192446098594075e-01
4.032126975199197272e-01 3.281320999015981954e-01
4.042532464165851103e-01 3.549888862028041103e-01
4.052937953132504934e-01 2.264146416302672549e-01
4.063343442099158764e-01 2.063047379218652111e-01
4.073748931065812595e-01 4.295438291262030361e-01
4.084154420032466426e-01 3.667987350668937552e-01
4.094559908999120257e-01 3.053729687091966127e-01
4.104965397965774088e-01 2.985316905356043549e-01
4.115370886932427918e-01 4.186758612018941506e-01
4.125776375899081749e-01 4.530290304844761806e-01
4.136181864865735580e-01 4.206448601727785785e-01
4.146587353832389411e-01 3.502286087602861642e-01
4.156992842799043242e-01 2.723671145481389999e-01
4.167398331765697073e-01 2.789113121986908084e-01
4.177803820732350903e-01 1.701905738279094749e-01
4.188209309699004734e-01 2.593390600416292102e-01
4.198614798665658565e-01 2.490807944601236557e-01
4.209020287632312396e-01 2.099090739382276638e-01
4.219425776598966227e-01 1.048884576655026990e-01
4.229831265565620058e-01 1.455974502802241943e-01
4.240236754532273888e-01 3.254546625216576672e-01
4.250642243498927719e-01 3.521319268723672735e-01
4.261047732465581550e-01 2.129657536236884141e-01
4.271453221432235381e-01 1.580696311132179233e-01
4.281858710398889212e-01 3.978916927939941672e-01
4.292264199365543043e-01 2.849604504546618955e-01
4.302669688332196873e-01 2.394095533274445131e-01
4.313075177298850704e-01 4.158581078097647321e-01
4.323480666265504535e-01 4.751833882607847670e-01
4.333886155232158366e-01 5.071876162057087356e-01
4.344291644198812197e-01 4.544571948052187338e-01
