# q (1/Angstrom), Intensity (arb)
2.029070354705860696e-02 1.525867065278653627e+03
2.133125244372399004e-02 1.518558619066409847e+03
2.237180134038937659e-02 1.516622285720158288e+03
2.341235023705475968e-02 1.502119997161750234e+03
2.445289913372014276e-02 1.489686953754564911e+03
2.549344803038552584e-02 1.477552448369343665e+03
2.653399692705091240e-02 1.460767234587933672e+03
2.757454582371629548e-02 1.441992538848081040e+03
2.861509472038167856e-02 1.423629511508049063e+03
2.965564361704706164e-02 1.412923241915454128e+03
3.069619251371244473e-02 1.389523154969971301e+03
3.173674141037782781e-02 1.373267275383778042e+03
3.277729030704321089e-02 1.349343365514577044e+03
3.381783920370859398e-02 1.327855512294513346e+03
3.485838810037397706e-02 1.307707701313909411e+03
3.589893699703936014e-02 1.285889580856114662e+03
3.693948589370474322e-02 1.262607336456462235e+03
3.798003479037012631e-02 1.240146557173152814e+03
3.902058368703550939e-02 1.215338333579850769e+03
4.006113258370089247e-02 1.194588036996370647e+03
4.110168148036627556e-02 1.171021482703155698e+03
4.214223037703165864e-02 1.143345813070161057e+03
4.318277927369704866e-02 1.119975273922230144e+03
4.422332817036243174e-02 1.097876952136904492e+03
4.526387706702781483e-02 1.074977280520251043e+03
4.630442596369319791e-02 1.047634978526801433e+03
4.734497486035858099e-02 1.023032172755504462e+03
4.838552375702396408e-02 9.974003626973112659e+02
4.942607265368934716e-02 9.686853206651227310e+02
5.046662155035473024e-02 9.462572338873297895e+02
5.150717044702011332e-02 9.240955784546500809e+02
5.254771934368549641e-02 8.979076153731467684e+02
5.358826824035087949e-02 8.737676924936309888e+02
5.462881713701626257e-02 8.494740868971383634e+02
5.566936603368164566e-02 8.209883130259731843e+02
5.670991493034702874e-02 7.953598073374513433e+02
5.775046382701241182e-02 7.725756254463162804e+02
5.879101272367779490e-02 7.472471571387881113e+02
5.983156162034317799e-02 7.253552519640650189e+02
6.087211051700856107e-02 7.015167326737187068e+02
6.191265941367394415e-02 6.764077335661937695e+02
6.295320831033933417e-02 6.523791960973500181e+02
6.399375720700471726e-02 6.305043485473113378e+02
6.503430610367010034e-02 6.061364973451811693e+02
6.607485500033548342e-02 5.831491241942688930e+02
6.711540389700086651e-02 5.608000919577879131e+02
6.815595279366624959e-02 5.402604824216732595e+02
6.919650169033163267e-02 5.194638312082940956e+02
7.023705058699701576e-02 4.974929142204686627e+02
7.127759948366239884e-02 4.772043051607182633e+02
7.231814838032778192e-02 4.585238182417133430e+02
7.335869727699316500e-02 4.395098495431773244e+02
7.439924617365854809e-02 4.188498695073857903e+02
7.543979507032393117e-02 3.980245628941000291e+02
7.648034396698931425e-02 3.794014419731775547e+02
7.752089286365469734e-02 3.634505376119753919e+02
7.856144176032008042e-02 3.458155015029315109e+02
7.960199065698546350e-02 3.275388981345299726e+02
8.064253955365084658e-02 3.130282269792965053e+02
8.168308845031622967e-02 2.958781562720977831e+02
8.272363734698161275e-02 2.793718206290788544e+02
8.376418624364699583e-02 2.647570534229215582e+02
8.480473514031239279e-02 2.511323120445834149e+02
8.584528403697777588e-02 2.364263907657789900e+02
8.688583293364315896e-02 2.232667168864573171e+02
8.792638183030854204e-02 2.110851216610174106e+02
8.896693072697392513e-02 1.978912014477022012e+02
9.000747962363930821e-02 1.854357018359999358e+02
9.104802852030469129e-02 1.728941512156343947e+02
9.208857741697007437e-02 1.619389254809028955e+02
9.312912631363545746e-02 1.510010936052224224e+02
9.416967521030084054e-02 1.405778983065925445e+02
9.521022410696622362e-02 1.315850863229895822e+02
9.625077300363160671e-02 1.221960493148393709e+02
9.729132190029698979e-02 1.130548370367071982e+02
9.833187079696237287e-02 1.039640958848707015e+02
9.937241969362775595e-02 9.581012117620292656e+01
1.004129685902931390e-01 8.815502697942942234e+01
1.014535174869585221e-01 8.180429497695374152e+01
1.024940663836239052e-01 7.501693131681101079e+01
1.035346152802892883e-01 6.864015577645423605e+01
1.045751641769546714e-01 6.192988662619902129e+01
1.056157130736200545e-01 5.618761276189010800e+01
1.066562619702854375e-01 5.116092622216136476e+01
1.076968108669508206e-01 4.723874077426466300e+01
1.087373597636162037e-01 4.184722353655777738e+01
1.097779086602815868e-01 3.722404842328615615e+01
1.108184575569469699e-01 3.308691711272868474e+01
1.118590064536123529e-01 2.926462621257664409e+01
1.128995553502777360e-01 2.638011843331305073e+01
1.139401042469431191e-01 2.375042731450403721e+01
1.149806531436085022e-01 2.016412493238917136e+01
1.160212020402738853e-01 1.750533650107087880e+01
1.170617509369392684e-01 1.525076165184412957e+01
1.181022998336046514e-01 1.285565840915100466e+01
1.191428487302700345e-01 1.118538130127610941e+01
1.201833976269354176e-01 9.394788540086658202e+00
1.212239465236008007e-01 7.769748706588728737e+00
1.222644954202661838e-01 6.224200980628914692e+00
1.233050443169315669e-01 4.864573263392564684e+00
1.243455932135969499e-01 4.519446046821904872e+00
1.253861421102623330e-01 3.609805277697283543e+00
1.264266910069277161e-01 3.104374728893468216e+00
1.274672399035930992e-01 2.714650268253947729e+00
1.285077888002584823e-01 2.185533609079165274e+00
1.295483376969238654e-01 1.725461017146479037e+00
1.305888865935892484e-01 1.416186810442326305e+00
1.316294354902546315e-01 1.785174596976411010e+00
1.326699843869200146e-01 1.420737710155918876e+00
1.337105332835853977e-01 1.178005540299835729e+00
1.347510821802507808e-01 1.195255310993580622e+00
1.357916310769161639e-01 1.824267421450436188e+00
1.368321799735815469e-01 1.732121972200403093e+00
1.378727288702469300e-01 1.901353789513052561e+00
1.389132777669123131e-01 2.363888090403634124e+00
1.399538266635776962e-01 2.866871895034151407e+00
1.409943755602430793e-01 3.700401177181440460e+00
1.420349244569084624e-01 4.240511071221369832e+00
1.430754733535738454e-01 4.526188715180396116e+00
1.441160222502392285e-01 4.707622492598680708e+00
1.451565711469046116e-01 5.431942485688878719e+00
1.461971200435699947e-01 6.047749660785065373e+00
1.472376689402353778e-01 6.468598322755376273e+00
1.482782178369007609e-01 6.821029311206068257e+00
1.493187667335661439e-01 7.043251824739414246e+00
1.503593156302315270e-01 7.917071024213662156e+00
1.513998645268969101e-01 8.307574167849807623e+00
1.524404134235622932e-01 8.566117463661981901e+00
1.534809623202276763e-01 9.126718483751403710e+00
1.545215112168930593e-01 9.384730540906353724e+00
1.555620601135584424e-01 1.011025996195734677e+01
1.566026090102238255e-01 1.057804476828243168e+01
1.576431579068892086e-01 1.095729091178502657e+01
1.586837068035545917e-01 1.091379844281563649e+01
1.597242557002199748e-01 1.112158868441204973e+01
1.607648045968853578e-01 1.166096801083642021e+01
1.618053534935507409e-01 1.214120860642471911e+01
1.628459023902161240e-01 1.213015778416428958e+01
1.638864512868815071e-01 1.198568601893635233e+01
1.649270001835468902e-01 1.185292391947503887e+01
1.659675490802122733e-01 1.229908831195812269e+01
1.670080979768776563e-01 1.224756070403791952e+01
1.680486468735430672e-01 1.228070327150249597e+01
1.690891957702084503e-01 1.255457432167719745e+01
1.701297446668738333e-01 1.232385832142936977e+01
1.711702935635392164e-01 1.241049089412769035e+01
1.722108424602045995e-01 1.170649716941705520e+01
1.732513913568699826e-01 1.160756025539479808e+01
1.742919402535353657e-01 1.216154962303202325e+01
1.753324891502007488e-01 1.177143198713097405e+01
1.763730380468661318e-01 1.120908581774813939e+01
1.774135869435315149e-01 1.109544114987324548e+01
1.784541358401968980e-01 1.097831359298459475e+01
1.794946847368622811e-01 1.107232056768136275e+01
1.805352336335276642e-01 1.051372449849568724e+01
1.815757825301930473e-01 1.013860620403442070e+01
1.826163314268584303e-01 9.612453826390030542e+00
1.836568803235238134e-01 9.344791180707513689e+00
1.846974292201891965e-01 9.150466988878179109e+00
1.857379781168545796e-01 8.926033035813183858e+00
1.867785270135199627e-01 8.616546363085273441e+00
1.878190759101853458e-01 8.226723395164871278e+00
1.888596248068507288e-01 7.865005033800738232e+00
1.899001737035161119e-01 7.180083178200231231e+00
1.909407226001814950e-01 6.800084731376959013e+00
1.919812714968468781e-01 6.814063084498325651e+00
1.930218203935122612e-01 6.389502526980656683e+00
1.940623692901776443e-01 6.107586055369605305e+00
1.951029181868430273e-01 5.769006896526178707e+00
1.961434670835084104e-01 5.389196694909163199e+00
1.971840159801737935e-01 5.543553524200227400e+00
1.982245648768391766e-01 4.908468342735794465e+00
1.992651137735045597e-01 4.362945529944447287e+00
2.003056626701699428e-01 4.277051397903857577e+00
2.013462115668353813e-01 3.938696729456506063e+00
2.023867604635007644e-01 3.537943754469246471e+00
2.034273093601661475e-01 3.393698283842212504e+00
2.044678582568315306e-01 3.089367911553047463e+00
2.055084071534969137e-01 2.616275941819477424e+00
2.065489560501622968e-01 2.569623921947819412e+00
2.075895049468276798e-01 2.525406912971185136e+00
2.086300538434930629e-01 2.302288265951901280e+00
2.096706027401584460e-01 1.772430765890437243e+00
2.107111516368238291e-01 1.288368274353448584e+00
2.117517005334892122e-01 1.293855878715511665e+00
2.127922494301545953e-01 1.105555904114709165e+00
2.138327983268199783e-01 1.143989031129109435e+00
2.148733472234853614e-01 9.491760336581833712e-01
2.159138961201507445e-01 9.319228487426052254e-01
2.169544450168161276e-01 1.053981766673192766e+00
2.179949939134815107e-01 1.013995800440927297e+00
2.190355428101468938e-01 7.717359921820232671e-01
2.200760917068122768e-01 5.205536162043529202e-01
2.211166406034776599e-01 2.907025283095912016e-01
2.221571895001430430e-01 3.192629781778677511e-01
2.231977383968084261e-01 6.134997537059341255e-01
2.242382872934738092e-01 8.754183705752645039e-01
2.252788361901391923e-01 7.685126901398895427e-01
2.263193850868045753e-01 5.054975683326574654e-01
2.273599339834699584e-01 3.154347681138141013e-01
2.284004828801353415e-01 3.948939011984791136e-01
2.294410317768007246e-01 5.855066654364478040e-01
2.304815806734661077e-01 6.570767189513091466e-01
2.315221295701314908e-01 3.839472185682417660e-01
2.325626784667968738e-01 1.043761343465945401e-01
2.336032273634622569e-01 4.844315299789982987e-01
2.346437762601276400e-01 6.864525907544702932e-01
2.356843251567930231e-01 7.601937601743422590e-01
2.367248740534584062e-01 7.481070758693348921e-01
2.377654229501237892e-01 8.579323427546476921e-01
2.388059718467891723e-01 1.161321374296321096e+00
2.398465207434545554e-01 1.022853640760395422e+00
2.408870696401199385e-01 1.025166949765218050e+00
2.419276185367853216e-01 1.164729081038636593e+00
2.429681674334507047e-01 1.372874560426090795e+00
2.440087163301160877e-01 1.118989080932145441e+00
2.450492652267814708e-01 1.162327682778030891e+00
2.460898141234468539e-01 1.185792507628498527e+00
2.471303630201122370e-01 1.175477323928760143e+00
2.481709119167776201e-01 1.451633349996271249e+00
2.492114608134430032e-01 1.693620369391016567e+00
2.502520097101083585e-01 1.352200146245262857e+00
2.512925586067737416e-01 1.442079924480736963e+00
2.523331075034391247e-01 1.517875030395433811e+00
2.533736564001045077e-01 1.520951047998504890e+00
2.544142052967698908e-01 1.597264347946474317e+00
2.554547541934352739e-01 1.666285235639524132e+00
2.564953030901006570e-01 1.750475605049309991e+00
2.575358519867660401e-01 1.957585401766113620e+00
2.585764008834314231e-01 1.903688036198918354e+00
2.596169497800968062e-01 2.069238928845170022e+00
2.606574986767621893e-01 2.049459184277001356e+00
2.616980475734275724e-01 1.896282517990002248e+00
2.627385964700929555e-01 1.838476448332780677e+00
2.637791453667583386e-01 2.021855454177224232e+00
2.648196942634237216e-01 2.112498688654135037e+00
2.658602431600891047e-01 2.183590111741214201e+00
2.669007920567544878e-01 1.863204786576581284e+00
2.679413409534198709e-01 1.866396470766819249e+00
2.689818898500852540e-01 2.155028474258642746e+00
2.700224387467506371e-01 2.440543630883283299e+00
2.710629876434160201e-01 1.919998394695404897e+00
2.721035365400814032e-01 1.713912144376838143e+00
2.731440854367467863e-01 1.611921822288309158e+00
2.741846343334121694e-01 1.716669048571201728e+00
2.752251832300775525e-01 1.829019656269377236e+00
2.762657321267429356e-01 1.836865670036107900e+00
2.773062810234083186e-01 1.637107298140151102e+00
2.783468299200737017e-01 1.343906297163098174e+00
2.793873788167390848e-01 1.356710494207788997e+00
2.804279277134044679e-01 1.591753478814130318e+00
2.814684766100698510e-01 1.525820073660483445e+00
2.825090255067352341e-01 1.495043006664481311e+00
2.835495744034006171e-01 1.386092599451643537e+00
2.845901233000660002e-01 1.286901325204727442e+00
2.856306721967313833e-01 1.311206448551153869e+00
2.866712210933967664e-01 1.358697813443196623e+00
2.877117699900621495e-01 1.409787061741585745e+00
2.887523188867275326e-01 1.431349460157239406e+00
2.897928677833929156e-01 1.230307992498801184e+00
2.908334166800582987e-01 1.081196771330066753e+00
2.918739655767236818e-01 9.323734891790635970e-01
2.929145144733890649e-01 6.865501596392995509e-01
2.939550633700544480e-01 8.981540288543605755e-01
2.949956122667198311e-01 1.071624367415420664e+00
2.960361611633852141e-01 7.816610213558838893e-01
2.970767100600505972e-01 8.812153266583386824e-01
2.981172589567159803e-01 8.062944242529113126e-01
2.991578078533813634e-01 8.861669950009449792e-01
3.001983567500468020e-01 6.530556152608042453e-01
3.012389056467121851e-01 6.998807450846982192e-01
3.022794545433775681e-01 6.641172174461758004e-01
3.033200034400429512e-01 5.229936052286525694e-01
3.043605523367083343e-01 6.436759285129554087e-01
3.054011012333737174e-01 5.866489018109568576e-01
3.064416501300391005e-01 6.604778083690163726e-01
3.074821990267044836e-01 5.298528865932716769e-01
3.085227479233698666e-01 4.236965346138106270e-01
3.095632968200352497e-01 3.480977196960246545e-01
3.106038457167006328e-01 1.881589209114480354e-01
3.116443946133660159e-01 2.832632550269629235e-01
3.126849435100313990e-01 3.118045756710827732e-01
3.137254924066967821e-01 1.907392529839064821e-01
3.147660413033621651e-01 3.273307259037494532e-01
3.158065902000275482e-01 3.175262409896646432e-01
3.168471390966929313e-01 5.070225279944651220e-01
3.178876879933583144e-01 7.177132630092408760e-01
3.189282368900236975e-01 4.798557894763284537e-01
3.199687857866890806e-01 2.426029949872194891e-01
3.210093346833544636e-01 1.037843106570086604e-01
3.220498835800198467e-01 2.809543499121325283e-01
3.230904324766852298e-01 3.674972277908672424e-01
3.241309813733506129e-01 5.155945844059424132e-01
3.251715302700159960e-01 4.251379741204708296e-01
3.262120791666813790e-01 2.512895221715751859e-01
3.272526280633467621e-01 3.033954923647570467e-01
3.282931769600121452e-01 4.739768256876963903e-01
3.293337258566775283e-01 3.128806969415336425e-01
3.303742747533429114e-01 1.144094579061274430e-01
3.314148236500082945e-01 1.538472013949032657e-01
3.324553725466736775e-01 3.882900841377718848e-01
3.334959214433390606e-01 4.433846530172296241e-01
3.345364703400044437e-01 2.975704290448781819e-01
3.355770192366698268e-01 4.189352372135140001e-01
3.366175681333352099e-01 5.727895102704820829e-01
3.376581170300005930e-01 4.814514729328287501e-01
3.386986659266659760e-01 4.955954888914355649e-01
3.397392148233313591e-01 7.155004076503175270e-01
3.407797637199967422e-01 6.466428550151981369e-01
3.418203126166621253e-01 5.736032809304454361e-01
3.428608615133275084e-01 4.096405527891207043e-01
3.439014104099928915e-01 2.611113651503949029e-01
3.449419593066582745e-01 3.246992965355843808e-01
3.459825082033236576e-01 4.862871873766181352e-01
3.470230570999890407e-01 5.655192422690618059e-01
3.480636059966544238e-01 7.539440911320980376e-01
3.491041548933198069e-01 7.817967656852538028e-01
3.501447037899851900e-01 8.756465096976313589e-01
3.511852526866505730e-01 9.731545907024141684e-01
3.522258015833159561e-01 8.287423365779567064e-01
3.532663504799813392e-01 7.459973956932088868e-01
3.543068993766467223e-01 8.694602378259261855e-01
3.553474482733121054e-01 9.386982638006564628e-01
3.563879971699774885e-01 6.589113651364471025e-01
3.574285460666428715e-01 5.168768733765176648e-01
3.584690949633082546e-01 4.435748341132992323e-01
3.595096438599736377e-01 6.470483867469134509e-01
3.605501927566390208e-01 7.027686886958584012e-01
3.615907416533044039e-01 6.485553321095629542e-01
3.626312905499697870e-01 6.359391203524715763e-01
3.636718394466351700e-01 5.843047123474391924e-01
3.647123883433005531e-01 7.308830470391960432e-01
3.657529372399659362e-01 8.028390166508181380e-01
3.667934861366313193e-01 5.750100521784773377e-01
3.678340350332967024e-01 7.453925446246820741e-01
3.688745839299620854e-01 8.145414686952747729e-01
3.699151328266274685e-01 6.850557118252460498e-01
3.709556817232928516e-01 5.632307157015006283e-01
3.719962306199582347e-01 7.204880702888871724e-01
3.730367795166236178e-01 7.389664053945530497e-01
3.740773284132890009e-01 7.174444351468061143e-01
3.751178773099543839e-01 6.120913460122672234e-01
3.761584262066197670e-01 6.231379790839781663e-01
3.771989751032851501e-01 6.632199713989948009e-01
3.782395239999505332e-01 6.629210828550213819e-01
3.792800728966159163e-01 5.679749838241292537e-01
3.803206217932812994e-01 5.462019925782577445e-01
3.813611706899466824e-01 6.634926278659634136e-01
3.824017195866120655e-01 5.344870116866324850e-01
3.834422684832774486e-01 3.829089989029235142e-01
3.844828173799428317e-01 5.843711595426235306e-01
3.855233662766082148e-01 6.917202362724310660e-01
3.865639151732735979e-01 4.018329351747986777e-01
3.876044640699389809e-01 5.810989408307563053e-01
3.886450129666043640e-01 5.911312485764668168e-01
3.896855618632697471e-01 6.143547477206077190e-01
3.907261107599351302e-01 4.474991747532541808e-01
3.917666596566005133e-01 4.740121640360435151e-01
3.928072085532658964e-01 5.777134972437885096e-01
3.938477574499312794e-01 5.224929828632411954e-01
3.948883063465966625e-01 3.457686907554133882e-01
3.959288552432620456e-01 3.428936165241154299e-01
3.969694041399274287e-01 1.933577911344279698e-01
3.980099530365928118e-01 1.285775460496232370e-01
3.990505019332581949e-01 9.199759890064385104e-02
4.000910508299235779e-01 3.058548725770613430e-01
4.011315997265889610e-01 5.064656396379199066e-01
4.021721486232543441e-01 6.369413456294346076e-01
4.032126975199197272e-01 3.630675893727044468e-01
4.042532464165851103e-01 3.358429668495013232e-01
4.052937953132504934e-01 2.943168069626906913e-01
4.063343442099158764e-01 1.903534281390335536e-01
4.073748931065812595e-01 1.094943942942343540e-01
4.084154420032466426e-01 2.837516288830066458e-01
4.094559908999120257e-01 1.795722383106728159e-01
4.104965397965774088e-01 3.602711596277501371e-01
4.115370886932427918e-01 4.485278847700371330e-01
4.125776375899081749e-01 2.532846784384723549e-01
4.136181864865735580e-01 2.907756442458513391e-01
4.146587353832389411e-01 1.505057439324239965e-01
4.156992842799043242e-01 6.910912614928221842e-02
4.167398331765697073e-01 1.326322658662704157e-01
4.177803820732350903e-01 1.521845935169920949e-01
4.188209309699004734e-01 2.263312320367880659e-01
4.198614798665658565e-01 2.801926539064183430e-01
4.209020287632312396e-01 2.325046425486476664e-01
4.219425776598966227e-01 2.054589513849975901e-01
4.229831265565620058e-01 2.366230252974723669e-01
4.240236754532273888e-01 1.846037414073684602e-01
4.250642243498927719e-01 2.517748304691806993e-01
4.261047732465581550e-01 4.084773056804706926e-01
4.271453221432235381e-01 3.158735774947558639e-01
4.281858710398889212e-01 1.710546151154517247e-01
4.292264199365543043e-01 2.306032987431763104e-01
4.302669688332196873e-01 4.219905927660470013e-01
4.313075177298850704e-01 4.453245199547204436e-01
4.323480666265504535e-01 3.198263980863025324e-01
4.333886155232158366e-01 1.468747478122409689e-01
4.344291644198812197e-01 1.763966794160367613e-01
