# q (1/Angstrom), Intensity (arb)
2.029070354705860696e-02 5.806159236743637848e+02
2.133125244372399004e-02 5.741412767880822230e+02
2.237180134038937659e-02 5.673849064650651144e+02
2.341235023705475968e-02 5.596455481916189001e+02
2.445289913372014276e-02 5.547328802354792288e+02
2.549344803038552584e-02 5.514291046452086675e+02
2.653399692705091240e-02 5.482175086165789253e+02
2.757454582371629548e-02 5.438018018795471562e+02
2.861509472038167856e-02 5.367562912712377283e+02
2.965564361704706164e-02 5.296651877518671654e+02
3.069619251371244473e-02 5.242848665682961382e+02
3.173674141037782781e-02 5.174436399174203416e+02
3.277729030704321089e-02 5.105139126502134559e+02
3.381783920370859398e-02 5.030956493479935716e+02
3.485838810037397706e-02 4.949805138539474569e+02
3.589893699703936014e-02 4.838739892963785110e+02
3.693948589370474322e-02 4.756930467192035508e+02
3.798003479037012631e-02 4.674292428942239894e+02
3.902058368703550939e-02 4.591504604638045635e+02
4.006113258370089247e-02 4.509940614438804118e+02
4.110168148036627556e-02 4.420267779297104767e+02
4.214223037703165864e-02 4.338498664550020862e+02
4.318277927369704866e-02 4.245775313301735423e+02
4.422332817036243174e-02 4.168287832662168739e+02
4.526387706702781483e-02 4.069766170995076209e+02
4.630442596369319791e-02 3.996851549379746871e+02
4.734497486035858099e-02 3.922802584346014783e+02
4.838552375702396408e-02 3.830455617514093092e+02
4.942607265368934716e-02 3.734644509828681294e+02
5.046662155035473024e-02 3.637663295581124885e+02
5.150717044702011332e-02 3.538528030424417921e+02
5.254771934368549641e-02 3.433094254187691377e+02
5.358826824035087949e-02 3.347629042796285148e+02
5.462881713701626257e-02 3.262674225155385557e+02
5.566936603368164566e-02 3.174453207006971525e+02
5.670991493034702874e-02 3.093956087686521528e+02
5.775046382701241182e-02 3.002409085022799218e+02
5.879101272367779490e-02 2.908682161615265613e+02
5.983156162034317799e-02 2.831840217781687556e+02
6.087211051700856107e-02 2.734368200444311583e+02
6.191265941367394415e-02 2.645930327942836016e+02
6.295320831033933417e-02 2.552690144534509500e+02
6.399375720700471726e-02 2.470044840612242751e+02
6.503430610367010034e-02 2.389466436873414921e+02
6.607485500033548342e-02 2.288124218731877022e+02
6.711540389700086651e-02 2.207351018142125838e+02
6.815595279366624959e-02 2.149480409374535839e+02
6.919650169033163267e-02 2.081010654031537399e+02
7.023705058699701576e-02 2.007246850986550157e+02
7.127759948366239884e-02 1.933039293143804969e+02
7.231814838032778192e-02 1.846039714776660503e+02
7.335869727699316500e-02 1.781200348357617713e+02
7.439924617365854809e-02 1.722615412032993731e+02
7.543979507032393117e-02 1.657454401234809893e+02
7.648034396698931425e-02 1.597463928959909651e+02
7.752089286365469734e-02 1.547419197453036759e+02
7.856144176032008042e-02 1.510511326533634815e+02
7.960199065698546350e-02 1.491813887918768273e+02
8.064253955365084658e-02 1.572885026411940430e+02
8.168308845031622967e-02 2.305019517964667557e+02
8.272363734698161275e-02 4.744599520160670068e+02
8.376418624364699583e-02 6.099581492672557488e+02
8.480473514031239279e-02 3.979066515693776296e+02
8.584528403697777588e-02 2.603217251769988252e+02
8.688583293364315896e-02 3.431742171058954227e+02
8.792638183030854204e-02 6.311029460044286452e+02
8.896693072697392513e-02 6.734753299289820916e+02
9.000747962363930821e-02 3.777079599646938277e+02
9.104802852030469129e-02 2.618399040942970259e+02
9.208857741697007437e-02 3.452183023321222777e+02
9.312912631363545746e-02 6.427050109272871623e+02
9.416967521030084054e-02 9.758641424470704351e+02
9.521022410696622362e-02 7.985589622711346465e+02
9.625077300363160671e-02 3.752447516199492270e+02
9.729132190029698979e-02 1.787933417291166620e+02
9.833187079696237287e-02 1.137636512390696737e+02
9.937241969362775595e-02 8.610618392001531163e+01
1.004129685902931390e-01 7.391473070459532835e+01
1.014535174869585221e-01 7.048450295905283269e+01
1.024940663836239052e-01 6.309137653155174519e+01
1.035346152802892883e-01 4.885046829186570250e+01
1.045751641769546714e-01 3.905655104036819125e+01
1.056157130736200545e-01 3.401960123871279507e+01
1.066562619702854375e-01 2.984480648552023396e+01
1.076968108669508206e-01 2.700739987826737476e+01
1.087373597636162037e-01 2.413365046253955981e+01
1.097779086602815868e-01 2.146526329638829722e+01
1.108184575569469699e-01 1.926633994704768327e+01
1.118590064536123529e-01 1.705659013300156346e+01
1.128995553502777360e-01 1.571255301849281594e+01
1.139401042469431191e-01 1.450709406617882991e+01
1.149806531436085022e-01 1.301312939274300007e+01
1.160212020402738853e-01 1.146896843287226275e+01
1.170617509369392684e-01 1.062867289515202529e+01
1.181022998336046514e-01 1.015153841782884214e+01
1.191428487302700345e-01 9.285356719043594609e+00
1.201833976269354176e-01 9.504946779209806351e+00
1.212239465236008007e-01 9.460543818453146514e+00
1.222644954202661838e-01 8.175658991563356182e+00
1.233050443169315669e-01 6.108585460397289779e+00
1.243455932135969499e-01 4.045859641139749385e+00
1.253861421102623330e-01 2.881560179653032350e+00
1.264266910069277161e-01 2.509214390329827182e+00
1.274672399035930992e-01 2.421804775225290030e+00
1.285077888002584823e-01 1.866261964228932868e+00
1.295483376969238654e-01 1.644691038929728677e+00
1.305888865935892484e-01 1.899488242956930861e+00
1.316294354902546315e-01 1.648542953164596980e+00
1.326699843869200146e-01 1.265470734741292347e+00
1.337105332835853977e-01 1.325709275479024285e+00
1.347510821802507808e-01 1.457716630015497117e+00
1.357916310769161639e-01 1.140834769620450828e+00
1.368321799735815469e-01 1.300017469270105863e+00
1.378727288702469300e-01 1.691424049294273146e+00
1.389132777669123131e-01 1.602006010721048312e+00
1.399538266635776962e-01 1.822576644987083938e+00
1.409943755602430793e-01 2.437083342124886087e+00
1.420349244569084624e-01 3.464872382638137793e+00
1.430754733535738454e-01 7.481330745773636437e+00
1.441160222502392285e-01 1.544356627609834476e+01
1.451565711469046116e-01 1.413156166818472670e+01
1.461971200435699947e-01 6.728145346360513201e+00
1.472376689402353778e-01 4.305713362348171813e+00
1.482782178369007609e-01 3.988394795962161510e+00
1.493187667335661439e-01 4.392177835832139721e+00
1.503593156302315270e-01 5.131021130135184904e+00
1.513998645268969101e-01 5.274957266750629259e+00
1.524404134235622932e-01 6.319219894403769189e+00
1.534809623202276763e-01 7.336614470467413440e+00
1.545215112168930593e-01 1.008134761053445416e+01
1.555620601135584424e-01 1.681131263840342527e+01
1.566026090102238255e-01 2.285668711178587387e+01
1.576431579068892086e-01 2.089387190950412077e+01
1.586837068035545917e-01 1.438880025395024376e+01
1.597242557002199748e-01 9.948643728731198621e+00
1.607648045968853578e-01 7.966551669135863989e+00
1.618053534935507409e-01 7.207115153858236312e+00
1.628459023902161240e-01 6.925048119436542748e+00
1.638864512868815071e-01 6.888189702896298172e+00
1.649270001835468902e-01 7.869982765800120461e+00
1.659675490802122733e-01 1.160660128551901948e+01
1.670080979768776563e-01 1.726278825421814744e+01
1.680486468735430672e-01 3.095145345645176249e+01
1.690891957702084503e-01 5.937013210243480898e+01
1.701297446668738333e-01 5.341662014376157686e+01
1.711702935635392164e-01 3.221235412700117706e+01
1.722108424602045995e-01 3.506006761587318010e+01
1.732513913568699826e-01 3.098291476058665950e+01
1.742919402535353657e-01 1.712016429320908983e+01
1.753324891502007488e-01 1.177063497885508170e+01
1.763730380468661318e-01 1.344052897910009037e+01
1.774135869435315149e-01 1.330767706631367275e+01
1.784541358401968980e-01 8.867600124013904406e+00
1.794946847368622811e-01 6.382152332932793826e+00
1.805352336335276642e-01 6.020568156504154445e+00
1.815757825301930473e-01 5.638647990433319990e+00
1.826163314268584303e-01 5.286592513382355918e+00
1.836568803235238134e-01 5.228997269185761354e+00
1.846974292201891965e-01 5.494831887244867374e+00
1.857379781168545796e-01 5.714046282745730565e+00
1.867785270135199627e-01 5.910207258384204465e+00
1.878190759101853458e-01 6.530703834115850981e+00
1.888596248068507288e-01 6.828613983375142027e+00
1.899001737035161119e-01 6.188882253985955373e+00
1.909407226001814950e-01 5.251029849412997663e+00
1.919812714968468781e-01 4.663277111415883525e+00
1.930218203935122612e-01 4.502321814600335870e+00
1.940623692901776443e-01 4.156131709884988368e+00
1.951029181868430273e-01 4.078001524173224368e+00
1.961434670835084104e-01 3.972747493478120617e+00
1.971840159801737935e-01 3.606341817472884514e+00
1.982245648768391766e-01 3.330347093081343246e+00
1.992651137735045597e-01 2.750401030932206226e+00
2.003056626701699428e-01 2.426400922084859246e+00
2.013462115668353813e-01 2.520006182735254896e+00
2.023867604635007644e-01 2.208431268765863820e+00
2.034273093601661475e-01 1.916109672580088130e+00
2.044678582568315306e-01 1.740872316072767489e+00
2.055084071534969137e-01 1.674146143136130860e+00
2.065489560501622968e-01 1.715455452992653562e+00
2.075895049468276798e-01 1.598383949227372369e+00
2.086300538434930629e-01 1.746183366542993554e+00
2.096706027401584460e-01 1.817312541670485615e+00
2.107111516368238291e-01 1.684412715827132700e+00
2.117517005334892122e-01 1.651990328687801934e+00
2.127922494301545953e-01 1.733093797474364095e+00
2.138327983268199783e-01 1.616560399538979453e+00
2.148733472234853614e-01 1.149184345535442020e+00
2.159138961201507445e-01 9.091934018238241322e-01
2.169544450168161276e-01 7.939359306775308767e-01
2.179949939134815107e-01 6.212078365521520595e-01
2.190355428101468938e-01 4.835878461469711453e-01
2.200760917068122768e-01 8.111584335083072972e-01
2.211166406034776599e-01 7.890131953373042961e-01
2.221571895001430430e-01 5.509691751892731304e-01
2.231977383968084261e-01 6.074059912431160058e-01
2.242382872934738092e-01 5.843789024057386428e-01
2.252788361901391923e-01 5.201513589801294302e-01
2.263193850868045753e-01 2.666578314987866349e-01
2.273599339834699584e-01 1.606771044004133842e-01
2.284004828801353415e-01 3.594021844694736956e-01
2.294410317768007246e-01 5.752086038701591519e-01
2.304815806734661077e-01 3.284450081444845182e-01
2.315221295701314908e-01 4.414636282799442313e-01
2.325626784667968738e-01 3.706007903551338245e-01
2.336032273634622569e-01 3.870601281497876300e-01
2.346437762601276400e-01 5.452751843238701213e-01
2.356843251567930231e-01 7.676880302785100696e-01
2.367248740534584062e-01 9.541741515459456480e-01
2.377654229501237892e-01 8.753535252521054133e-01
2.388059718467891723e-01 7.149124574897669504e-01
2.398465207434545554e-01 5.763287532081058373e-01
2.408870696401199385e-01 5.496197733231973359e-01
2.419276185367853216e-01 8.001618092136801863e-01
2.429681674334507047e-01 7.803741731714417540e-01
2.440087163301160877e-01 7.049327592263523456e-01
2.450492652267814708e-01 6.792199152189937195e-01
2.460898141234468539e-01 7.989279866876124458e-01
2.471303630201122370e-01 8.015535043978800900e-01
2.481709119167776201e-01 1.164269663934419441e+00
2.492114608134430032e-01 1.704746270389129847e+00
2.502520097101083585e-01 2.262133897945147964e+00
2.512925586067737416e-01 1.856975247166072762e+00
2.523331075034391247e-01 1.326561340991091242e+00
2.533736564001045077e-01 1.229004758914982176e+00
2.544142052967698908e-01 1.298447515090327187e+00
2.554547541934352739e-01 1.829016987853492537e+00
2.564953030901006570e-01 2.658864130595180342e+00
2.575358519867660401e-01 3.390826953508963015e+00
2.585764008834314231e-01 2.746208662721553395e+00
2.596169497800968062e-01 1.778809155195240521e+00
2.606574986767621893e-01 1.538926303801382289e+00
2.616980475734275724e-01 1.296434911148388380e+00
2.627385964700929555e-01 1.432291818458505617e+00
2.637791453667583386e-01 2.340729872005557155e+00
2.648196942634237216e-01 4.131624961594088319e+00
2.658602431600891047e-01 4.801294016675793586e+00
2.669007920567544878e-01 2.910048335458476743e+00
2.679413409534198709e-01 1.698571729189250590e+00
2.689818898500852540e-01 1.455795441876070129e+00
2.700224387467506371e-01 1.242143510229297476e+00
2.710629876434160201e-01 1.204029673546560986e+00
2.721035365400814032e-01 1.413846035167271253e+00
2.731440854367467863e-01 1.354555454443712392e+00
2.741846343334121694e-01 1.323816478527440665e+00
2.752251832300775525e-01 1.650969505171445917e+00
2.762657321267429356e-01 1.880246864382279171e+00
2.773062810234083186e-01 1.993533771844681723e+00
2.783468299200737017e-01 1.871644260836742291e+00
2.793873788167390848e-01 1.468462689875998706e+00
2.804279277134044679e-01 1.369976305734752486e+00
2.814684766100698510e-01 1.263495643686880499e+00
2.825090255067352341e-01 1.460187590086523102e+00
2.835495744034006171e-01 1.440322492145256206e+00
2.845901233000660002e-01 1.250091548216634152e+00
2.856306721967313833e-01 9.685006299392000528e-01
2.866712210933967664e-01 1.114878177109240198e+00
2.877117699900621495e-01 1.415938951046630478e+00
2.887523188867275326e-01 1.597671377601617593e+00
2.897928677833929156e-01 1.322309397349687998e+00
2.908334166800582987e-01 8.055272413986962476e-01
2.918739655767236818e-01 5.648162837435570793e-01
2.929145144733890649e-01 6.601366817208109694e-01
2.939550633700544480e-01 4.324688928790152431e-01
2.949956122667198311e-01 4.870085161011452612e-01
2.960361611633852141e-01 6.225265611223349538e-01
2.970767100600505972e-01 6.437481595035983162e-01
2.981172589567159803e-01 4.047935724585691730e-01
2.991578078533813634e-01 5.849574656744387369e-01
3.001983567500468020e-01 8.157913459394734446e-01
3.012389056467121851e-01 1.054234955310874966e+00
3.022794545433775681e-01 1.363642372904674716e+00
3.033200034400429512e-01 1.361427785948571056e+00
3.043605523367083343e-01 1.227080823847046531e+00
3.054011012333737174e-01 7.502478944394219695e-01
3.064416501300391005e-01 5.037107235313555975e-01
3.074821990267044836e-01 5.694606923005558485e-01
3.085227479233698666e-01 3.703948352598658289e-01
3.095632968200352497e-01 3.194942673399090438e-01
3.106038457167006328e-01 4.522502883823378284e-01
3.116443946133660159e-01 4.119892203659887286e-01
3.126849435100313990e-01 4.650014693580715175e-01
3.137254924066967821e-01 5.706137881992106031e-01
3.147660413033621651e-01 4.829985242825927116e-01
3.158065902000275482e-01 4.845392575863272100e-01
3.168471390966929313e-01 3.078976911949062867e-01
3.178876879933583144e-01 1.615962680302622800e-01
3.189282368900236975e-01 8.651788674973204252e-02
3.199687857866890806e-01 1.665436305559033769e-01
3.210093346833544636e-01 2.489010321200808562e-01
3.220498835800198467e-01 1.254376787069766408e-01
3.230904324766852298e-01 1.486024954201781156e-01
3.241309813733506129e-01 3.168258038269087251e-01
3.251715302700159960e-01 2.404919479498808244e-01
3.262120791666813790e-01 2.371452269772014176e-01
3.272526280633467621e-01 3.451945160178730987e-01
3.282931769600121452e-01 3.319927135522497963e-01
3.293337258566775283e-01 3.216000078180201172e-01
3.303742747533429114e-01 3.011600523276705133e-01
3.314148236500082945e-01 1.885019565253713836e-01
3.324553725466736775e-01 2.126113648648413346e-01
3.334959214433390606e-01 8.255002715819514947e-02
3.345364703400044437e-01 3.319655729963244539e-02
3.355770192366698268e-01 4.030644184440674849e-01
3.366175681333352099e-01 6.705224052656468814e-01
3.376581170300005930e-01 5.684393965379221925e-01
3.386986659266659760e-01 4.143320953002103124e-01
3.397392148233313591e-01 3.980583688348886540e-01
3.407797637199967422e-01 3.796915122334532100e-01
3.418203126166621253e-01 4.872442286657623356e-01
3.428608615133275084e-01 3.962813087850989291e-01
3.439014104099928915e-01 3.519419207872296340e-01
3.449419593066582745e-01 4.310257266870536341e-01
3.459825082033236576e-01 3.703273808665308309e-01
3.470230570999890407e-01 3.893062322853531043e-01
3.480636059966544238e-01 5.987063336767590727e-01
3.491041548933198069e-01 5.988145487890825791e-01
3.501447037899851900e-01 6.010578279830767201e-01
3.511852526866505730e-01 5.634792280738345482e-01
3.522258015833159561e-01 5.421723837775083155e-01
3.532663504799813392e-01 7.158910060965020250e-01
3.543068993766467223e-01 6.832542702472998997e-01
3.553474482733121054e-01 5.894610459365914323e-01
3.563879971699774885e-01 6.904941730017100099e-01
3.574285460666428715e-01 7.945201333146556522e-01
3.584690949633082546e-01 6.379241884072470725e-01
3.595096438599736377e-01 6.357380387885598338e-01
3.605501927566390208e-01 6.299142296025124210e-01
3.615907416533044039e-01 7.747741082109946831e-01
3.626312905499697870e-01 7.166690116226490659e-01
3.636718394466351700e-01 8.653572953057064865e-01
3.647123883433005531e-01 1.151258548706426410e+00
3.657529372399659362e-01 1.210842812029891746e+00
3.667934861366313193e-01 1.069628963566721325e+00
3.678340350332967024e-01 7.641590490575858041e-01
3.688745839299620854e-01 6.710439949319280117e-01
3.699151328266274685e-01 5.255519757279607518e-01
3.709556817232928516e-01 5.268968306217232112e-01
3.719962306199582347e-01 7.149359506681491894e-01
3.730367795166236178e-01 8.016790429289990527e-01
3.740773284132890009e-01 9.849268851997585728e-01
3.751178773099543839e-01 6.102688686943622542e-01
3.761584262066197670e-01 6.012578954953475829e-01
3.771989751032851501e-01 7.214302210750886957e-01
3.782395239999505332e-01 7.081008751434296755e-01
3.792800728966159163e-01 6.843236146118485408e-01
3.803206217932812994e-01 7.331396513388277469e-01
3.813611706899466824e-01 8.629728580929985071e-01
3.824017195866120655e-01 7.945280073554741307e-01
3.834422684832774486e-01 6.098472922283022513e-01
3.844828173799428317e-01 5.520569279629121695e-01
3.855233662766082148e-01 6.727467556596735676e-01
3.865639151732735979e-01 7.246231025367926293e-01
3.876044640699389809e-01 5.797443702773961149e-01
3.886450129666043640e-01 5.937191596301509833e-01
3.896855618632697471e-01 5.016798972655145405e-01
3.907261107599351302e-01 4.552433344428834516e-01
3.917666596566005133e-01 5.850570133849899435e-01
3.928072085532658964e-01 8.615531475954441021e-01
3.938477574499312794e-01 5.473755994437041750e-01
3.948883063465966625e-01 3.937045606123206198e-01
3.959288552432620456e-01 2.659278597507324093e-01
3.969694041399274287e-01 3.185228271969648972e-01
3.980099530365928118e-01 2.422500413845050105e-01
3.990505019332581949e-01 7.401305968078730757e-02
4.000910508299235779e-01 8.534271403185655913e-02
4.011315997265889610e-01 9.534623722564816717e-02
4.021721486232543441e-01 4.400040298835747876e-01
4.032126975199197272e-01 4.392858643235619809e-01
4.042532464165851103e-01 3.320684924634704771e-01
4.052937953132504934e-01 2.530289766379993921e-01
4.063343442099158764e-01 2.796310315869590113e-01
4.073748931065812595e-01 4.645494098909779268e-01
4.084154420032466426e-01 3.525409534780301612e-01
4.094559908999120257e-01 2.848077318154871307e-01
4.104965397965774088e-01 1.649539422609542783e-01
4.115370886932427918e-01 1.964876913141004877e-01
4.125776375899081749e-01 3.198298546793552077e-01
4.136181864865735580e-01 3.635113803296405877e-01
4.146587353832389411e-01 2.981632936362750286e-01
4.156992842799043242e-01 3.442211877198495529e-01
4.167398331765697073e-01 2.572695698865636871e-01
4.177803820732350903e-01 2.452524467585419643e-01
4.188209309699004734e-01 2.458743341024742790e-01
4.198614798665658565e-01 3.362754565443353272e-01
4.209020287632312396e-01 3.688996757957774264e-01
4.219425776598966227e-01 4.399405578067288047e-01
4.229831265565620058e-01 4.496067195036381747e-01
4.240236754532273888e-01 5.625328298979077601e-01
4.250642243498927719e-01 6.650426713288730696e-01
4.261047732465581550e-01 6.432560900386761205e-01
4.271453221432235381e-01 4.494062454866778467e-01
4.281858710398889212e-01 2.951757824577683209e-01
4.292264199365543043e-01 2.939248455685650185e-01
4.302669688332196873e-01 4.609661005426879399e-01
4.313075177298850704e-01 4.017336680977194874e-01
4.323480666265504535e-01 2.662516861353481090e-01
4.333886155232158366e-01 2.047357239416136565e-01
4.344291644198812197e-01 3.336393860273574319e-01
