# q (1/Angstrom), Intensity (arb)
2.029070354705860696e-02 1.623130054597181697e+03
2.133125244372399004e-02 1.611876580059273692e+03
2.237180134038937659e-02 1.601505136904602523e+03
2.341235023705475968e-02 1.588678593846048443e+03
2.445289913372014276e-02 1.573387260270587831e+03
2.549344803038552584e-02 1.560679901044186636e+03
2.653399692705091240e-02 1.542449236145840814e+03
2.757454582371629548e-02 1.523227583609114845e+03
2.861509472038167856e-02 1.500834683746187011e+03
2.965564361704706164e-02 1.488684852665669951e+03
3.069619251371244473e-02 1.469397312453671930e+03
3.173674141037782781e-02 1.448784826012144094e+03
3.277729030704321089e-02 1.429637327634135318e+03
3.381783920370859398e-02 1.408391570189173990e+03
3.485838810037397706e-02 1.384142453169604096e+03
3.589893699703936014e-02 1.360618051090531026e+03
3.693948589370474322e-02 1.336111237845557980e+03
3.798003479037012631e-02 1.314415554446383112e+03
3.902058368703550939e-02 1.290279933486744312e+03
4.006113258370089247e-02 1.263195326041609178e+03
4.110168148036627556e-02 1.239983613696188968e+03
4.214223037703165864e-02 1.210948307753494646e+03
4.318277927369704866e-02 1.183637779662521098e+03
4.422332817036243174e-02 1.158438855667483722e+03
4.526387706702781483e-02 1.131072968712994225e+03
4.630442596369319791e-02 1.107919250219352080e+03
4.734497486035858099e-02 1.080633693018611666e+03
4.838552375702396408e-02 1.053793854552890252e+03
4.942607265368934716e-02 1.027686561507978695e+03
5.046662155035473024e-02 1.002652220769005339e+03
5.150717044702011332e-02 9.756364585951884010e+02
5.254771934368549641e-02 9.486567332434902937e+02
5.358826824035087949e-02 9.259923940625059231e+02
5.462881713701626257e-02 9.019371843762658045e+02
5.566936603368164566e-02 8.734183982277183986e+02
5.670991493034702874e-02 8.463351528438163314e+02
5.775046382701241182e-02 8.202948121654511624e+02
5.879101272367779490e-02 7.962023278658584786e+02
5.983156162034317799e-02 7.704469201592311265e+02
6.087211051700856107e-02 7.449963445215573756e+02
6.191265941367394415e-02 7.207022126395720534e+02
6.295320831033933417e-02 6.953150892682922404e+02
6.399375720700471726e-02 6.706633565222286961e+02
6.503430610367010034e-02 6.449996213077298535e+02
6.607485500033548342e-02 6.225202209905230575e+02
6.711540389700086651e-02 6.011673524578424122e+02
6.815595279366624959e-02 5.781728105767267607e+02
6.919650169033163267e-02 5.551379564204231656e+02
7.023705058699701576e-02 5.334351592067148431e+02
7.127759948366239884e-02 5.105395939331969544e+02
7.231814838032778192e-02 4.894240011106475094e+02
7.335869727699316500e-02 4.682855002493295729e+02
7.439924617365854809e-02 4.479597926465488626e+02
7.543979507032393117e-02 4.282105693162678790e+02
7.648034396698931425e-02 4.087183213018606125e+02
7.752089286365469734e-02 3.891753125196723317e+02
7.856144176032008042e-02 3.702048150008614016e+02
7.960199065698546350e-02 3.522888505544001418e+02
8.064253955365084658e-02 3.360288108409795882e+02
8.168308845031622967e-02 3.193310564230013142e+02
8.272363734698161275e-02 3.028638628203188432e+02
8.376418624364699583e-02 2.867584609604026014e+02
8.480473514031239279e-02 2.716091472770665973e+02
8.584528403697777588e-02 2.567509801625893715e+02
8.688583293364315896e-02 2.404377090484981068e+02
8.792638183030854204e-02 2.271320683759693679e+02
8.896693072697392513e-02 2.134135674164787133e+02
9.000747962363930821e-02 1.996969172865444762e+02
9.104802852030469129e-02 1.861803668252302657e+02
9.208857741697007437e-02 1.747435290135263415e+02
9.312912631363545746e-02 1.642079586700158416e+02
9.416967521030084054e-02 1.538078630988136126e+02
9.521022410696622362e-02 1.425809756899162437e+02
9.625077300363160671e-02 1.321633692155752158e+02
9.729132190029698979e-02 1.227996687107663121e+02
9.833187079696237287e-02 1.130511284695718359e+02
9.937241969362775595e-02 1.048026754891831871e+02
1.004129685902931390e-01 9.745588469943852772e+01
1.014535174869585221e-01 8.978005724535012178e+01
1.024940663836239052e-01 8.132530715416341138e+01
1.035346152802892883e-01 7.451772009112326600e+01
1.045751641769546714e-01 6.767319227223597977e+01
1.056157130736200545e-01 6.156225538886897652e+01
1.066562619702854375e-01 5.612350424593351050e+01
1.076968108669508206e-01 5.138453015997714601e+01
1.087373597636162037e-01 4.640351081789629006e+01
1.097779086602815868e-01 4.120011474514347327e+01
1.108184575569469699e-01 3.657363023007526692e+01
1.118590064536123529e-01 3.265403327083500074e+01
1.128995553502777360e-01 2.908209572556128819e+01
1.139401042469431191e-01 2.577078225945277623e+01
1.149806531436085022e-01 2.231853557030689927e+01
1.160212020402738853e-01 1.917759579312524920e+01
1.170617509369392684e-01 1.663698703018693692e+01
1.181022998336046514e-01 1.451913314883959671e+01
1.191428487302700345e-01 1.256382870346116576e+01
1.201833976269354176e-01 1.015023783752389974e+01
1.212239465236008007e-01 8.735553015527365517e+00
1.222644954202661838e-01 7.429079581943856425e+00
1.233050443169315669e-01 6.242282971014898152e+00
1.243455932135969499e-01 5.422100158516997226e+00
1.253861421102623330e-01 4.438110972726697412e+00
1.264266910069277161e-01 3.439022099155032208e+00
1.274672399035930992e-01 2.639780606426409548e+00
1.285077888002584823e-01 1.990878610657549785e+00
1.295483376969238654e-01 1.869918662864506587e+00
1.305888865935892484e-01 1.778193859999568360e+00
1.316294354902546315e-01 2.093245914877037706e+00
1.326699843869200146e-01 1.828410321518298076e+00
1.337105332835853977e-01 1.864504070077153131e+00
1.347510821802507808e-01 1.938116260951698422e+00
1.357916310769161639e-01 2.219418984814648610e+00
1.368321799735815469e-01 2.101888629536702524e+00
1.378727288702469300e-01 2.924727996437827215e+00
1.389132777669123131e-01 3.276518014455032102e+00
1.399538266635776962e-01 3.831962134976414802e+00
1.409943755602430793e-01 3.876361111341790178e+00
1.420349244569084624e-01 4.138728515474017655e+00
1.430754733535738454e-01 4.697890951381751279e+00
1.441160222502392285e-01 5.352516376736410564e+00
1.451565711469046116e-01 6.153662438278104219e+00
1.461971200435699947e-01 6.346867901138253387e+00
1.472376689402353778e-01 6.824946880985461206e+00
1.482782178369007609e-01 7.669858786200688172e+00
1.493187667335661439e-01 8.173418240571663773e+00
1.503593156302315270e-01 8.739898433551584134e+00
1.513998645268969101e-01 9.028759469078948996e+00
1.524404134235622932e-01 9.351050465286977698e+00
1.534809623202276763e-01 9.855487617732560324e+00
1.545215112168930593e-01 1.031258118234942600e+01
1.555620601135584424e-01 1.098281333471216215e+01
1.566026090102238255e-01 1.124218994430498242e+01
1.576431579068892086e-01 1.166659165470353798e+01
1.586837068035545917e-01 1.209417743217356644e+01
1.597242557002199748e-01 1.219574437269029232e+01
1.607648045968853578e-01 1.234712056479839504e+01
1.618053534935507409e-01 1.283494603294759173e+01
1.628459023902161240e-01 1.310183117986815304e+01
1.638864512868815071e-01 1.354683795291636628e+01
1.649270001835468902e-01 1.342208840575544571e+01
1.659675490802122733e-01 1.333986516538615774e+01
1.670080979768776563e-01 1.357584812677118791e+01
1.680486468735430672e-01 1.367013210325314176e+01
1.690891957702084503e-01 1.376012322054132042e+01
1.701297446668738333e-01 1.351038342189534802e+01
1.711702935635392164e-01 1.357635697734475144e+01
1.722108424602045995e-01 1.354164944349078326e+01
1.732513913568699826e-01 1.331365443836434537e+01
1.742919402535353657e-01 1.309829726442612596e+01
1.753324891502007488e-01 1.284246535026843006e+01
1.763730380468661318e-01 1.285082538844283562e+01
1.774135869435315149e-01 1.280363911414130484e+01
1.784541358401968980e-01 1.233563407440255943e+01
1.794946847368622811e-01 1.175436314654650261e+01
1.805352336335276642e-01 1.156668800663940999e+01
1.815757825301930473e-01 1.134653299978388574e+01
1.826163314268584303e-01 1.111299962201409741e+01
1.836568803235238134e-01 1.087005323386706124e+01
1.846974292201891965e-01 1.013343742111528201e+01
1.857379781168545796e-01 9.969410143119930012e+00
1.867785270135199627e-01 9.621883566127788612e+00
1.878190759101853458e-01 9.239566709952072188e+00
1.888596248068507288e-01 9.095396740438978611e+00
1.899001737035161119e-01 8.674756280665210539e+00
1.909407226001814950e-01 8.040067065865713403e+00
1.919812714968468781e-01 7.628580380284105900e+00
1.930218203935122612e-01 7.166691311467566550e+00
1.940623692901776443e-01 6.561718851819968279e+00
1.951029181868430273e-01 6.263275541229695875e+00
1.961434670835084104e-01 6.149634843142528950e+00
1.971840159801737935e-01 5.599960477061841857e+00
1.982245648768391766e-01 5.157851270389205212e+00
1.992651137735045597e-01 5.126862334732773974e+00
2.003056626701699428e-01 4.928903329051642856e+00
2.013462115668353813e-01 4.709822983145251385e+00
2.023867604635007644e-01 4.365078208641168800e+00
2.034273093601661475e-01 4.153649692028267282e+00
2.044678582568315306e-01 3.554030940227580260e+00
2.055084071534969137e-01 3.337907051916769063e+00
2.065489560501622968e-01 3.036641606676237615e+00
2.075895049468276798e-01 2.709088300194512300e+00
2.086300538434930629e-01 2.696175579477053219e+00
2.096706027401584460e-01 2.671579953787993844e+00
2.107111516368238291e-01 2.394972809089864541e+00
2.117517005334892122e-01 2.388447702151154317e+00
2.127922494301545953e-01 2.326551770526737783e+00
2.138327983268199783e-01 2.080029899591487208e+00
2.148733472234853614e-01 1.416558936201205654e+00
2.159138961201507445e-01 1.256283125539969348e+00
2.169544450168161276e-01 1.198829932646788166e+00
2.179949939134815107e-01 9.235262458848332301e-01
2.190355428101468938e-01 9.595415832612950169e-01
2.200760917068122768e-01 9.651878721944093797e-01
2.211166406034776599e-01 9.139753950768856328e-01
2.221571895001430430e-01 7.853983723706363662e-01
2.231977383968084261e-01 8.356971543146585191e-01
2.242382872934738092e-01 5.406557852750744075e-01
2.252788361901391923e-01 7.231214153230212105e-01
2.263193850868045753e-01 6.037592898268115960e-01
2.273599339834699584e-01 4.128560576906998847e-01
2.284004828801353415e-01 3.969499034169494678e-01
2.294410317768007246e-01 4.787787824969740313e-01
2.304815806734661077e-01 7.922719230562513815e-01
2.315221295701314908e-01 6.328157142424402082e-01
2.325626784667968738e-01 6.903586838532618231e-01
2.336032273634622569e-01 1.170796944160432673e+00
2.346437762601276400e-01 8.639836506110469827e-01
2.356843251567930231e-01 7.029590480842529132e-01
2.367248740534584062e-01 9.195826301116838408e-01
2.377654229501237892e-01 1.016663212389577353e+00
2.388059718467891723e-01 1.325792452319884518e+00
2.398465207434545554e-01 1.285255097320664674e+00
2.408870696401199385e-01 1.391650559068342119e+00
2.419276185367853216e-01 1.480558363040291425e+00
2.429681674334507047e-01 1.445752182819475706e+00
2.440087163301160877e-01 1.482085369998340951e+00
2.450492652267814708e-01 1.442461934149338987e+00
2.460898141234468539e-01 1.319102144848880442e+00
2.471303630201122370e-01 1.541965479032739950e+00
2.481709119167776201e-01 1.835919531255072457e+00
2.492114608134430032e-01 1.725961563370873364e+00
2.502520097101083585e-01 1.813881351133513675e+00
2.512925586067737416e-01 2.186488145857239829e+00
2.523331075034391247e-01 2.221933875959070548e+00
2.533736564001045077e-01 2.085265790441575007e+00
2.544142052967698908e-01 2.225951688485565683e+00
2.554547541934352739e-01 2.503230513744899355e+00
2.564953030901006570e-01 2.157023985172028091e+00
2.575358519867660401e-01 2.089271248207008824e+00
2.585764008834314231e-01 2.175421443307133273e+00
2.596169497800968062e-01 2.002928695111172885e+00
2.606574986767621893e-01 2.028270472941102298e+00
2.616980475734275724e-01 2.299757978483956578e+00
2.627385964700929555e-01 2.406789762403075628e+00
2.637791453667583386e-01 2.444453064997965441e+00
2.648196942634237216e-01 2.357712453699289057e+00
2.658602431600891047e-01 2.274107064236492448e+00
2.669007920567544878e-01 2.545535108933940194e+00
2.679413409534198709e-01 2.559531534165749633e+00
2.689818898500852540e-01 2.352581980946144569e+00
2.700224387467506371e-01 2.240695563138260127e+00
2.710629876434160201e-01 2.439852602529015257e+00
2.721035365400814032e-01 2.347298115243670935e+00
2.731440854367467863e-01 2.267736208213381843e+00
2.741846343334121694e-01 2.265893725892741628e+00
2.752251832300775525e-01 2.389211354207116500e+00
2.762657321267429356e-01 2.297879708619237960e+00
2.773062810234083186e-01 2.402438014642193309e+00
2.783468299200737017e-01 2.110133814059373947e+00
2.793873788167390848e-01 1.994463085606266617e+00
2.804279277134044679e-01 2.129006030947362405e+00
2.814684766100698510e-01 2.040392256478551047e+00
2.825090255067352341e-01 1.894871867560024015e+00
2.835495744034006171e-01 1.995589683013175630e+00
2.845901233000660002e-01 1.950908601990594349e+00
2.856306721967313833e-01 1.807158938165457585e+00
2.866712210933967664e-01 1.667320000850697426e+00
2.877117699900621495e-01 1.666290951138968524e+00
2.887523188867275326e-01 1.503257851106091891e+00
2.897928677833929156e-01 1.393744398691648456e+00
2.908334166800582987e-01 1.404870969346696086e+00
2.918739655767236818e-01 1.311910948617356354e+00
2.929145144733890649e-01 1.239608148206400529e+00
2.939550633700544480e-01 1.194811478094727875e+00
2.949956122667198311e-01 1.135658127702701137e+00
2.960361611633852141e-01 1.088291353689616159e+00
2.970767100600505972e-01 1.094396638303120284e+00
2.981172589567159803e-01 9.835863698049998050e-01
2.991578078533813634e-01 8.786009624324506717e-01
3.001983567500468020e-01 9.866671963321671512e-01
3.012389056467121851e-01 9.116184303937373556e-01
3.022794545433775681e-01 9.181967564013717720e-01
3.033200034400429512e-01 7.651710750716773646e-01
3.043605523367083343e-01 6.420704907053078614e-01
3.054011012333737174e-01 5.528367053022158473e-01
3.064416501300391005e-01 6.077596214792784224e-01
3.074821990267044836e-01 6.786911574736933517e-01
3.085227479233698666e-01 6.799527465631136636e-01
3.095632968200352497e-01 5.054578283370787517e-01
3.106038457167006328e-01 7.418982120183521545e-01
3.116443946133660159e-01 8.551919767324953625e-01
3.126849435100313990e-01 6.820511670470246202e-01
3.137254924066967821e-01 6.452819982633997142e-01
3.147660413033621651e-01 8.510023171739717895e-01
3.158065902000275482e-01 7.254325983743292738e-01
3.168471390966929313e-01 7.183952584908546157e-01
3.178876879933583144e-01 4.502496619593188143e-01
3.189282368900236975e-01 2.222818854117711851e-01
3.199687857866890806e-01 4.561311541645842738e-01
3.210093346833544636e-01 6.063198946344208196e-01
3.220498835800198467e-01 3.660704594219090779e-01
3.230904324766852298e-01 3.027175468685001647e-01
3.241309813733506129e-01 5.002523491882477913e-01
3.251715302700159960e-01 4.016910986341706291e-01
3.262120791666813790e-01 5.870540708427576249e-01
3.272526280633467621e-01 5.140452394122227986e-01
3.282931769600121452e-01 4.881521782021884803e-01
3.293337258566775283e-01 4.770398621184845922e-01
3.303742747533429114e-01 7.061326461559289669e-01
3.314148236500082945e-01 5.266283456514528893e-01
3.324553725466736775e-01 4.806988784727792563e-01
3.334959214433390606e-01 5.256609652002701694e-01
3.345364703400044437e-01 5.802796391997127046e-01
3.355770192366698268e-01 7.195345566498936307e-01
3.366175681333352099e-01 5.681047865160522292e-01
3.376581170300005930e-01 6.197124306363477331e-01
3.386986659266659760e-01 6.568532528768109557e-01
3.397392148233313591e-01 7.317556979353696534e-01
3.407797637199967422e-01 8.608793185583358820e-01
3.418203126166621253e-01 7.428710289896187646e-01
3.428608615133275084e-01 6.395285964684482849e-01
3.439014104099928915e-01 7.518980383284343816e-01
3.449419593066582745e-01 7.822666094594232788e-01
3.459825082033236576e-01 5.859838034895723524e-01
3.470230570999890407e-01 5.903768097816310956e-01
3.480636059966544238e-01 9.506893872113373334e-01
3.491041548933198069e-01 1.043760465354317546e+00
3.501447037899851900e-01 1.066790564099399319e+00
3.511852526866505730e-01 1.039433787420655619e+00
3.522258015833159561e-01 8.959574535675862705e-01
3.532663504799813392e-01 8.148643622327043090e-01
3.543068993766467223e-01 8.371992950259752320e-01
3.553474482733121054e-01 9.716679992822285783e-01
3.563879971699774885e-01 1.000068052267064189e+00
3.574285460666428715e-01 1.082210732891667249e+00
3.584690949633082546e-01 9.622837339804810597e-01
3.595096438599736377e-01 1.094755574572236156e+00
3.605501927566390208e-01 9.197984633036107027e-01
3.615907416533044039e-01 7.928662104304713409e-01
3.626312905499697870e-01 8.370871049326282787e-01
3.636718394466351700e-01 7.882832772124857001e-01
3.647123883433005531e-01 8.269971876749693251e-01
3.657529372399659362e-01 9.116725007748733844e-01
3.667934861366313193e-01 9.892645382322946546e-01
3.678340350332967024e-01 7.632141503663092408e-01
3.688745839299620854e-01 8.510477097878528241e-01
3.699151328266274685e-01 1.043662267606304539e+00
3.709556817232928516e-01 9.279222709795753588e-01
3.719962306199582347e-01 7.005530370720158828e-01
3.730367795166236178e-01 8.149546010837163124e-01
3.740773284132890009e-01 7.277831559747376389e-01
3.751178773099543839e-01 7.405361807191219725e-01
3.761584262066197670e-01 6.651641995381432082e-01
3.771989751032851501e-01 7.475488835055514869e-01
3.782395239999505332e-01 7.469783287385709514e-01
3.792800728966159163e-01 7.163198946579427684e-01
3.803206217932812994e-01 7.424944746812123242e-01
3.813611706899466824e-01 7.085237489469307093e-01
3.824017195866120655e-01 5.771610954472734534e-01
3.834422684832774486e-01 3.998375055806917544e-01
3.844828173799428317e-01 5.380977375533468887e-01
3.855233662766082148e-01 4.908966395951246398e-01
3.865639151732735979e-01 6.247390134240937698e-01
3.876044640699389809e-01 7.306348267856854761e-01
3.886450129666043640e-01 6.743463745902040785e-01
3.896855618632697471e-01 5.287777922575038758e-01
3.907261107599351302e-01 5.895623399354050775e-01
3.917666596566005133e-01 6.151937615638480850e-01
3.928072085532658964e-01 7.247772899339821606e-01
3.938477574499312794e-01 6.842261631967154756e-01
3.948883063465966625e-01 5.968287329921366791e-01
3.959288552432620456e-01 5.978732885823561105e-01
3.969694041399274287e-01 4.355178965385597678e-01
3.980099530365928118e-01 5.939613428614549662e-01
3.990505019332581949e-01 6.195984688504694304e-01
4.000910508299235779e-01 5.366684495111861963e-01
4.011315997265889610e-01 7.777075799353063701e-01
4.021721486232543441e-01 5.032297384317629962e-01
4.032126975199197272e-01 2.810302369269948031e-01
4.042532464165851103e-01 5.177844176714962998e-01
4.052937953132504934e-01 5.525981924774541199e-01
4.063343442099158764e-01 4.800635473980250367e-01
4.073748931065812595e-01 2.407845240253578822e-01
4.084154420032466426e-01 3.456011359674029393e-01
4.094559908999120257e-01 2.610656413457235203e-01
4.104965397965774088e-01 2.401708842861758342e-01
4.115370886932427918e-01 1.898757511912307905e-01
4.125776375899081749e-01 1.722118665122174264e-01
4.136181864865735580e-01 2.135091788034593208e-01
4.146587353832389411e-01 4.015384156241914582e-01
4.156992842799043242e-01 5.704287986948060052e-01
4.167398331765697073e-01 3.365386925097872961e-01
4.177803820732350903e-01 3.872191365811836761e-01
4.188209309699004734e-01 4.555408417762016882e-01
4.198614798665658565e-01 6.041666791486939303e-01
4.209020287632312396e-01 4.573120969766328869e-01
4.219425776598966227e-01 4.034463205954992304e-01
4.229831265565620058e-01 3.112217135073116481e-01
4.240236754532273888e-01 4.411634559549248991e-01
4.250642243498927719e-01 5.938276785363072463e-01
4.261047732465581550e-01 5.086112833465357141e-01
4.271453221432235381e-01 3.930762212805944955e-01
4.281858710398889212e-01 4.228687851635157813e-01
4.292264199365543043e-01 3.030416268249176426e-01
4.302669688332196873e-01 5.615565964123945264e-01
4.313075177298850704e-01 5.209617724422699325e-01
4.323480666265504535e-01 5.560048404720845383e-01
4.333886155232158366e-01 5.185814341086860679e-01
4.344291644198812197e-01 4.788640436361113473e-01
