# q (1/Angstrom), Intensity (arb)
2.029070354705860696e-02 1.483010532412822613e+03
2.133125244372399004e-02 1.477695792827563992e+03
2.237180134038937659e-02 1.469896020614538656e+03
2.341235023705475968e-02 1.456648789174272451e+03
2.445289913372014276e-02 1.444474417848873372e+03
2.549344803038552584e-02 1.434245182123928316e+03
2.653399692705091240e-02 1.419956491527727394e+03
2.757454582371629548e-02 1.402601204255078528e+03
2.861509472038167856e-02 1.386288563270429449e+03
2.965564361704706164e-02 1.375508866541440284e+03
3.069619251371244473e-02 1.357807830468478187e+03
3.173674141037782781e-02 1.335194481699784092e+03
3.277729030704321089e-02 1.315232394127235011e+03
3.381783920370859398e-02 1.289725766650203241e+03
3.485838810037397706e-02 1.267397117256080946e+03
3.589893699703936014e-02 1.248472765032037842e+03
3.693948589370474322e-02 1.226551825371312361e+03
3.798003479037012631e-02 1.207239975056045296e+03
3.902058368703550939e-02 1.188748361093003268e+03
4.006113258370089247e-02 1.158864595884911296e+03
4.110168148036627556e-02 1.133855664629870716e+03
4.214223037703165864e-02 1.111794713268816849e+03
4.318277927369704866e-02 1.085860033744618931e+03
4.422332817036243174e-02 1.062205875767468797e+03
4.526387706702781483e-02 1.038401026224355746e+03
4.630442596369319791e-02 1.012283396678467966e+03
4.734497486035858099e-02 9.883480323620749459e+02
4.838552375702396408e-02 9.645440849411257886e+02
4.942607265368934716e-02 9.439620033593079143e+02
5.046662155035473024e-02 9.220355611602464023e+02
5.150717044702011332e-02 8.942564563571643248e+02
5.254771934368549641e-02 8.667737246629990295e+02
5.358826824035087949e-02 8.437347332020071917e+02
5.462881713701626257e-02 8.194866251230001808e+02
5.566936603368164566e-02 7.965022701833111114e+02
5.670991493034702874e-02 7.706181249330055607e+02
5.775046382701241182e-02 7.460133278595554884e+02
5.879101272367779490e-02 7.230199467164082989e+02
5.983156162034317799e-02 7.016129382158006820e+02
6.087211051700856107e-02 6.780400218466792239e+02
6.191265941367394415e-02 6.554048026390291852e+02
6.295320831033933417e-02 6.331677155808541784e+02
6.399375720700471726e-02 6.100836700350926094e+02
6.503430610367010034e-02 5.865611462477004352e+02
6.607485500033548342e-02 5.655474189580966140e+02
6.711540389700086651e-02 5.455405319926428547e+02
6.815595279366624959e-02 5.244598336620140344e+02
6.919650169033163267e-02 5.039947608859722550e+02
7.023705058699701576e-02 4.846395310368132527e+02
7.127759948366239884e-02 4.654670239688698530e+02
7.231814838032778192e-02 4.441384049021787632e+02
7.335869727699316500e-02 4.253104368383075098e+02
7.439924617365854809e-02 4.066411067979025802e+02
7.543979507032393117e-02 3.861390456012307482e+02
7.648034396698931425e-02 3.689227112013784904e+02
7.752089286365469734e-02 3.520878314402796718e+02
7.856144176032008042e-02 3.350161606216558425e+02
7.960199065698546350e-02 3.186238672221142565e+02
8.064253955365084658e-02 3.042272606333390286e+02
8.168308845031622967e-02 2.876580296238250867e+02
8.272363734698161275e-02 2.723187193893672315e+02
8.376418624364699583e-02 2.593871199496774693e+02
8.480473514031239279e-02 2.448103350754332723e+02
8.584528403697777588e-02 2.300413974683263802e+02
8.688583293364315896e-02 2.170358780080671863e+02
8.792638183030854204e-02 2.048632972440088338e+02
8.896693072697392513e-02 1.922201050761723877e+02
9.000747962363930821e-02 1.806995736071351075e+02
9.104802852030469129e-02 1.688538245383533649e+02
9.208857741697007437e-02 1.583047909852988937e+02
9.312912631363545746e-02 1.470725241639799208e+02
9.416967521030084054e-02 1.369638578712290951e+02
9.521022410696622362e-02 1.278967069005768451e+02
9.625077300363160671e-02 1.187831252391767691e+02
9.729132190029698979e-02 1.090541767432387417e+02
9.833187079696237287e-02 1.012045538469985360e+02
9.937241969362775595e-02 9.356953727038228408e+01
1.004129685902931390e-01 8.581422483039850135e+01
1.014535174869585221e-01 7.835814775398706900e+01
1.024940663836239052e-01 7.196559164690259536e+01
1.035346152802892883e-01 6.543583519912377255e+01
1.045751641769546714e-01 6.017535907348226942e+01
1.056157130736200545e-01 5.517064187468713499e+01
1.066562619702854375e-01 4.986143284940116160e+01
1.076968108669508206e-01 4.436752398965584376e+01
1.087373597636162037e-01 3.997073441261188265e+01
1.097779086602815868e-01 3.574322815984299240e+01
1.108184575569469699e-01 3.219074127336244118e+01
1.118590064536123529e-01 2.839814398070332402e+01
1.128995553502777360e-01 2.508427961800573769e+01
1.139401042469431191e-01 2.230038563017719611e+01
1.149806531436085022e-01 1.949521015476993568e+01
1.160212020402738853e-01 1.687675453667222314e+01
1.170617509369392684e-01 1.486009746263894726e+01
1.181022998336046514e-01 1.261994366970375125e+01
1.191428487302700345e-01 1.089214506741383559e+01
1.201833976269354176e-01 8.994134194641645763e+00
1.212239465236008007e-01 7.335162780368328583e+00
1.222644954202661838e-01 5.733259403084673522e+00
1.233050443169315669e-01 4.880093962721218759e+00
1.243455932135969499e-01 4.169469214628932718e+00
1.253861421102623330e-01 3.320381740676985771e+00
1.264266910069277161e-01 2.439128318616518243e+00
1.274672399035930992e-01 1.944168252933188512e+00
1.285077888002584823e-01 1.840158764328172936e+00
1.295483376969238654e-01 1.875147430886599409e+00
1.305888865935892484e-01 1.433541677361645839e+00
1.316294354902546315e-01 1.188554161737755521e+00
1.326699843869200146e-01 1.433706781361657079e+00
1.337105332835853977e-01 1.208370615735404385e+00
1.347510821802507808e-01 1.336094828300673498e+00
1.357916310769161639e-01 1.453665668375364817e+00
1.368321799735815469e-01 1.348961214130333985e+00
1.378727288702469300e-01 1.776681009243397114e+00
1.389132777669123131e-01 2.273915853641931051e+00
1.399538266635776962e-01 3.165908371283130407e+00
1.409943755602430793e-01 3.800689702644497459e+00
1.420349244569084624e-01 4.063095793759572416e+00
1.430754733535738454e-01 4.336253541281998025e+00
1.441160222502392285e-01 4.757017155318898460e+00
1.451565711469046116e-01 5.505115093168718943e+00
1.461971200435699947e-01 6.048891447948925304e+00
1.472376689402353778e-01 6.238267074995640371e+00
1.482782178369007609e-01 7.067840933811410764e+00
1.493187667335661439e-01 7.430010369226216937e+00
1.503593156302315270e-01 7.158653721719858254e+00
1.513998645268969101e-01 7.679748848606266165e+00
1.524404134235622932e-01 8.027339334955350125e+00
1.534809623202276763e-01 8.596953757504934401e+00
1.545215112168930593e-01 8.787913361233812282e+00
1.555620601135584424e-01 9.765221365839479972e+00
1.566026090102238255e-01 9.955910549006112831e+00
1.576431579068892086e-01 9.757843523566634758e+00
1.586837068035545917e-01 1.039533655470192031e+01
1.597242557002199748e-01 1.035815177363784301e+01
1.607648045968853578e-01 1.095790498594187312e+01
1.618053534935507409e-01 1.132592502488888897e+01
1.628459023902161240e-01 1.101028841833478111e+01
1.638864512868815071e-01 1.165709586102756390e+01
1.649270001835468902e-01 1.183420127434814617e+01
1.659675490802122733e-01 1.171211180287181719e+01
1.670080979768776563e-01 1.169634448370483426e+01
1.680486468735430672e-01 1.150250659081505233e+01
1.690891957702084503e-01 1.165789687790915963e+01
1.701297446668738333e-01 1.157514861034940168e+01
1.711702935635392164e-01 1.127731841878731700e+01
1.722108424602045995e-01 1.144507877276460306e+01
1.732513913568699826e-01 1.113644374877839027e+01
1.742919402535353657e-01 1.104975404714635800e+01
1.753324891502007488e-01 1.133537704966770576e+01
1.763730380468661318e-01 1.114955533199835713e+01
1.774135869435315149e-01 1.081663880146761159e+01
1.784541358401968980e-01 1.044440064710794758e+01
1.794946847368622811e-01 1.005291248657204761e+01
1.805352336335276642e-01 1.006669277111028293e+01
1.815757825301930473e-01 1.000357132094853085e+01
1.826163314268584303e-01 9.854385669272247128e+00
1.836568803235238134e-01 9.230015373769070663e+00
1.846974292201891965e-01 8.999497099261077437e+00
1.857379781168545796e-01 8.702577361138004619e+00
1.867785270135199627e-01 8.018393847402258245e+00
1.878190759101853458e-01 7.691161045031805088e+00
1.888596248068507288e-01 7.507226602544683658e+00
1.899001737035161119e-01 6.993397443892803267e+00
1.909407226001814950e-01 6.842902473754143955e+00
1.919812714968468781e-01 6.847484044400736991e+00
1.930218203935122612e-01 6.357453856273679094e+00
1.940623692901776443e-01 5.916421636123132544e+00
1.951029181868430273e-01 5.553243397772575918e+00
1.961434670835084104e-01 5.186062348315971349e+00
1.971840159801737935e-01 5.133576062609620294e+00
1.982245648768391766e-01 4.583343730139461059e+00
1.992651137735045597e-01 4.361698123033697527e+00
2.003056626701699428e-01 4.126826235799029519e+00
2.013462115668353813e-01 3.663204933042727873e+00
2.023867604635007644e-01 3.322785388020356834e+00
2.034273093601661475e-01 2.991949537270095050e+00
2.044678582568315306e-01 3.065301893448584281e+00
2.055084071534969137e-01 2.508041230696193225e+00
2.065489560501622968e-01 2.278102323253953898e+00
2.075895049468276798e-01 2.192070240501685419e+00
2.086300538434930629e-01 2.041314830294851390e+00
2.096706027401584460e-01 1.575548104275739547e+00
2.107111516368238291e-01 1.563450798852805690e+00
2.117517005334892122e-01 8.946321927040159494e-01
2.127922494301545953e-01 8.739636814081421790e-01
2.138327983268199783e-01 9.708624793945048737e-01
2.148733472234853614e-01 8.152642861905405880e-01
2.159138961201507445e-01 7.028621898812019708e-01
2.169544450168161276e-01 8.101527337657685734e-01
2.179949939134815107e-01 7.036475738909473421e-01
2.190355428101468938e-01 6.138606059061828546e-01
2.200760917068122768e-01 7.155224128450115018e-01
2.211166406034776599e-01 4.713735316776563877e-01
2.221571895001430430e-01 9.412036487022845677e-02
2.231977383968084261e-01 9.839340683949160393e-02
2.242382872934738092e-01 4.608295945368254820e-01
2.252788361901391923e-01 7.597477143356528018e-01
2.263193850868045753e-01 2.347258547228818770e-01
2.273599339834699584e-01 1.664584694814834620e-01
2.284004828801353415e-01 3.738260036613780812e-01
2.294410317768007246e-01 4.836070508372785071e-01
2.304815806734661077e-01 5.909250947282487232e-01
2.315221295701314908e-01 3.971677621965170601e-01
2.325626784667968738e-01 5.766479588251876010e-01
2.336032273634622569e-01 5.292710581014077320e-01
2.346437762601276400e-01 4.688052900904580156e-01
2.356843251567930231e-01 5.226636903879722240e-01
2.367248740534584062e-01 5.878261790403129794e-01
2.377654229501237892e-01 8.232696442078051291e-01
2.388059718467891723e-01 8.253552688245768820e-01
2.398465207434545554e-01 1.090457264824909345e+00
2.408870696401199385e-01 8.251357992107379857e-01
2.419276185367853216e-01 9.564042895690185730e-01
2.429681674334507047e-01 1.125934801637786364e+00
2.440087163301160877e-01 1.374263938699161969e+00
2.450492652267814708e-01 1.408307707096955852e+00
2.460898141234468539e-01 9.449455339467611736e-01
2.471303630201122370e-01 1.151592377186410943e+00
2.481709119167776201e-01 1.341162645242896190e+00
2.492114608134430032e-01 1.214810667225361129e+00
2.502520097101083585e-01 1.481295819895812826e+00
2.512925586067737416e-01 1.568105270767237158e+00
2.523331075034391247e-01 1.641018025702660310e+00
2.533736564001045077e-01 1.540591775908492167e+00
2.544142052967698908e-01 1.592724982450441473e+00
2.554547541934352739e-01 1.710319720989883052e+00
2.564953030901006570e-01 1.607193396959193166e+00
2.575358519867660401e-01 1.863461577001256586e+00
2.585764008834314231e-01 1.830030026832844214e+00
2.596169497800968062e-01 1.984982415601241001e+00
2.606574986767621893e-01 1.774247083116886614e+00
2.616980475734275724e-01 1.733273028817283290e+00
2.627385964700929555e-01 2.083543024818215628e+00
2.637791453667583386e-01 2.252780379114632581e+00
2.648196942634237216e-01 2.093369257276631146e+00
2.658602431600891047e-01 2.164079631282692873e+00
2.669007920567544878e-01 1.990432004627599838e+00
2.679413409534198709e-01 1.877373660728981264e+00
2.689818898500852540e-01 1.926495115818365633e+00
2.700224387467506371e-01 1.898434995533197167e+00
2.710629876434160201e-01 2.005467648451141116e+00
2.721035365400814032e-01 1.916409633268695956e+00
2.731440854367467863e-01 1.850783141014648692e+00
2.741846343334121694e-01 1.588368394146044693e+00
2.752251832300775525e-01 1.759363311157859044e+00
2.762657321267429356e-01 1.582485700194421696e+00
2.773062810234083186e-01 1.505020612002724079e+00
2.783468299200737017e-01 1.610344345847554592e+00
2.793873788167390848e-01 1.677786314093346220e+00
2.804279277134044679e-01 1.746762418749792545e+00
2.814684766100698510e-01 1.618459971684032439e+00
2.825090255067352341e-01 1.696870501085246730e+00
2.835495744034006171e-01 1.527302883671776357e+00
2.845901233000660002e-01 1.436718374794498487e+00
2.856306721967313833e-01 1.227632834590924205e+00
2.866712210933967664e-01 9.759147883392849110e-01
2.877117699900621495e-01 1.033831115189606464e+00
2.887523188867275326e-01 1.250815199385975518e+00
2.897928677833929156e-01 1.070904896924020022e+00
2.908334166800582987e-01 8.170383080473797577e-01
2.918739655767236818e-01 7.813299313320278827e-01
2.929145144733890649e-01 1.093045999546824021e+00
2.939550633700544480e-01 1.012727705279178991e+00
2.949956122667198311e-01 7.752324718308152285e-01
2.960361611633852141e-01 7.326387922767061411e-01
2.970767100600505972e-01 7.087408724137702620e-01
2.981172589567159803e-01 6.890736987804011449e-01
2.991578078533813634e-01 6.723038095013897930e-01
3.001983567500468020e-01 5.817941219174862510e-01
3.012389056467121851e-01 4.174807036948386951e-01
3.022794545433775681e-01 6.307226683298274850e-01
3.033200034400429512e-01 5.404691670539243376e-01
3.043605523367083343e-01 5.346131667392306497e-01
3.054011012333737174e-01 4.094018206173970498e-01
3.064416501300391005e-01 3.842199979281595290e-01
3.074821990267044836e-01 2.814419966127985617e-01
3.085227479233698666e-01 4.179985658633675882e-01
3.095632968200352497e-01 5.284856250501093200e-01
3.106038457167006328e-01 5.964102048933774824e-01
3.116443946133660159e-01 5.825083198417395636e-01
3.126849435100313990e-01 3.573979788051104833e-01
3.137254924066967821e-01 3.786408941647998461e-01
3.147660413033621651e-01 2.519014176407026184e-01
3.158065902000275482e-01 0.000000000000000000e+00
3.168471390966929313e-01 1.839784843346343735e-01
3.178876879933583144e-01 9.085399757515943975e-02
3.189282368900236975e-01 1.073293515189028824e-01
3.199687857866890806e-01 3.499195360762215046e-01
3.210093346833544636e-01 3.148162807050880474e-01
3.220498835800198467e-01 3.393434919509985548e-01
3.230904324766852298e-01 4.735748327415372216e-01
3.241309813733506129e-01 4.881366727509224290e-01
3.251715302700159960e-01 3.842532256012525238e-01
3.262120791666813790e-01 3.745917095323783030e-01
3.272526280633467621e-01 3.542759464265508029e-01
3.282931769600121452e-01 4.322120438956211785e-01
3.293337258566775283e-01 3.259125802573166197e-01
3.303742747533429114e-01 2.929532538727563917e-01
3.314148236500082945e-01 3.983623876709287970e-01
3.324553725466736775e-01 5.053996878110602609e-01
3.334959214433390606e-01 6.288790426308565884e-01
3.345364703400044437e-01 4.490026047005457599e-01
3.355770192366698268e-01 4.896955893671659510e-01
3.366175681333352099e-01 5.232665914522556250e-01
3.376581170300005930e-01 5.418499808783785454e-01
3.386986659266659760e-01 3.919109375435745335e-01
3.397392148233313591e-01 5.152374386596818567e-01
3.407797637199967422e-01 6.621049220909114297e-01
3.418203126166621253e-01 6.027516215438595282e-01
3.428608615133275084e-01 3.743698247306852522e-01
3.439014104099928915e-01 2.728663686742045513e-01
3.449419593066582745e-01 5.803353159935760175e-01
3.459825082033236576e-01 7.060420155479683046e-01
3.470230570999890407e-01 4.588233761556708146e-01
3.480636059966544238e-01 5.847902057427738498e-01
3.491041548933198069e-01 6.908296134485034656e-01
3.501447037899851900e-01 7.132125955931485350e-01
3.511852526866505730e-01 6.466112496656748476e-01
3.522258015833159561e-01 5.619201066896337693e-01
3.532663504799813392e-01 6.008636967513893978e-01
3.543068993766467223e-01 8.645973315508292956e-01
3.553474482733121054e-01 1.001393703670085955e+00
3.563879971699774885e-01 7.425027559617340955e-01
3.574285460666428715e-01 5.583893596614935007e-01
3.584690949633082546e-01 7.704286283105830080e-01
3.595096438599736377e-01 8.092985809069510594e-01
3.605501927566390208e-01 6.863555547197286444e-01
3.615907416533044039e-01 7.265936863039463844e-01
3.626312905499697870e-01 6.588963314425200224e-01
3.636718394466351700e-01 9.015122025745228029e-01
3.647123883433005531e-01 7.215679853253682552e-01
3.657529372399659362e-01 6.887605370858693732e-01
3.667934861366313193e-01 7.833071680023913075e-01
3.678340350332967024e-01 9.110181510071058142e-01
3.688745839299620854e-01 6.884053658916613472e-01
3.699151328266274685e-01 5.532337472893509300e-01
3.709556817232928516e-01 4.922894638977695081e-01
3.719962306199582347e-01 4.069599701960413540e-01
3.730367795166236178e-01 6.550380293373869733e-01
3.740773284132890009e-01 6.089484088240837423e-01
3.751178773099543839e-01 5.958703675468726146e-01
3.761584262066197670e-01 5.378727677868155865e-01
3.771989751032851501e-01 6.277389838438054426e-01
3.782395239999505332e-01 7.291057700656722318e-01
3.792800728966159163e-01 6.916729072601768280e-01
3.803206217932812994e-01 5.157237824359235390e-01
3.813611706899466824e-01 6.481094634456212589e-01
3.824017195866120655e-01 7.406974746678436361e-01
3.834422684832774486e-01 7.722276388478803710e-01
3.844828173799428317e-01 6.161355328479771742e-01
3.855233662766082148e-01 5.906332381586985036e-01
3.865639151732735979e-01 8.126912771701668703e-01
3.876044640699389809e-01 6.137475736768500667e-01
3.886450129666043640e-01 6.019024131320058757e-01
3.896855618632697471e-01 5.581905299381269003e-01
3.907261107599351302e-01 4.445995017100372593e-01
3.917666596566005133e-01 5.058908930711858432e-01
3.928072085532658964e-01 6.398836243785908096e-01
3.938477574499312794e-01 4.548026564250520209e-01
3.948883063465966625e-01 4.936124803334003275e-01
3.959288552432620456e-01 5.667139223992876396e-01
3.969694041399274287e-01 3.312167144869242463e-01
3.980099530365928118e-01 1.482774382118172696e-01
3.990505019332581949e-01 3.944686038432365649e-02
4.000910508299235779e-01 2.926292284082165907e-01
4.011315997265889610e-01 3.166395964165111820e-01
4.021721486232543441e-01 3.350704435858169461e-01
4.032126975199197272e-01 3.761105936169997221e-01
4.042532464165851103e-01 3.277803420160516623e-01
4.052937953132504934e-01 2.493059082770656687e-01
4.063343442099158764e-01 3.274385500271748128e-01
4.073748931065812595e-01 2.072175459442249235e-01
4.084154420032466426e-01 2.192297275189893924e-01
4.094559908999120257e-01 3.460493174644483361e-01
4.104965397965774088e-01 3.603186113126177759e-01
4.115370886932427918e-01 4.020282738353238017e-01
4.125776375899081749e-01 2.589809006870957830e-01
4.136181864865735580e-01 2.508290426217811842e-01
4.146587353832389411e-01 1.593232791468395249e-01
4.156992842799043242e-01 3.293063128584385879e-01
4.167398331765697073e-01 4.213700147940322438e-01
4.177803820732350903e-01 3.835955214137527491e-01
4.188209309699004734e-01 3.911844065325205122e-01
4.198614798665658565e-01 2.368250034866470344e-01
4.209020287632312396e-01 3.466288120885643309e-01
4.219425776598966227e-01 3.105171101359367469e-01
4.229831265565620058e-01 3.844990335795088754e-01
4.240236754532273888e-01 2.955961328075709105e-01
4.250642243498927719e-01 1.712657391004270835e-01
4.261047732465581550e-01 1.902072560348422314e-01
4.271453221432235381e-01 2.244419160799289159e-01
4.281858710398889212e-01 3.428643613577193605e-01
4.292264199365543043e-01 3.880287224478315977e-01
4.302669688332196873e-01 3.263608377081439471e-01
4.313075177298850704e-01 2.089835325137201494e-01
4.323480666265504535e-01 4.609981115035388655e-01
4.333886155232158366e-01 5.720581332592260537e-01
4.344291644198812197e-01 5.063203101809143902e-01
