# q (1/Angstrom), Intensity (arb)
2.029070354705860696e-02 2.286447109437673362e+02
2.133125244372399004e-02 2.223417167978455495e+02
2.237180134038937659e-02 2.197849397431585317e+02
2.341235023705475968e-02 2.155742608784416916e+02
2.445289913372014276e-02 2.131107528018872870e+02
2.549344803038552584e-02 2.136047864825709439e+02
2.653399692705091240e-02 2.100190921382003637e+02
2.757454582371629548e-02 2.070148764518127962e+02
2.861509472038167856e-02 2.057642435924590814e+02
2.965564361704706164e-02 2.019979142785034298e+02
3.069619251371244473e-02 2.002782914755965180e+02
3.173674141037782781e-02 1.993671886455225035e+02
3.277729030704321089e-02 1.958145540891348730e+02
3.381783920370859398e-02 1.921361819251406473e+02
3.485838810037397706e-02 1.899589387472789213e+02
3.589893699703936014e-02 1.869014803599571053e+02
3.693948589370474322e-02 1.841302907386242396e+02
3.798003479037012631e-02 1.819814006428032087e+02
3.902058368703550939e-02 1.777899835863587157e+02
4.006113258370089247e-02 1.733702294097561776e+02
4.110168148036627556e-02 1.717871982131693471e+02
4.214223037703165864e-02 1.678107914268513525e+02
4.318277927369704866e-02 1.640925107268211036e+02
4.422332817036243174e-02 1.607248784785893747e+02
4.526387706702781483e-02 1.581946272131133924e+02
4.630442596369319791e-02 1.549559898466113737e+02
4.734497486035858099e-02 1.509709449106447892e+02
4.838552375702396408e-02 1.474006600159699474e+02
4.942607265368934716e-02 1.441690815485442840e+02
5.046662155035473024e-02 1.412604426964334152e+02
5.150717044702011332e-02 1.393819078712072894e+02
5.254771934368549641e-02 1.349362520272872530e+02
5.358826824035087949e-02 1.299561601687402970e+02
5.462881713701626257e-02 1.271325275749008483e+02
5.566936603368164566e-02 1.254378819190799987e+02
5.670991493034702874e-02 1.215316939983968041e+02
5.775046382701241182e-02 1.188921177853280255e+02
5.879101272367779490e-02 1.140994641917998962e+02
5.983156162034317799e-02 1.093586643641592957e+02
6.087211051700856107e-02 1.065574877476270643e+02
6.191265941367394415e-02 1.043944480307430922e+02
6.295320831033933417e-02 1.007312696385567392e+02
6.399375720700471726e-02 9.778756069301168452e+01
6.503430610367010034e-02 9.498105805262741796e+01
6.607485500033548342e-02 9.180546200509536447e+01
6.711540389700086651e-02 8.905226508439585587e+01
6.815595279366624959e-02 8.617686313885977256e+01
6.919650169033163267e-02 8.370263797716390286e+01
7.023705058699701576e-02 8.130156091674348318e+01
7.127759948366239884e-02 7.882261273985130856e+01
7.231814838032778192e-02 7.666120611309578692e+01
7.335869727699316500e-02 7.362039639743345276e+01
7.439924617365854809e-02 7.179637817988219695e+01
7.543979507032393117e-02 6.951576422188193760e+01
7.648034396698931425e-02 6.718678311250313584e+01
7.752089286365469734e-02 6.531593534457886108e+01
7.856144176032008042e-02 6.437132993276668458e+01
7.960199065698546350e-02 6.258799460570202911e+01
8.064253955365084658e-02 6.295965098048719000e+01
8.168308845031622967e-02 6.449985802273718605e+01
8.272363734698161275e-02 7.138633398279469588e+01
8.376418624364699583e-02 9.857263987225221058e+01
8.480473514031239279e-02 1.593271965055549799e+02
8.584528403697777588e-02 2.190350864949873824e+02
8.688583293364315896e-02 2.535475046502948260e+02
8.792638183030854204e-02 3.346949986178350969e+02
8.896693072697392513e-02 5.895984007755412222e+02
9.000747962363930821e-02 9.443787737762795587e+02
9.104802852030469129e-02 9.407786668367895118e+02
9.208857741697007437e-02 5.977968955873061532e+02
9.312912631363545746e-02 3.461897735010847441e+02
9.416967521030084054e-02 2.466298975085993845e+02
9.521022410696622362e-02 2.045690003879109895e+02
9.625077300363160671e-02 1.781032099444321943e+02
9.729132190029698979e-02 1.551553899049405914e+02
9.833187079696237287e-02 1.354533298258330944e+02
9.937241969362775595e-02 1.196593114692768580e+02
1.004129685902931390e-01 1.076848652738221972e+02
1.014535174869585221e-01 1.031190631643949871e+02
1.024940663836239052e-01 1.140311856212045996e+02
1.035346152802892883e-01 1.370123231166977007e+02
1.045751641769546714e-01 1.381655184243157919e+02
1.056157130736200545e-01 1.005913272219955559e+02
1.066562619702854375e-01 5.771119489197243269e+01
1.076968108669508206e-01 3.414284272213390636e+01
1.087373597636162037e-01 2.375215019897432001e+01
1.097779086602815868e-01 1.842132582892863724e+01
1.108184575569469699e-01 1.478010339864928113e+01
1.118590064536123529e-01 1.240844826675593993e+01
1.128995553502777360e-01 1.061874276062139444e+01
1.139401042469431191e-01 9.074761062702052072e+00
1.149806531436085022e-01 7.494763514989685405e+00
1.160212020402738853e-01 6.504092221963517773e+00
1.170617509369392684e-01 5.428984440482381046e+00
1.181022998336046514e-01 4.653207846859750418e+00
1.191428487302700345e-01 4.402643774290311285e+00
1.201833976269354176e-01 3.943327766711739457e+00
1.212239465236008007e-01 3.211297174976536439e+00
1.222644954202661838e-01 2.923261721028026727e+00
1.233050443169315669e-01 2.891624029240972504e+00
1.243455932135969499e-01 2.093958195089875574e+00
1.253861421102623330e-01 1.945218865370037520e+00
1.264266910069277161e-01 1.728050711274192963e+00
1.274672399035930992e-01 1.330347599019781057e+00
1.285077888002584823e-01 1.095252145000948474e+00
1.295483376969238654e-01 1.195539902534633825e+00
1.305888865935892484e-01 1.109077690905735381e+00
1.316294354902546315e-01 1.663941442432289364e+00
1.326699843869200146e-01 1.734713974153059723e+00
1.337105332835853977e-01 8.423880794110090164e-01
1.347510821802507808e-01 8.606287305077628957e-01
1.357916310769161639e-01 8.884566267023785713e-01
1.368321799735815469e-01 9.982976785130688313e-01
1.378727288702469300e-01 8.873391136868633566e-01
1.389132777669123131e-01 1.000378975911083046e+00
1.399538266635776962e-01 1.164016925522687984e+00
1.409943755602430793e-01 1.485990066252782071e+00
1.420349244569084624e-01 2.119667666259466898e+00
1.430754733535738454e-01 2.522469061718688010e+00
1.441160222502392285e-01 3.493421230001530375e+00
1.451565711469046116e-01 6.074685826293475088e+00
1.461971200435699947e-01 1.159406342102401055e+01
1.472376689402353778e-01 1.719785496435093108e+01
1.482782178369007609e-01 1.693083295660012055e+01
1.493187667335661439e-01 1.189517663976170070e+01
1.503593156302315270e-01 7.556138081835797493e+00
1.513998645268969101e-01 5.571523284646460183e+00
1.524404134235622932e-01 4.468485414764636232e+00
1.534809623202276763e-01 4.391225806845092450e+00
1.545215112168930593e-01 4.380237883790009334e+00
1.555620601135584424e-01 4.411138317800286757e+00
1.566026090102238255e-01 4.636910495164826784e+00
1.576431579068892086e-01 4.668609556486522649e+00
1.586837068035545917e-01 4.573578921097144701e+00
1.597242557002199748e-01 4.820654041343438223e+00
1.607648045968853578e-01 5.073663621439948201e+00
1.618053534935507409e-01 5.267262167269166184e+00
1.628459023902161240e-01 5.197294220155420419e+00
1.638864512868815071e-01 5.268654498567968858e+00
1.649270001835468902e-01 5.361659534154185280e+00
1.659675490802122733e-01 5.348621405340637125e+00
1.670080979768776563e-01 5.916998874204622894e+00
1.680486468735430672e-01 6.857102648625108543e+00
1.690891957702084503e-01 9.021051907144020277e+00
1.701297446668738333e-01 1.453746975994751978e+01
1.711702935635392164e-01 2.762408986653546350e+01
1.722108424602045995e-01 4.396344235366751718e+01
1.732513913568699826e-01 4.939994378046603885e+01
1.742919402535353657e-01 4.023614802267641721e+01
1.753324891502007488e-01 2.777159098305960327e+01
1.763730380468661318e-01 1.888350699967013924e+01
1.774135869435315149e-01 1.413732225941566867e+01
1.784541358401968980e-01 1.278486969935406137e+01
1.794946847368622811e-01 1.356581326471901150e+01
1.805352336335276642e-01 1.423074942926614028e+01
1.815757825301930473e-01 1.281507619299686240e+01
1.826163314268584303e-01 9.161404115229650813e+00
1.836568803235238134e-01 6.453242664673751960e+00
1.846974292201891965e-01 4.706538218766397108e+00
1.857379781168545796e-01 4.016384125291853735e+00
1.867785270135199627e-01 3.357112756247961016e+00
1.878190759101853458e-01 2.673310594571091769e+00
1.888596248068507288e-01 2.930153573448365023e+00
1.899001737035161119e-01 2.665346714744888601e+00
1.909407226001814950e-01 2.093472621191402538e+00
1.919812714968468781e-01 1.845371095292403396e+00
1.930218203935122612e-01 2.046760779096707950e+00
1.940623692901776443e-01 2.094935984400287055e+00
1.951029181868430273e-01 1.883693114723737239e+00
1.961434670835084104e-01 1.822742973114721110e+00
1.971840159801737935e-01 1.712711010545884704e+00
1.982245648768391766e-01 1.632710223012164619e+00
1.992651137735045597e-01 1.649270503651386832e+00
2.003056626701699428e-01 1.493339224338111393e+00
2.013462115668353813e-01 1.375933696294442399e+00
2.023867604635007644e-01 1.350499953412484189e+00
2.034273093601661475e-01 1.317546896304836679e+00
2.044678582568315306e-01 1.117676027506064429e+00
2.055084071534969137e-01 1.047475823543418727e+00
2.065489560501622968e-01 9.850665221336107891e-01
2.075895049468276798e-01 1.117104468735348632e+00
2.086300538434930629e-01 1.162729529303724973e+00
2.096706027401584460e-01 1.083635314620096324e+00
2.107111516368238291e-01 1.214073505198438596e+00
2.117517005334892122e-01 1.061870311983074799e+00
2.127922494301545953e-01 9.260096223287916928e-01
2.138327983268199783e-01 1.081135189710128230e+00
2.148733472234853614e-01 5.280994788252932892e-01
2.159138961201507445e-01 4.355132690623406688e-01
2.169544450168161276e-01 5.872365429671724257e-01
2.179949939134815107e-01 5.036983315577039377e-01
2.190355428101468938e-01 8.885099408496444084e-02
2.200760917068122768e-01 2.990670192895201751e-01
2.211166406034776599e-01 2.505767976221413562e-01
2.221571895001430430e-01 1.180551125769291332e-01
2.231977383968084261e-01 0.000000000000000000e+00
2.242382872934738092e-01 5.425388519848439728e-01
2.252788361901391923e-01 4.542381919607301199e-01
2.263193850868045753e-01 3.423868788424151433e-01
2.273599339834699584e-01 4.120597498558389304e-01
2.284004828801353415e-01 1.591898838087786316e-01
2.294410317768007246e-01 1.387482898428764599e-01
2.304815806734661077e-01 1.849836618869780125e-01
2.315221295701314908e-01 7.456964268596202317e-01
2.325626784667968738e-01 8.226770804558327654e-01
2.336032273634622569e-01 5.905411755178313626e-01
2.346437762601276400e-01 4.221326673322529643e-01
2.356843251567930231e-01 4.019334510875616218e-01
2.367248740534584062e-01 3.088669050373162861e-01
2.377654229501237892e-01 3.272843506446925232e-01
2.388059718467891723e-01 5.101333772299661007e-01
2.398465207434545554e-01 7.723253621686545500e-01
2.408870696401199385e-01 4.683987726278822095e-01
2.419276185367853216e-01 3.264170929726581960e-01
2.429681674334507047e-01 6.023055246396680218e-01
2.440087163301160877e-01 5.724335422065678358e-01
2.450492652267814708e-01 6.818373656891232315e-01
2.460898141234468539e-01 8.551339621540670066e-01
2.471303630201122370e-01 9.834699977229348633e-01
2.481709119167776201e-01 1.099783742407748122e+00
2.492114608134430032e-01 9.709472582169347277e-01
2.502520097101083585e-01 6.165110931976229836e-01
2.512925586067737416e-01 9.057965717069187406e-01
2.523331075034391247e-01 1.031197039649011771e+00
2.533736564001045077e-01 1.584404173904896851e+00
2.544142052967698908e-01 2.184970268208722644e+00
2.554547541934352739e-01 2.203897533772753548e+00
2.564953030901006570e-01 2.225869319787737055e+00
2.575358519867660401e-01 2.170899474954175901e+00
2.585764008834314231e-01 1.994386479510939836e+00
2.596169497800968062e-01 1.678759792837777098e+00
2.606574986767621893e-01 1.221642792065122052e+00
2.616980475734275724e-01 1.261732977592821214e+00
2.627385964700929555e-01 1.229905976766922038e+00
2.637791453667583386e-01 1.189525024593756086e+00
2.648196942634237216e-01 1.056577415760912686e+00
2.658602431600891047e-01 1.340651476599678205e+00
2.669007920567544878e-01 1.522284073208052035e+00
2.679413409534198709e-01 1.853647085278034012e+00
2.689818898500852540e-01 2.282849410102663512e+00
2.700224387467506371e-01 3.015802327788303927e+00
2.710629876434160201e-01 3.279231432249595457e+00
2.721035365400814032e-01 2.664474200938940385e+00
2.731440854367467863e-01 2.310715458271577205e+00
2.741846343334121694e-01 1.919955955592136831e+00
2.752251832300775525e-01 1.311523355140934655e+00
2.762657321267429356e-01 5.032055240498785054e-01
2.773062810234083186e-01 6.273971031515728214e-01
2.783468299200737017e-01 2.282880650698935199e-01
2.793873788167390848e-01 7.899995520256410941e-01
2.804279277134044679e-01 9.961355139188228236e-01
2.814684766100698510e-01 8.437446238911050500e-01
2.825090255067352341e-01 8.344458339372167188e-01
2.835495744034006171e-01 8.938882083295176528e-01
2.845901233000660002e-01 9.640123209570319318e-01
2.856306721967313833e-01 8.431788258749648435e-01
2.866712210933967664e-01 6.171759375898027145e-01
2.877117699900621495e-01 5.679643497205795200e-01
2.887523188867275326e-01 7.208078001462112638e-01
2.897928677833929156e-01 9.931106345646050215e-01
2.908334166800582987e-01 9.980829467194531901e-01
2.918739655767236818e-01 9.895066969865844442e-01
2.929145144733890649e-01 7.968039758064406897e-01
2.939550633700544480e-01 7.907138682181731326e-01
2.949956122667198311e-01 1.016636865257307676e+00
2.960361611633852141e-01 9.679972818133464330e-01
2.970767100600505972e-01 8.049076598405129346e-01
2.981172589567159803e-01 6.584891173555433852e-01
2.991578078533813634e-01 7.358655339918129812e-01
3.001983567500468020e-01 4.487911554318202434e-01
3.012389056467121851e-01 4.534703984007570909e-01
3.022794545433775681e-01 5.446004555550416626e-01
3.033200034400429512e-01 5.561656546988729133e-01
3.043605523367083343e-01 4.019242161155673898e-01
3.054011012333737174e-01 3.206120023783860518e-01
3.064416501300391005e-01 3.770007543144515694e-01
3.074821990267044836e-01 5.205300806342876285e-01
3.085227479233698666e-01 6.321282192472743588e-01
3.095632968200352497e-01 7.725808162170650917e-01
3.106038457167006328e-01 7.994812272058418046e-01
3.116443946133660159e-01 5.345885221325445968e-01
3.126849435100313990e-01 5.353885803712898905e-01
3.137254924066967821e-01 4.520906798570187846e-01
3.147660413033621651e-01 3.417508191046714217e-01
3.158065902000275482e-01 4.128111208572384783e-01
3.168471390966929313e-01 3.563347352421324388e-01
3.178876879933583144e-01 3.562899879569485506e-01
3.189282368900236975e-01 1.586011695111437803e-01
3.199687857866890806e-01 2.162422659437375216e-01
3.210093346833544636e-01 1.657526467274692550e-01
3.220498835800198467e-01 1.522821068062221173e-01
3.230904324766852298e-01 4.592429207140433789e-01
3.241309813733506129e-01 7.241424152350894872e-01
3.251715302700159960e-01 6.747951895714692228e-01
3.262120791666813790e-01 5.121098391027807395e-01
3.272526280633467621e-01 4.946557361943177966e-01
3.282931769600121452e-01 4.752763199091738500e-01
3.293337258566775283e-01 4.437376213757744381e-01
3.303742747533429114e-01 1.895416068048128011e-01
3.314148236500082945e-01 2.082867234214660357e-01
3.324553725466736775e-01 3.627893904943135794e-01
3.334959214433390606e-01 4.336202859356887984e-01
3.345364703400044437e-01 3.124368558398415985e-01
3.355770192366698268e-01 4.506538049714698957e-01
3.366175681333352099e-01 5.116061625147736436e-01
3.376581170300005930e-01 4.800439040386521583e-01
3.386986659266659760e-01 3.489439387233090883e-01
3.397392148233313591e-01 4.636113900479408301e-01
3.407797637199967422e-01 5.839735603559716992e-01
3.418203126166621253e-01 4.748276498359444986e-01
3.428608615133275084e-01 2.957818658736606210e-01
3.439014104099928915e-01 4.422460192759380959e-01
3.449419593066582745e-01 4.815305589191289926e-01
3.459825082033236576e-01 6.148052820352951642e-01
3.470230570999890407e-01 7.287897719867402202e-01
3.480636059966544238e-01 5.795069691445711157e-01
3.491041548933198069e-01 6.003687210153785259e-01
3.501447037899851900e-01 6.774123304373098620e-01
3.511852526866505730e-01 6.101496950617573134e-01
3.522258015833159561e-01 5.273771901014079333e-01
3.532663504799813392e-01 5.808960226840511609e-01
3.543068993766467223e-01 6.934038635274717421e-01
3.553474482733121054e-01 5.211237833448336687e-01
3.563879971699774885e-01 5.661717849472331920e-01
3.574285460666428715e-01 5.577347550629880857e-01
3.584690949633082546e-01 4.902824552651772194e-01
3.595096438599736377e-01 6.138152668358003439e-01
3.605501927566390208e-01 5.269033943162853006e-01
3.615907416533044039e-01 6.477333515513805651e-01
3.626312905499697870e-01 6.322149095486473414e-01
3.636718394466351700e-01 5.137593686999508691e-01
3.647123883433005531e-01 6.620528640380705099e-01
3.657529372399659362e-01 5.784068169327589715e-01
3.667934861366313193e-01 4.894820419075855966e-01
3.678340350332967024e-01 5.717029285608390410e-01
3.688745839299620854e-01 6.843423670087993571e-01
3.699151328266274685e-01 5.604089344628704339e-01
3.709556817232928516e-01 7.272318150040071316e-01
3.719962306199582347e-01 6.403345118775689571e-01
3.730367795166236178e-01 8.335782694948328242e-01
3.740773284132890009e-01 6.847706199509389080e-01
3.751178773099543839e-01 4.869755494638425830e-01
3.761584262066197670e-01 6.289372779780961764e-01
3.771989751032851501e-01 6.852513798800679012e-01
3.782395239999505332e-01 6.996708545009795444e-01
3.792800728966159163e-01 8.330091382457887050e-01
3.803206217932812994e-01 6.703511537642796725e-01
3.813611706899466824e-01 5.021329819878452838e-01
3.824017195866120655e-01 6.913266601548286872e-01
3.834422684832774486e-01 6.348040364317597550e-01
3.844828173799428317e-01 6.226831776774481852e-01
3.855233662766082148e-01 5.875294234183670028e-01
3.865639151732735979e-01 6.025966276721170800e-01
3.876044640699389809e-01 6.494043237380928701e-01
3.886450129666043640e-01 8.088804633397259636e-01
3.896855618632697471e-01 6.376153372569497435e-01
3.907261107599351302e-01 5.913601550058729117e-01
3.917666596566005133e-01 4.133647867476391013e-01
3.928072085532658964e-01 6.281567903851907886e-01
3.938477574499312794e-01 7.729997257109140207e-01
3.948883063465966625e-01 6.346081648802943675e-01
3.959288552432620456e-01 4.624629413732215255e-01
3.969694041399274287e-01 6.069884496727695478e-01
3.980099530365928118e-01 6.085528632364223256e-01
3.990505019332581949e-01 6.024177079377857069e-01
4.000910508299235779e-01 7.092086309503642383e-01
4.011315997265889610e-01 5.845341583444216838e-01
4.021721486232543441e-01 6.276448829725147505e-01
4.032126975199197272e-01 7.319191665519220180e-01
4.042532464165851103e-01 6.287979417435778373e-01
4.052937953132504934e-01 6.208555076541877327e-01
4.063343442099158764e-01 3.959260801549930875e-01
4.073748931065812595e-01 2.985331003242706061e-01
4.084154420032466426e-01 3.522452348799838262e-01
4.094559908999120257e-01 5.090216434572916171e-01
4.104965397965774088e-01 4.948570004909313980e-01
4.115370886932427918e-01 4.494202327078973269e-01
4.125776375899081749e-01 3.108721140521417681e-01
4.136181864865735580e-01 3.782464972239623080e-01
4.146587353832389411e-01 2.899660619702046915e-01
4.156992842799043242e-01 7.019765739916046243e-01
4.167398331765697073e-01 4.532397149478555320e-01
4.177803820732350903e-01 3.195278609665486158e-01
4.188209309699004734e-01 4.037530800542299403e-01
4.198614798665658565e-01 2.746883171186951245e-01
4.209020287632312396e-01 2.326002746029232071e-01
4.219425776598966227e-01 1.884668035313836754e-01
4.229831265565620058e-01 4.577109552449023511e-01
4.240236754532273888e-01 5.869282994221514116e-01
4.250642243498927719e-01 4.523796950698688590e-01
4.261047732465581550e-01 4.754197532037451879e-01
4.271453221432235381e-01 3.765772864686525168e-01
4.281858710398889212e-01 3.824344239679646762e-01
4.292264199365543043e-01 4.402008139420523491e-01
4.302669688332196873e-01 3.986746853755711584e-01
4.313075177298850704e-01 2.727987963564046936e-01
4.323480666265504535e-01 3.223570918439158106e-01
4.333886155232158366e-01 3.770814698766464801e-01
4.344291644198812197e-01 3.375634045734834388e-01
