# q (1/Angstrom), Intensity (arb)
2.029070354705860696e-02 1.367796076528784170e+03
2.133125244372399004e-02 1.362726127907402542e+03
2.237180134038937659e-02 1.356104747228924680e+03
2.341235023705475968e-02 1.350254256407891262e+03
2.445289913372014276e-02 1.338817668481778810e+03
2.549344803038552584e-02 1.324457565104732566e+03
2.653399692705091240e-02 1.309589139099609383e+03
2.757454582371629548e-02 1.293704245316892411e+03
2.861509472038167856e-02 1.280263872483549676e+03
2.965564361704706164e-02 1.262107433212011529e+03
3.069619251371244473e-02 1.244143891884197956e+03
3.173674141037782781e-02 1.231199918063271298e+03
3.277729030704321089e-02 1.213432319277999568e+03
3.381783920370859398e-02 1.190114499003692572e+03
3.485838810037397706e-02 1.171947708755676558e+03
3.589893699703936014e-02 1.152747061234418197e+03
3.693948589370474322e-02 1.132947493096093694e+03
3.798003479037012631e-02 1.107112157610976510e+03
3.902058368703550939e-02 1.087532561634320246e+03
4.006113258370089247e-02 1.072271969681905830e+03
4.110168148036627556e-02 1.051584449219833687e+03
4.214223037703165864e-02 1.028677949493824372e+03
4.318277927369704866e-02 1.004417578799605735e+03
4.422332817036243174e-02 9.818814720592039293e+02
4.526387706702781483e-02 9.627703398730192248e+02
4.630442596369319791e-02 9.385691289471426444e+02
4.734497486035858099e-02 9.154503695291676877e+02
4.838552375702396408e-02 8.940892658123992760e+02
4.942607265368934716e-02 8.692249815290352899e+02
5.046662155035473024e-02 8.476232287335028559e+02
5.150717044702011332e-02 8.266080377553430480e+02
5.254771934368549641e-02 8.042836599813992962e+02
5.358826824035087949e-02 7.821220774685576771e+02
5.462881713701626257e-02 7.589671623980850654e+02
5.566936603368164566e-02 7.372635524618995078e+02
5.670991493034702874e-02 7.147998724928201000e+02
5.775046382701241182e-02 6.930894042238870725e+02
5.879101272367779490e-02 6.713169832482003585e+02
5.983156162034317799e-02 6.502961308787402004e+02
6.087211051700856107e-02 6.291054889445405252e+02
6.191265941367394415e-02 6.060173435552273986e+02
6.295320831033933417e-02 5.833834786361275064e+02
6.399375720700471726e-02 5.641586395441977402e+02
6.503430610367010034e-02 5.450550153646455556e+02
6.607485500033548342e-02 5.267849197902127116e+02
6.711540389700086651e-02 5.069304359147002401e+02
6.815595279366624959e-02 4.858480133917012722e+02
6.919650169033163267e-02 4.663834567837720897e+02
7.023705058699701576e-02 4.480044896481138608e+02
7.127759948366239884e-02 4.289768644925875947e+02
7.231814838032778192e-02 4.112814403740709395e+02
7.335869727699316500e-02 3.943366439826858709e+02
7.439924617365854809e-02 3.762676321882841535e+02
7.543979507032393117e-02 3.586458120972769166e+02
7.648034396698931425e-02 3.422706275511734475e+02
7.752089286365469734e-02 3.256007078559371735e+02
7.856144176032008042e-02 3.111064001488908275e+02
7.960199065698546350e-02 2.972023537202347256e+02
8.064253955365084658e-02 2.838315956887994957e+02
8.168308845031622967e-02 2.688864140788694499e+02
8.272363734698161275e-02 2.555608320947123104e+02
8.376418624364699583e-02 2.461061998583112995e+02
8.480473514031239279e-02 2.384130049083290146e+02
8.584528403697777588e-02 2.294368391481732772e+02
8.688583293364315896e-02 2.222853984979575444e+02
8.792638183030854204e-02 2.279977279820926128e+02
8.896693072697392513e-02 2.532954862063619714e+02
9.000747962363930821e-02 2.534732075606311241e+02
9.104802852030469129e-02 2.074042406089539270e+02
9.208857741697007437e-02 1.708002805111912323e+02
9.312912631363545746e-02 1.548708715594686396e+02
9.416967521030084054e-02 1.428201250384519767e+02
9.521022410696622362e-02 1.329099153813622252e+02
9.625077300363160671e-02 1.221884660595782748e+02
9.729132190029698979e-02 1.128915868664760467e+02
9.833187079696237287e-02 1.028628053449440927e+02
9.937241969362775595e-02 9.445243820866927820e+01
1.004129685902931390e-01 8.749796891762866835e+01
1.014535174869585221e-01 8.190477712802098154e+01
1.024940663836239052e-01 7.876593238721301304e+01
1.035346152802892883e-01 7.384426983910934439e+01
1.045751641769546714e-01 6.357317054381504562e+01
1.056157130736200545e-01 5.451860677625224838e+01
1.066562619702854375e-01 4.774619676125590928e+01
1.076968108669508206e-01 4.321733662284481170e+01
1.087373597636162037e-01 3.857439597996761194e+01
1.097779086602815868e-01 3.436957056380973086e+01
1.108184575569469699e-01 3.096775260252904616e+01
1.118590064536123529e-01 2.736993871514874854e+01
1.128995553502777360e-01 2.414919911959619014e+01
1.139401042469431191e-01 2.158658166179886706e+01
1.149806531436085022e-01 1.805446591924400224e+01
1.160212020402738853e-01 1.583010421537977663e+01
1.170617509369392684e-01 1.397888190546716203e+01
1.181022998336046514e-01 1.174983352764816402e+01
1.191428487302700345e-01 1.050459973560405302e+01
1.201833976269354176e-01 8.414976850357547278e+00
1.212239465236008007e-01 7.127976236242673735e+00
1.222644954202661838e-01 6.350572440104535588e+00
1.233050443169315669e-01 5.705139318736172527e+00
1.243455932135969499e-01 4.127478766819109524e+00
1.253861421102623330e-01 3.151575789662146576e+00
1.264266910069277161e-01 2.510484107109938634e+00
1.274672399035930992e-01 2.153241154692679515e+00
1.285077888002584823e-01 1.882698998779986255e+00
1.295483376969238654e-01 1.550889647603213461e+00
1.305888865935892484e-01 1.233603501626859611e+00
1.316294354902546315e-01 8.938132354811614277e-01
1.326699843869200146e-01 1.005166393198244634e+00
1.337105332835853977e-01 1.593204087815919934e+00
1.347510821802507808e-01 1.486762757993822959e+00
1.357916310769161639e-01 1.650996321868568373e+00
1.368321799735815469e-01 1.969426555765693365e+00
1.378727288702469300e-01 2.239482055588261744e+00
1.389132777669123131e-01 2.097946966905482213e+00
1.399538266635776962e-01 2.468239428118330636e+00
1.409943755602430793e-01 2.508144328934974965e+00
1.420349244569084624e-01 3.030731524801240084e+00
1.430754733535738454e-01 3.544006462512165001e+00
1.441160222502392285e-01 4.233710919109824999e+00
1.451565711469046116e-01 5.407197009561826917e+00
1.461971200435699947e-01 7.007982957438208871e+00
1.472376689402353778e-01 7.415476442721150363e+00
1.482782178369007609e-01 6.655573977823131315e+00
1.493187667335661439e-01 6.678966883971142465e+00
1.503593156302315270e-01 7.402201562060376716e+00
1.513998645268969101e-01 7.836704308666156749e+00
1.524404134235622932e-01 8.066045388830083596e+00
1.534809623202276763e-01 8.499788887918455771e+00
1.545215112168930593e-01 8.755545642619033231e+00
1.555620601135584424e-01 9.242906865245565484e+00
1.566026090102238255e-01 9.241429566362256764e+00
1.576431579068892086e-01 9.321310596002511772e+00
1.586837068035545917e-01 9.963543792384420783e+00
1.597242557002199748e-01 1.024532200347150734e+01
1.607648045968853578e-01 1.043987532804157325e+01
1.618053534935507409e-01 1.052934681413340456e+01
1.628459023902161240e-01 1.069283048128541935e+01
1.638864512868815071e-01 1.091020257550545836e+01
1.649270001835468902e-01 1.101075674939002624e+01
1.659675490802122733e-01 1.117001182693190486e+01
1.670080979768776563e-01 1.138239954490035899e+01
1.680486468735430672e-01 1.162732369227239104e+01
1.690891957702084503e-01 1.212050572176656260e+01
1.701297446668738333e-01 1.339432336095114806e+01
1.711702935635392164e-01 1.529479104914742749e+01
1.722108424602045995e-01 1.546825398843925115e+01
1.732513913568699826e-01 1.384635272645163440e+01
1.742919402535353657e-01 1.218722104211997248e+01
1.753324891502007488e-01 1.158302776801108536e+01
1.763730380468661318e-01 1.112821859949291081e+01
1.774135869435315149e-01 1.084952245356347333e+01
1.784541358401968980e-01 1.099750494650992039e+01
1.794946847368622811e-01 1.118735874482924686e+01
1.805352336335276642e-01 1.023586844677910079e+01
1.815757825301930473e-01 9.640745442689386380e+00
1.826163314268584303e-01 9.193131316368059913e+00
1.836568803235238134e-01 8.716437034883874446e+00
1.846974292201891965e-01 8.485632458164083403e+00
1.857379781168545796e-01 7.891763442700593600e+00
1.867785270135199627e-01 7.525230278805679518e+00
1.878190759101853458e-01 7.772138550398857149e+00
1.888596248068507288e-01 7.317354216578948467e+00
1.899001737035161119e-01 6.840887774104267294e+00
1.909407226001814950e-01 6.484873591623582456e+00
1.919812714968468781e-01 5.929263545199532359e+00
1.930218203935122612e-01 5.394328785376153235e+00
1.940623692901776443e-01 5.298862741905530527e+00
1.951029181868430273e-01 4.995116553847566365e+00
1.961434670835084104e-01 4.868695825392606480e+00
1.971840159801737935e-01 4.774816796686607745e+00
1.982245648768391766e-01 4.475316260827106873e+00
1.992651137735045597e-01 3.999942584549501134e+00
2.003056626701699428e-01 3.867796085578234511e+00
2.013462115668353813e-01 3.512166409286379576e+00
2.023867604635007644e-01 2.918938485446219033e+00
2.034273093601661475e-01 2.733803562580547464e+00
2.044678582568315306e-01 2.713468882106923274e+00
2.055084071534969137e-01 2.467502017918128843e+00
2.065489560501622968e-01 2.288462154634714807e+00
2.075895049468276798e-01 1.978443199632963001e+00
2.086300538434930629e-01 1.857365410011809104e+00
2.096706027401584460e-01 1.936088440243956654e+00
2.107111516368238291e-01 1.418917923007455784e+00
2.117517005334892122e-01 1.261416479510543809e+00
2.127922494301545953e-01 1.039886345843378024e+00
2.138327983268199783e-01 1.161548495413740056e+00
2.148733472234853614e-01 7.098282641597322140e-01
2.159138961201507445e-01 8.323612533743443009e-01
2.169544450168161276e-01 7.009254850486996702e-01
2.179949939134815107e-01 3.753740150603661618e-01
2.190355428101468938e-01 5.095274963023079806e-01
2.200760917068122768e-01 7.510545005787463424e-01
2.211166406034776599e-01 6.063838878620337880e-01
2.221571895001430430e-01 2.136234431050709759e-01
2.231977383968084261e-01 3.259195625792870032e-01
2.242382872934738092e-01 4.030825336281651516e-01
2.252788361901391923e-01 2.093107365263335851e-01
2.263193850868045753e-01 3.473402945851091772e-01
2.273599339834699584e-01 2.552667759527018632e-01
2.284004828801353415e-01 4.485431237284203121e-01
2.294410317768007246e-01 1.627971208397518410e-01
2.304815806734661077e-01 3.870198902167842903e-01
2.315221295701314908e-01 6.934834623837531353e-01
2.325626784667968738e-01 6.342148395836950669e-01
2.336032273634622569e-01 6.898936669079809292e-01
2.346437762601276400e-01 7.658574093207377587e-01
2.356843251567930231e-01 5.162007926538478841e-01
2.367248740534584062e-01 3.924940790786806133e-01
2.377654229501237892e-01 3.372863950748339334e-01
2.388059718467891723e-01 5.236672319315012203e-01
2.398465207434545554e-01 4.587976887416580496e-01
2.408870696401199385e-01 7.486880392854615707e-01
2.419276185367853216e-01 1.020898832990503990e+00
2.429681674334507047e-01 1.079509993143819457e+00
2.440087163301160877e-01 1.123621759156652189e+00
2.450492652267814708e-01 1.289817009393889435e+00
2.460898141234468539e-01 1.176787088670810277e+00
2.471303630201122370e-01 9.597333801534233544e-01
2.481709119167776201e-01 1.150847766371494885e+00
2.492114608134430032e-01 1.378974610733880724e+00
2.502520097101083585e-01 1.448970732986325061e+00
2.512925586067737416e-01 1.517090230218116176e+00
2.523331075034391247e-01 1.659645630170196284e+00
2.533736564001045077e-01 1.581129685978474697e+00
2.544142052967698908e-01 1.657145282659371333e+00
2.554547541934352739e-01 1.801161680178203994e+00
2.564953030901006570e-01 1.949504396503510151e+00
2.575358519867660401e-01 1.511894243157428264e+00
2.585764008834314231e-01 1.688714429047639243e+00
2.596169497800968062e-01 1.650799698185508646e+00
2.606574986767621893e-01 1.603039956265302379e+00
2.616980475734275724e-01 1.573672863773573738e+00
2.627385964700929555e-01 1.173748869204334966e+00
2.637791453667583386e-01 1.238906600521588075e+00
2.648196942634237216e-01 1.494687407809280444e+00
2.658602431600891047e-01 1.860598469983617775e+00
2.669007920567544878e-01 2.216745657735057051e+00
2.679413409534198709e-01 2.254794953412300629e+00
2.689818898500852540e-01 2.116962305207316319e+00
2.700224387467506371e-01 2.082184149077161095e+00
2.710629876434160201e-01 1.943419445613955077e+00
2.721035365400814032e-01 1.963601696296329635e+00
2.731440854367467863e-01 1.811001612533640781e+00
2.741846343334121694e-01 1.792843198786322034e+00
2.752251832300775525e-01 1.710847824911027715e+00
2.762657321267429356e-01 1.617274066659437182e+00
2.773062810234083186e-01 1.391808124920366652e+00
2.783468299200737017e-01 1.262172594324965758e+00
2.793873788167390848e-01 1.488648232904250079e+00
2.804279277134044679e-01 1.525564233274515402e+00
2.814684766100698510e-01 1.367717534254285994e+00
2.825090255067352341e-01 1.200406327446032151e+00
2.835495744034006171e-01 1.236971837512776062e+00
2.845901233000660002e-01 1.315360932846186159e+00
2.856306721967313833e-01 1.150265164308255095e+00
2.866712210933967664e-01 1.105026103945260019e+00
2.877117699900621495e-01 9.916320593013985274e-01
2.887523188867275326e-01 1.017534097762542444e+00
2.897928677833929156e-01 1.042770787019829726e+00
2.908334166800582987e-01 1.276922981673269675e+00
2.918739655767236818e-01 1.447113068463682595e+00
2.929145144733890649e-01 1.077445646442271254e+00
2.939550633700544480e-01 8.938571792289451423e-01
2.949956122667198311e-01 7.715733576509116176e-01
2.960361611633852141e-01 6.931880736293223322e-01
2.970767100600505972e-01 6.783895400859698555e-01
2.981172589567159803e-01 7.660933674660839188e-01
2.991578078533813634e-01 6.724965532057964879e-01
3.001983567500468020e-01 6.598043001125546425e-01
3.012389056467121851e-01 6.327099306020045333e-01
3.022794545433775681e-01 6.720452604105204841e-01
3.033200034400429512e-01 6.073808687809645335e-01
3.043605523367083343e-01 6.430146104915337446e-01
3.054011012333737174e-01 4.985848553857792353e-01
3.064416501300391005e-01 4.183546687952031107e-01
3.074821990267044836e-01 4.392665014736927276e-01
3.085227479233698666e-01 5.431433946289843107e-01
3.095632968200352497e-01 6.055952294254645096e-01
3.106038457167006328e-01 5.743979061309474332e-01
3.116443946133660159e-01 4.322788860514918952e-01
3.126849435100313990e-01 2.755851850518276080e-01
3.137254924066967821e-01 2.851335643333179348e-01
3.147660413033621651e-01 0.000000000000000000e+00
3.158065902000275482e-01 2.039749989286754328e-01
3.168471390966929313e-01 3.909487616908080554e-01
3.178876879933583144e-01 4.676317614914538012e-01
3.189282368900236975e-01 2.543418314564149796e-01
3.199687857866890806e-01 3.419763593043612104e-01
3.210093346833544636e-01 3.222128426276746893e-01
3.220498835800198467e-01 3.135998042142595921e-01
3.230904324766852298e-01 3.675248966352739899e-02
3.241309813733506129e-01 1.716481003035710273e-01
3.251715302700159960e-01 2.961781053926664242e-01
3.262120791666813790e-01 4.133824964355028442e-01
3.272526280633467621e-01 5.786057994514166580e-01
3.282931769600121452e-01 2.681932328456397840e-01
3.293337258566775283e-01 1.926372528864490619e-01
3.303742747533429114e-01 4.993574283961166316e-01
3.314148236500082945e-01 5.430159539147716430e-01
3.324553725466736775e-01 6.180400278841631234e-01
3.334959214433390606e-01 6.543288118952972354e-01
3.345364703400044437e-01 5.332882004456926950e-01
3.355770192366698268e-01 6.052829116468316784e-01
3.366175681333352099e-01 2.539735833029084233e-01
3.376581170300005930e-01 3.095177778517523848e-01
3.386986659266659760e-01 7.483439825459505812e-01
3.397392148233313591e-01 9.016381983760517471e-01
3.407797637199967422e-01 6.338214795072083518e-01
3.418203126166621253e-01 4.986617629468135249e-01
3.428608615133275084e-01 4.958408194765198118e-01
3.439014104099928915e-01 7.831536745451899151e-01
3.449419593066582745e-01 5.943527351114497037e-01
3.459825082033236576e-01 5.155934342478438737e-01
3.470230570999890407e-01 6.740129302040784864e-01
3.480636059966544238e-01 6.097826340932144262e-01
3.491041548933198069e-01 7.923958265937720569e-01
3.501447037899851900e-01 8.933262814811477881e-01
3.511852526866505730e-01 4.805207953366696927e-01
3.522258015833159561e-01 4.288986093196527349e-01
3.532663504799813392e-01 4.331112393763625334e-01
3.543068993766467223e-01 8.465430975389836021e-01
3.553474482733121054e-01 7.080558107155567882e-01
3.563879971699774885e-01 4.799985551558485497e-01
3.574285460666428715e-01 6.171915209224145826e-01
3.584690949633082546e-01 6.272510239159849732e-01
3.595096438599736377e-01 6.165618481614387747e-01
3.605501927566390208e-01 7.873106202642361495e-01
3.615907416533044039e-01 6.700650951446434078e-01
3.626312905499697870e-01 5.307318080885110589e-01
3.636718394466351700e-01 5.807753017837242737e-01
3.647123883433005531e-01 6.688186941630327453e-01
3.657529372399659362e-01 7.021106910869328033e-01
3.667934861366313193e-01 6.182034569811989400e-01
3.678340350332967024e-01 6.411793033784256579e-01
3.688745839299620854e-01 5.412414465436583555e-01
3.699151328266274685e-01 4.746017467656216127e-01
3.709556817232928516e-01 6.196822306530016533e-01
3.719962306199582347e-01 4.478109200167743609e-01
3.730367795166236178e-01 3.902479402116085794e-01
3.740773284132890009e-01 4.721936147597922684e-01
3.751178773099543839e-01 2.497529926754715746e-01
3.761584262066197670e-01 2.407811895458102924e-01
3.771989751032851501e-01 4.902270210109698212e-01
3.782395239999505332e-01 6.044518481186287318e-01
3.792800728966159163e-01 6.844630476008966014e-01
3.803206217932812994e-01 7.868757710280114281e-01
3.813611706899466824e-01 8.250371646400829206e-01
3.824017195866120655e-01 6.839395977137172622e-01
3.834422684832774486e-01 6.101464649630017334e-01
3.844828173799428317e-01 6.081047579317768736e-01
3.855233662766082148e-01 6.644704638934015861e-01
3.865639151732735979e-01 4.809524592820650923e-01
3.876044640699389809e-01 5.344338984172161133e-01
3.886450129666043640e-01 5.674467408824668269e-01
3.896855618632697471e-01 6.393483767278240748e-01
3.907261107599351302e-01 7.477491038512624755e-01
3.917666596566005133e-01 5.155898011385104951e-01
3.928072085532658964e-01 3.571976834067207562e-01
3.938477574499312794e-01 3.352590400752575306e-01
3.948883063465966625e-01 4.100319859329388805e-01
3.959288552432620456e-01 2.513721873403333973e-01
3.969694041399274287e-01 2.887723680971205908e-01
3.980099530365928118e-01 4.147892489236895130e-01
3.990505019332581949e-01 6.145730984571144973e-01
4.000910508299235779e-01 4.709485165007585294e-01
4.011315997265889610e-01 4.273253276598012462e-01
4.021721486232543441e-01 1.857231880039300620e-01
4.032126975199197272e-01 2.089798345777040822e-01
4.042532464165851103e-01 4.300600544045565243e-01
4.052937953132504934e-01 3.952419624558380917e-01
4.063343442099158764e-01 2.534216092337189252e-01
4.073748931065812595e-01 2.492437190523162371e-01
4.084154420032466426e-01 4.677901526484973260e-01
4.094559908999120257e-01 5.161183095889860795e-01
4.104965397965774088e-01 3.921267808600994442e-01
4.115370886932427918e-01 4.881758395262920658e-01
4.125776375899081749e-01 3.672756331952982123e-01
4.136181864865735580e-01 4.313023243884082092e-01
4.146587353832389411e-01 5.681761602930386346e-01
4.156992842799043242e-01 3.662338994811271675e-01
4.167398331765697073e-01 1.578313745972117488e-01
4.177803820732350903e-01 2.584398185502827516e-01
4.188209309699004734e-01 2.454624173747532723e-01
4.198614798665658565e-01 3.335457735952829239e-01
4.209020287632312396e-01 3.398686069184115865e-01
4.219425776598966227e-01 3.906677469623716092e-01
4.229831265565620058e-01 4.385925840581244017e-01
4.240236754532273888e-01 4.376111712359254113e-01
4.250642243498927719e-01 5.120729503862762044e-01
4.261047732465581550e-01 5.351111669080133026e-01
4.271453221432235381e-01 3.344153299323942008e-01
4.281858710398889212e-01 1.727221360449782139e-01
4.292264199365543043e-01 3.003892669946495175e-01
4.302669688332196873e-01 3.033528841944956866e-01
4.313075177298850704e-01 2.607059785120142692e-01
4.323480666265504535e-01 4.636551175849632500e-01
4.333886155232158366e-01 2.773558612164634951e-01
4.344291644198812197e-01 3.883805819590762098e-01
