# q (1/Angstrom), Intensity (arb)
2.078726924066784734e-02 2.916266873000195119e+02
2.212838338006469993e-02 4.279675761914347731e+02
2.346949751946154905e-02 5.790308937316438005e+02
2.481061165885840164e-02 8.390836654507822914e+02
2.615172579825525423e-02 9.763927314694910820e+02
2.749283993765210335e-02 1.033138625822565700e+03
2.883395407704895941e-02 1.082206466195404573e+03
3.017506821644580506e-02 1.103033007555922723e+03
3.151618235584265765e-02 1.110466794658285153e+03
3.285729649523951718e-02 1.110865641996513205e+03
3.419841063463636283e-02 1.105655765297258313e+03
3.553952477403321542e-02 1.098943046686509206e+03
3.688063891343006800e-02 1.095211845581723992e+03
3.822175305282692059e-02 1.086904919853331194e+03
3.956286719222376624e-02 1.077880308190076448e+03
4.090398133162062577e-02 1.071722349812959010e+03
4.224509547101747142e-02 1.065451190302373561e+03
4.358620961041432401e-02 1.060715611801522755e+03
4.492732374981117660e-02 1.049955121707847184e+03
4.626843788920802919e-02 1.046822771404870991e+03
4.760955202860488178e-02 1.047743362132322090e+03
4.895066616800172743e-02 1.038688360008619838e+03
5.029178030739858696e-02 1.029568261590753536e+03
5.163289444679544649e-02 1.023268616806631826e+03
5.297400858619229214e-02 1.018733870648786024e+03
5.431512272558913779e-02 1.010639902641846220e+03
5.565623686498599731e-02 1.001269559070953051e+03
5.699735100438284990e-02 9.876529567635757303e+02
5.833846514377969555e-02 9.791616788931543169e+02
5.967957928317654814e-02 9.718787504797714973e+02
6.102069342257340767e-02 9.599047466821496073e+02
6.236180756197025332e-02 9.460107990041551602e+02
6.370292170136709897e-02 9.339078737378671349e+02
6.504403584076395850e-02 9.219194972100384575e+02
6.638514998016080415e-02 9.128644054717792642e+02
6.772626411955766368e-02 9.008076869444566910e+02
6.906737825895450933e-02 8.861888016523400893e+02
7.040849239835136886e-02 8.715826840181033504e+02
7.174960653774821451e-02 8.571572849832130032e+02
7.309072067714506016e-02 8.400794925541980547e+02
7.443183481654190581e-02 8.263802103948399917e+02
7.577294895593877921e-02 8.117350016117180758e+02
7.711406309533562486e-02 7.934654399976691366e+02
7.845517723473247051e-02 7.768541340708404732e+02
7.979629137412933004e-02 7.607143365830013408e+02
8.113740551352617569e-02 7.459465112257889814e+02
8.247851965292302134e-02 7.320350602138169052e+02
8.381963379231988087e-02 7.174207784142926130e+02
8.516074793171674040e-02 7.020040453748626987e+02
8.650186207111358605e-02 6.871903145026324182e+02
8.784297621051043170e-02 6.709022290615964721e+02
8.918409034990729123e-02 6.561898779863872733e+02
9.052520448930413688e-02 6.401270682933027274e+02
9.186631862870098253e-02 6.252313748591559488e+02
9.320743276809784206e-02 6.114516649191181159e+02
9.454854690749470159e-02 5.950898364950323867e+02
9.588966104689154724e-02 5.808869589570545031e+02
9.723077518628839289e-02 5.698005174357053875e+02
9.857188932568525241e-02 5.545291766348366309e+02
9.991300346508209806e-02 5.397291916236491716e+02
1.012541176044789437e-01 5.244149646578944157e+02
1.025952317438758032e-01 5.110384003133833630e+02
1.039363458832726350e-01 4.963723762526977907e+02
1.052774600226694945e-01 4.819330519127971115e+02
1.066185741620663541e-01 4.695602126408987260e+02
1.079596883014631858e-01 4.560452848870505136e+02
1.093008024408600454e-01 4.429856565171278930e+02
1.106419165802569049e-01 4.296553608719519843e+02
1.119830307196537506e-01 4.144130115275654020e+02
1.133241448590506101e-01 4.022205727470907277e+02
1.146652589984474419e-01 3.895340982424706908e+02
1.160063731378443014e-01 3.782610837587627657e+02
1.173474872772411609e-01 3.667192115457471573e+02
1.186886014166380066e-01 3.534630610943290776e+02
1.200297155560348661e-01 3.428985509841024850e+02
1.213708296954317256e-01 3.313769806428803122e+02
1.227119438348285574e-01 3.193407395760508507e+02
1.240530579742254169e-01 3.077066516696233407e+02
1.253941721136222764e-01 2.961540397961102258e+02
1.267352862530191082e-01 2.863714461775387576e+02
1.280764003924159677e-01 2.769842768747952277e+02
1.294175145318128273e-01 2.672919676599094032e+02
1.307586286712096590e-01 2.557524680445768297e+02
1.320997428106065186e-01 2.466059200485917131e+02
1.334408569500033781e-01 2.371238336193643477e+02
1.347819710894002376e-01 2.286668982381206661e+02
1.361230852287970972e-01 2.182967334905316648e+02
1.374641993681939289e-01 2.095916047798736201e+02
1.388053135075907885e-01 1.999381755144868862e+02
1.401464276469876480e-01 1.915566357221998146e+02
1.414875417863844798e-01 1.847664705514997081e+02
1.428286559257813393e-01 1.757759245194571349e+02
1.441697700651781988e-01 1.690528320342502866e+02
1.455108842045750306e-01 1.615012733245635559e+02
1.468519983439718901e-01 1.533990116613628345e+02
1.481931124833687219e-01 1.471181632289883510e+02
1.495342266227655814e-01 1.408207783739045169e+02
1.508753407621624687e-01 1.342665003608304914e+02
1.522164549015593005e-01 1.279236008164210290e+02
1.535575690409561600e-01 1.215384485449056200e+02
1.548986831803530195e-01 1.147871597694272481e+02
1.562397973197498513e-01 1.082644253481376779e+02
1.575809114591467108e-01 1.028144670911885186e+02
1.589220255985435704e-01 9.727539751233832988e+01
1.602631397379404021e-01 9.203391753700479683e+01
1.616042538773372617e-01 8.653813099267912889e+01
1.629453680167341212e-01 8.248361941186581703e+01
1.642864821561309530e-01 7.858192028656513628e+01
1.656275962955278125e-01 7.334215947121690249e+01
1.669687104349246720e-01 6.906167123516367212e+01
1.683098245743215315e-01 6.556167294923470479e+01
1.696509387137183911e-01 6.172607635437472595e+01
1.709920528531152228e-01 5.783805364295325546e+01
1.723331669925120824e-01 5.439924455900018074e+01
1.736742811319089419e-01 5.093053027361077056e+01
1.750153952713057737e-01 4.814035059562468177e+01
1.763565094107026332e-01 4.551280553402057194e+01
1.776976235500994927e-01 4.137727349060277504e+01
1.790387376894963245e-01 3.917596699073200739e+01
1.803798518288931840e-01 3.678679994192559377e+01
1.817209659682900158e-01 3.317005300814196289e+01
1.830620801076868753e-01 3.117503281146973393e+01
1.844031942470837349e-01 2.922799275008293307e+01
1.857443083864805944e-01 2.654966156117131959e+01
1.870854225258774539e-01 2.438355773283176120e+01
1.884265366652743134e-01 2.259101341569112265e+01
1.897676508046711452e-01 2.146624763617147380e+01
1.911087649440680047e-01 2.014594672180238888e+01
1.924498790834648643e-01 1.798747128478265722e+01
1.937909932228616960e-01 1.658090782660558204e+01
1.951321073622585556e-01 1.512250177599553069e+01
1.964732215016554151e-01 1.383559488491698630e+01
1.978143356410522469e-01 1.250290862819478832e+01
1.991554497804491064e-01 1.126383730885997636e+01
2.004965639198459382e-01 1.044869227358411479e+01
2.018376780592427977e-01 9.599530348208148212e+00
2.031787921986396572e-01 9.063665517103402181e+00
2.045199063380365168e-01 8.435644214306222466e+00
2.058610204774333763e-01 7.619649257195987957e+00
2.072021346168302081e-01 6.778029370893406735e+00
2.085432487562270676e-01 6.312246634099196285e+00
2.098843628956239271e-01 6.133808136492277185e+00
2.112254770350207866e-01 6.053239369008849735e+00
2.125665911744176462e-01 5.589905192908489084e+00
2.139077053138144502e-01 4.454862161760715367e+00
2.152488194532113097e-01 4.084203645941727245e+00
2.165899335926081692e-01 4.751699974951748118e+00
2.179310477320050288e-01 4.739409519188683362e+00
2.192721618714018883e-01 4.322253160248735071e+00
2.206132760107987478e-01 4.198568263158264813e+00
2.219543901501955796e-01 4.101072681799053044e+00
2.232955042895924391e-01 4.504577192915192541e+00
2.246366184289892987e-01 4.742591407278908378e+00
2.259777325683861582e-01 4.666655922827985137e+00
2.273188467077830177e-01 4.175078038905425615e+00
2.286599608471798217e-01 4.384207206611606011e+00
2.300010749865766813e-01 4.650226066844666661e+00
2.313421891259735408e-01 4.404206206467208062e+00
2.326833032653704003e-01 4.697967785403662333e+00
2.340244174047672598e-01 5.015073907746682380e+00
2.353655315441641194e-01 4.862474562434485392e+00
2.367066456835609234e-01 4.650799541664540016e+00
2.380477598229577829e-01 4.814868578661005927e+00
2.393888739623546424e-01 4.822531132375956986e+00
2.407299881017515020e-01 5.544610943946111092e+00
2.420711022411483615e-01 6.186774210715142885e+00
2.434122163805451933e-01 5.798079333594643003e+00
2.447533305199420528e-01 5.952639326296164768e+00
2.460944446593389123e-01 6.076632920836814833e+00
2.474355587987357719e-01 6.353210224785598825e+00
2.487766729381326314e-01 6.050861051475791896e+00
2.501177870775294632e-01 6.181840147513725015e+00
2.514589012169263227e-01 6.308248478198507314e+00
2.528000153563231822e-01 6.341394285621987592e+00
2.541411294957200417e-01 7.234105553781375875e+00
2.554822436351169013e-01 7.378416338095121318e+00
2.568233577745137608e-01 6.937974271339754750e+00
2.581644719139106203e-01 6.941834823959283085e+00
2.595055860533074243e-01 7.375318430193473773e+00
2.608467001927042839e-01 7.565757017661496775e+00
2.621878143321011434e-01 7.849466807114893641e+00
2.635289284714980029e-01 7.727887804160872065e+00
2.648700426108948625e-01 7.759948485979194288e+00
2.662111567502916665e-01 7.970727512802753267e+00
2.675522708896885260e-01 7.845913319348696291e+00
2.688933850290853855e-01 8.122391279739701986e+00
2.702344991684822451e-01 8.571097693771434933e+00
2.715756133078791046e-01 8.447316000514959455e+00
2.729167274472759641e-01 8.629688569389713848e+00
2.742578415866727681e-01 8.951625652788877119e+00
2.755989557260696277e-01 8.087418084687698183e+00
2.769400698654664872e-01 7.781257829131050130e+00
2.782811840048633467e-01 8.111642909252253730e+00
2.796222981442602062e-01 8.213108024864794743e+00
2.809634122836570103e-01 8.140421705817544762e+00
2.823045264230538698e-01 7.698429648287088867e+00
2.836456405624507293e-01 7.882535367829348161e+00
2.849867547018475888e-01 7.896531618606815073e+00
2.863278688412444484e-01 7.774892104333858356e+00
2.876689829806413079e-01 7.530948825413418035e+00
2.890100971200381674e-01 8.066809660647891178e+00
2.903512112594350270e-01 7.602641926806342099e+00
2.916923253988318865e-01 7.539331534290241166e+00
2.930334395382287460e-01 7.360317887228447375e+00
2.943745536776256055e-01 7.967503863053934765e+00
2.957156678170224096e-01 7.747939666050911001e+00
2.970567819564192691e-01 6.975670019349962558e+00
2.983978960958161286e-01 6.994201069890181088e+00
2.997390102352129881e-01 6.898210890383268179e+00
3.010801243746098477e-01 6.692749049328170940e+00
3.024212385140067072e-01 6.807248821070899680e+00
3.037623526534035112e-01 6.631672899742284244e+00
3.051034667928003707e-01 6.357601116484758563e+00
3.064445809321972303e-01 6.265397718595423271e+00
3.077856950715940898e-01 6.300055843075497819e+00
3.091268092109909493e-01 5.604041587821967596e+00
3.104679233503877533e-01 5.798677196387842514e+00
3.118090374897846129e-01 5.905979491212519861e+00
3.131501516291814724e-01 5.628742047726802866e+00
3.144912657685783319e-01 5.324462841026019078e+00
3.158323799079751915e-01 5.085896693275927305e+00
3.171734940473720510e-01 4.624992393810828162e+00
3.185146081867689105e-01 5.142897987892951051e+00
3.198557223261657700e-01 5.148751767575475924e+00
3.211968364655626296e-01 4.485897370586201305e+00
3.225379506049594891e-01 4.298907704076157188e+00
3.238790647443563486e-01 4.611059333374726066e+00
3.252201788837532082e-01 4.198671899184049039e+00
3.265612930231500122e-01 3.840806041222364797e+00
3.279024071625468717e-01 4.035160121551768952e+00
3.292435213019437312e-01 3.986202543702944467e+00
3.305846354413405908e-01 3.714826150237300340e+00
3.319257495807374503e-01 3.062657035882040191e+00
3.332668637201342543e-01 2.929141504965443232e+00
3.346079778595311138e-01 2.815121590163087717e+00
3.359490919989279734e-01 3.144287891098358045e+00
3.372902061383248329e-01 2.876025083840843877e+00
3.386313202777216924e-01 3.314740930183006640e+00
3.399724344171185519e-01 3.069632561218469391e+00
3.413135485565153560e-01 2.680091429624454236e+00
3.426546626959122155e-01 2.448751680337196035e+00
3.439957768353090750e-01 2.456096822688238035e+00
3.453368909747059345e-01 2.440188054607460799e+00
3.466780051141027941e-01 2.455929450594965147e+00
3.480191192534995981e-01 2.480120771968870486e+00
3.493602333928964576e-01 2.654310872994372517e+00
3.507013475322933171e-01 2.386851399906632309e+00
3.520424616716901767e-01 2.133580858963355809e+00
3.533835758110870362e-01 2.085387409385930368e+00
3.547246899504838957e-01 1.781771619093589720e+00
3.560658040898807553e-01 1.479518420109016574e+00
3.574069182292776148e-01 1.689233882536257170e+00
3.587480323686744743e-01 2.047942230264041541e+00
3.600891465080713338e-01 2.218545397868339819e+00
3.614302606474681934e-01 2.029564145822234877e+00
3.627713747868649974e-01 1.790622986376149584e+00
3.641124889262618569e-01 1.977963729879206767e+00
3.654536030656587164e-01 1.608001813205802932e+00
3.667947172050555760e-01 1.521910038658916164e+00
3.681358313444524355e-01 1.934189467418320874e+00
3.694769454838492950e-01 2.011002799312123557e+00
3.708180596232460990e-01 1.943139034444911317e+00
3.721591737626429586e-01 1.682176406185959650e+00
3.735002879020398181e-01 1.691013316703305236e+00
3.748414020414366776e-01 1.530109554576867481e+00
3.761825161808335372e-01 1.014028418068818382e+00
3.775236303202303967e-01 8.211364544337129701e-01
3.788647444596272007e-01 1.257410888020849882e+00
3.802058585990240602e-01 1.060671309684266816e+00
3.815469727384209198e-01 1.344794638012501764e+00
3.828880868778177793e-01 1.744641799470947774e+00
3.842292010172146388e-01 1.258616712240311131e+00
3.855703151566114428e-01 1.287582505585291415e+00
3.869114292960083024e-01 1.527303872017441222e+00
3.882525434354051619e-01 1.267771762050394102e+00
3.895936575748020214e-01 1.071236783707007589e+00
3.909347717141988809e-01 1.558563875270394306e+00
3.922758858535957405e-01 1.333438485648557048e+00
3.936169999929926000e-01 1.616163041090651120e+00
3.949581141323894595e-01 1.368374308243133441e+00
3.962992282717863191e-01 1.153493114615471882e+00
3.976403424111831786e-01 1.285165800757837928e+00
3.989814565505800381e-01 1.360186794527947995e+00
4.003225706899768976e-01 1.112210002300905387e+00
4.016636848293737572e-01 1.473244955335736961e+00
4.030047989687706167e-01 1.451932342244070639e+00
4.043459131081674207e-01 1.157935347222924349e+00
4.056870272475643358e-01 1.213091019687112748e+00
4.070281413869611398e-01 1.375061800850950533e+00
4.083692555263580548e-01 1.336101062366083170e+00
4.097103696657548588e-01 1.450669294203784432e+00
4.110514838051517739e-01 1.594193935298221732e+00
4.123925979445485779e-01 1.654497048849016494e+00
4.137337120839453819e-01 1.406024139481651503e+00
4.150748262233422969e-01 1.188602256225578913e+00
4.164159403627391010e-01 1.199597679865128441e+00
4.177570545021360160e-01 1.561064100552194134e+00
4.190981686415328200e-01 1.402996789990567095e+00
4.204392827809296240e-01 1.324915493354545504e+00
4.217803969203265391e-01 1.537938495606127276e+00
4.231215110597233431e-01 1.431788351502454759e+00
4.244626251991202581e-01 1.274157342530173764e+00
4.258037393385170621e-01 1.331343961612923010e+00
4.271448534779138662e-01 1.657904132273912978e+00
4.284859676173107812e-01 1.541524829419287812e+00
4.298270817567075852e-01 1.664222414645131209e+00
4.311681958961045003e-01 1.865361611906735106e+00
4.325093100355013043e-01 1.942296536102382731e+00
4.338504241748981638e-01 1.534051295892872702e+00
4.351915383142950233e-01 1.471897925618378622e+00
4.365326524536918829e-01 1.621712968313374859e+00
4.378737665930887424e-01 1.611318986057959535e+00
4.392148807324856019e-01 1.265528751750565561e+00
4.405559948718824614e-01 1.164893540506824365e+00
4.418971090112793210e-01 1.806624866026005805e+00
4.432382231506761250e-01 1.882466362299709317e+00
4.445793372900730400e-01 1.231211995371133128e+00
4.459204514294698440e-01 1.041124014067015935e+00
4.472615655688667591e-01 1.453281643289848546e+00
4.486026797082635631e-01 1.520067971792734340e+00
4.499437938476603671e-01 1.541791215853187680e+00
4.512849079870572822e-01 1.589151822337555586e+00
4.526260221264540862e-01 1.666589495768349138e+00
4.539671362658510012e-01 1.883678070847402353e+00
4.553082504052478052e-01 1.975125521705273002e+00
4.566493645446446092e-01 1.332909115225149321e+00
4.579904786840415243e-01 6.536151160889573930e-01
4.593315928234383283e-01 1.092406786213466319e+00
4.606727069628352433e-01 1.138967522130421628e+00
4.620138211022320474e-01 1.268117638706179662e+00
4.633549352416289624e-01 1.059595439534028571e+00
4.646960493810257664e-01 8.622299776656987547e-01
4.660371635204225704e-01 1.291604450298763140e+00
4.673782776598194855e-01 1.380397450896182932e+00
4.687193917992162895e-01 1.378649917464606744e+00
4.700605059386132045e-01 1.537611266965484447e+00
4.714016200780100085e-01 9.834237960611389440e-01
4.727427342174068681e-01 9.159397089555483262e-01
4.740838483568037276e-01 1.010716826711650640e+00
4.754249624962005871e-01 9.091777022887725934e-01
4.767660766355974467e-01 9.733462726557675637e-01
4.781071907749943062e-01 9.809694444200758312e-01
4.794483049143911102e-01 1.233929045180595097e+00
4.807894190537880252e-01 1.214538486130216199e+00
4.821305331931848293e-01 1.150555321619911808e+00
4.834716473325817443e-01 1.012661660911334138e+00
4.848127614719785483e-01 1.262974887847448713e+00
4.861538756113753523e-01 1.403182011843092880e+00
4.874949897507722674e-01 1.293115139566992866e+00
4.888361038901690714e-01 1.024699941349631160e+00
4.901772180295659864e-01 8.737366693134518414e-01
4.915183321689627904e-01 6.537295491019179394e-01
4.928594463083597055e-01 8.786586842667958308e-01
4.942005604477565095e-01 1.037585653818176468e+00
4.955416745871533135e-01 1.017704417740048939e+00
4.968827887265502286e-01 8.853165543786971625e-01
4.982239028659470326e-01 6.002131613445982339e-01
4.995650170053439476e-01 2.779790812027869151e-01
5.009061311447408071e-01 6.795883394157584689e-01
5.022472452841375556e-01 3.726401089889606055e-01
5.035883594235345262e-01 9.660697794358767965e-01
5.049294735629312747e-01 7.756888843071223505e-01
5.062705877023282452e-01 7.982240063366461413e-01
5.076117018417249938e-01 9.032110927663552502e-01
5.089528159811218533e-01 6.484585042738828520e-01
5.102939301205187128e-01 4.758175915625670882e-01
5.116350442599155723e-01 6.113650161577339759e-01
5.129761583993124319e-01 5.658340493599993692e-01
5.143172725387092914e-01 3.120553939237495911e-01
5.156583866781061509e-01 0.000000000000000000e+00
5.169995008175030105e-01 2.689802982491684702e-01
5.183406149568997590e-01 3.597732878137378520e-01
5.196817290962967295e-01 3.069981391242180280e-01
5.210228432356934780e-01 3.058762098722453970e-01
5.223639573750904486e-01 6.673897593853581611e-01
5.237050715144871971e-01 6.418494542810577741e-01
5.250461856538840566e-01 4.594846387347431005e-01
5.263872997932809161e-01 6.865039644068104963e-01
5.277284139326777757e-01 1.001958649537392887e+00
5.290695280720746352e-01 7.651740621532212572e-01
5.304106422114714947e-01 8.053501798980775561e-01
5.317517563508683542e-01 6.355052349471961293e-01
5.330928704902652138e-01 4.167460074481184051e-01
5.344339846296620733e-01 7.341651768656873855e-01
5.357750987690589328e-01 7.350117386213170789e-01
5.371162129084557924e-01 8.141961948184501807e-01
5.384573270478525409e-01 9.919183261643809146e-01
5.397984411872495114e-01 8.845307564308768633e-01
5.411395553266462599e-01 8.021425094880001438e-01
5.424806694660432305e-01 1.000805616359180306e+00
5.438217836054399790e-01 6.703290209569630065e-01
5.451628977448369495e-01 6.995131770670397486e-01
5.465040118842336980e-01 5.153365678570622777e-01
5.478451260236305576e-01 4.321269771328459797e-01
5.491862401630274171e-01 5.073620122963120593e-01
5.505273543024242766e-01 3.466535348512209680e-01
5.518684684418211361e-01 1.052537870931331554e-01
5.532095825812179957e-01 4.090856025121922812e-01
5.545506967206147442e-01 4.953111236150107288e-01
