# q (1/Angstrom), Intensity (arb)
2.067508526570814575e-02 6.716566559903177449e+02
2.163671713586316769e-02 7.027218872204749687e+02
2.259834900601819310e-02 7.304038867376569897e+02
2.355998087617321851e-02 7.403655060224022009e+02
2.452161274632824739e-02 7.437802301361526816e+02
2.548324461648326933e-02 7.477505827307492154e+02
2.644487648663829821e-02 7.476367511067542182e+02
2.740650835679332709e-02 7.445621517136667080e+02
2.836814022694834903e-02 7.408952420694347438e+02
2.932977209710337443e-02 7.373456443118495827e+02
3.029140396725839637e-02 7.311725517865727397e+02
3.125303583741342178e-02 7.285218948177287075e+02
3.221466770756845066e-02 7.223540496904618067e+02
3.317629957772347260e-02 7.153401209091756527e+02
3.413793144787850148e-02 7.113474749566358923e+02
3.509956331803352342e-02 7.058253880751024099e+02
3.606119518818855230e-02 7.007432240509909889e+02
3.702282705834358117e-02 6.909727522507383810e+02
3.798445892849860311e-02 6.838970239286194328e+02
3.894609079865363199e-02 6.777653952496980310e+02
3.990772266880865393e-02 6.723356248746891879e+02
4.086935453896367587e-02 6.658394614836876144e+02
4.183098640911870475e-02 6.566241915002613041e+02
4.279261827927372669e-02 6.481092326078968426e+02
4.375425014942875557e-02 6.348703663167706281e+02
4.471588201958377751e-02 6.217879184511082258e+02
4.567751388973880639e-02 6.120003050661214274e+02
4.663914575989382832e-02 6.028583964836439009e+02
4.760077763004885720e-02 5.930779659734533880e+02
4.856240950020387914e-02 5.822221980313986478e+02
4.952404137035890108e-02 5.744255215765584808e+02
5.048567324051392302e-02 5.645801592789439383e+02
5.144730511066895190e-02 5.543115012872033276e+02
5.240893698082397384e-02 5.420600718606868895e+02
5.337056885097899578e-02 5.294690317781743261e+02
5.433220072113403160e-02 5.163216173039980958e+02
5.529383259128905354e-02 5.019015053811910434e+02
5.625546446144407547e-02 4.904410005511631994e+02
5.721709633159910435e-02 4.792872024435156959e+02
5.817872820175412629e-02 4.643104274051661946e+02
5.914036007190914823e-02 4.525246171783353475e+02
6.010199194206417017e-02 4.398699464090761353e+02
6.106362381221920599e-02 4.265638865221980041e+02
6.202525568237422793e-02 4.165334180289266897e+02
6.298688755252924987e-02 4.053022326755033760e+02
6.394851942268428568e-02 3.936635943194850711e+02
6.491015129283930762e-02 3.809849555538246477e+02
6.587178316299432956e-02 3.706607031221994362e+02
6.683341503314935150e-02 3.575530435971861607e+02
6.779504690330438732e-02 3.452185075373403151e+02
6.875667877345940926e-02 3.348547364331049607e+02
6.971831064361443120e-02 3.255591777565429652e+02
7.067994251376945314e-02 3.137806991795615090e+02
7.164157438392447508e-02 3.019956598109754395e+02
7.260320625407949702e-02 2.921151564683137281e+02
7.356483812423453283e-02 2.799301036418396507e+02
7.452646999438955477e-02 2.710687203934548393e+02
7.548810186454457671e-02 2.603833391957788876e+02
7.644973373469959865e-02 2.505411479061162368e+02
7.741136560485463447e-02 2.406860856837045617e+02
7.837299747500965641e-02 2.311164194948918862e+02
7.933462934516467835e-02 2.220964936676299715e+02
8.029626121531971417e-02 2.135568335615741091e+02
8.125789308547473611e-02 2.047396443042899818e+02
8.221952495562975805e-02 1.964704340676426568e+02
8.318115682578479386e-02 1.881876592009340925e+02
8.414278869593981580e-02 1.805447501914447628e+02
8.510442056609483774e-02 1.720395346867557578e+02
8.606605243624985968e-02 1.642628027711648997e+02
8.702768430640489550e-02 1.567925105304898352e+02
8.798931617655991744e-02 1.488918141328736340e+02
8.895094804671493938e-02 1.418944589471632298e+02
8.991257991686996132e-02 1.356565189951345474e+02
9.087421178702498326e-02 1.290618504307075227e+02
9.183584365718000520e-02 1.234848341515890411e+02
9.279747552733502713e-02 1.176280284675237482e+02
9.375910739749006295e-02 1.111997537976046715e+02
9.472073926764508489e-02 1.040698539184321731e+02
9.568237113780010683e-02 9.785630933494661576e+01
9.664400300795514265e-02 9.243622199972679709e+01
9.760563487811016459e-02 8.706236669817937468e+01
9.856726674826518653e-02 8.186434032103406366e+01
9.952889861842022234e-02 7.659859972282454521e+01
1.004905304885752443e-01 7.222998100641092378e+01
1.014521623587302801e-01 6.725364993736980068e+01
1.024137942288853020e-01 6.285450355456558924e+01
1.033754260990403240e-01 5.859878846911848882e+01
1.043370579691953459e-01 5.461071742535480666e+01
1.052986898393503817e-01 5.053578420603633958e+01
1.062603217095053898e-01 4.800172926432289700e+01
1.072219535796604256e-01 4.453796821944058593e+01
1.081835854498154614e-01 4.094133195806202252e+01
1.091452173199704695e-01 3.796675720434522106e+01
1.101068491901255053e-01 3.542861153335442737e+01
1.110684810602805411e-01 3.239306667274295393e+01
1.120301129304355492e-01 2.992111715418625550e+01
1.129917448005905850e-01 2.742803260328965465e+01
1.139533766707456208e-01 2.439356994152512570e+01
1.149150085409006289e-01 2.218656919111703374e+01
1.158766404110556647e-01 2.052566526000705949e+01
1.168382722812106728e-01 1.880702527143766289e+01
1.177999041513657086e-01 1.679271198519895947e+01
1.187615360215207305e-01 1.518832046212092024e+01
1.197231678916757525e-01 1.381858510576180521e+01
1.206847997618307744e-01 1.256837873229151725e+01
1.216464316319858102e-01 1.096592677499912938e+01
1.226080635021408183e-01 9.630555513820130642e+00
1.235696953722958541e-01 8.307002274966610145e+00
1.245313272424508899e-01 7.535504105397166086e+00
1.254929591126059119e-01 6.757036718764950933e+00
1.264545909827609338e-01 5.869992056175060924e+00
1.274162228529159557e-01 5.166016993407271940e+00
1.283778547230709777e-01 4.324552666001078904e+00
1.293394865932259996e-01 4.019570927999605914e+00
1.303011184633810493e-01 3.247684608795630368e+00
1.312627503335360435e-01 2.721886950044218878e+00
1.322243822036910932e-01 2.407850603499504416e+00
1.331860140738460874e-01 2.329528992852910818e+00
1.341476459440011371e-01 2.209851082884384255e+00
1.351092778141561590e-01 1.811871979614672057e+00
1.360709096843111809e-01 1.316326678337979672e+00
1.370325415544662029e-01 1.376676969849199850e+00
1.379941734246212526e-01 1.329678959219187107e+00
1.389558052947762468e-01 1.096911827023081543e+00
1.399174371649312965e-01 1.072387626322257148e+00
1.408790690350863184e-01 1.334992588271134650e+00
1.418407009052413403e-01 1.255647951980705557e+00
1.428023327753963623e-01 1.595116478265538262e+00
1.437639646455513842e-01 1.683878038227675233e+00
1.447255965157064062e-01 1.743812401267966550e+00
1.456872283858614281e-01 1.933359592111163039e+00
1.466488602560164778e-01 2.193696029327103503e+00
1.476104921261714720e-01 2.526633360374876958e+00
1.485721239963265217e-01 2.725345750161064728e+00
1.495337558664815436e-01 2.636635778875394465e+00
1.504953877366365655e-01 2.959038796085923906e+00
1.514570196067915875e-01 3.229524515718754429e+00
1.524186514769466094e-01 3.480567745034985450e+00
1.533802833471016314e-01 3.677866915683893012e+00
1.543419152172566811e-01 3.822438418991296771e+00
1.553035470874116752e-01 3.948160183375875931e+00
1.562651789575667249e-01 4.293675764392830274e+00
1.572268108277217469e-01 4.420436979330080618e+00
1.581884426978767688e-01 4.527697199726127053e+00
1.591500745680317908e-01 4.642782222899334954e+00
1.601117064381868405e-01 4.810110275612963449e+00
1.610733383083418346e-01 4.973955807836958343e+00
1.620349701784968843e-01 5.443855107385221714e+00
1.629966020486519063e-01 5.688049454653381076e+00
1.639582339188069282e-01 5.691802827482632665e+00
1.649198657889619501e-01 5.674434384322847080e+00
1.658814976591169721e-01 6.004648934388654880e+00
1.668431295292719940e-01 6.080726002335321567e+00
1.678047613994270160e-01 6.178742949079982338e+00
1.687663932695820379e-01 6.098408895990818479e+00
1.697280251397370598e-01 6.280450985972510836e+00
1.706896570098921095e-01 6.245797878307410400e+00
1.716512888800471037e-01 5.888400392216187385e+00
1.726129207502021534e-01 6.355081343594136456e+00
1.735745526203571754e-01 6.424640268952057198e+00
1.745361844905121973e-01 6.530056679976404155e+00
1.754978163606672192e-01 6.555476141335780937e+00
1.764594482308222689e-01 6.389690970900048228e+00
1.774210801009772631e-01 6.670343853040222371e+00
1.783827119711323128e-01 7.033326688659101933e+00
1.793443438412873348e-01 6.904996331538082899e+00
1.803059757114423567e-01 6.565897098569930534e+00
1.812676075815973786e-01 6.474483157801614652e+00
1.822292394517524006e-01 6.401827891025895667e+00
1.831908713219074225e-01 6.551009997885415714e+00
1.841525031920624444e-01 6.541256468018008974e+00
1.851141350622174664e-01 6.042135556990746892e+00
1.860757669323724883e-01 5.768155936090966662e+00
1.870373988025275380e-01 5.943893778048082055e+00
1.879990306726825322e-01 5.784948640327037594e+00
1.889606625428375819e-01 5.644239870450164176e+00
1.899222944129926038e-01 5.562503934001679085e+00
1.908839262831476258e-01 5.135805484438883184e+00
1.918455581533026477e-01 4.981699968071115592e+00
1.928071900234576974e-01 4.810980052949542340e+00
1.937688218936126916e-01 4.772860325419454597e+00
1.947304537637677413e-01 4.683959384021775918e+00
1.956920856339227632e-01 4.502204173405665699e+00
1.966537175040777852e-01 4.447319764576256773e+00
1.976153493742328071e-01 4.403437792348277924e+00
1.985769812443878291e-01 4.499821705018995033e+00
1.995386131145428510e-01 4.330728640681741126e+00
2.005002449846978729e-01 3.892746560722049054e+00
2.014618768548528949e-01 3.703725111084033017e+00
2.024235087250079168e-01 3.272326972675756451e+00
2.033851405951629665e-01 3.234629329864564085e+00
2.043467724653179884e-01 3.053967111404251256e+00
2.053084043354730381e-01 2.750580287688261905e+00
2.062700362056280046e-01 2.811130733136675275e+00
2.072316680757830543e-01 2.773982370386150365e+00
2.081932999459380762e-01 2.425434340191333860e+00
2.091549318160931259e-01 2.421348121259534025e+00
2.101165636862481478e-01 2.490108943207786751e+00
2.110781955564031698e-01 2.167092311078654632e+00
2.120398274265581640e-01 1.914513711265971807e+00
2.130014592967132137e-01 1.955538556522267157e+00
2.139630911668682356e-01 1.787352585817252759e+00
2.149247230370232575e-01 1.632796437947902746e+00
2.158863549071783072e-01 1.145158940885384169e+00
2.168479867773333014e-01 1.047015187063884412e+00
2.178096186474883234e-01 1.325506039865526731e+00
2.187712505176433453e-01 1.354764062552192172e+00
2.197328823877983950e-01 8.830511366291950992e-01
2.206945142579534169e-01 7.479811135581222459e-01
2.216561461281084666e-01 7.976782030932909606e-01
2.226177779982634330e-01 8.488743239408194086e-01
2.235794098684184827e-01 7.491134728858277469e-01
2.245410417385735047e-01 7.846144285705705101e-01
2.255026736087285544e-01 7.351806886753955439e-01
2.264643054788835763e-01 7.191953171534990474e-01
2.274259373490385983e-01 6.190047613128335513e-01
2.283875692191935924e-01 6.296342253562272617e-01
2.293492010893486421e-01 3.500483826799793974e-01
2.303108329595036641e-01 2.585962950266562643e-01
2.312724648296586860e-01 7.414637149489067269e-02
2.322340966998137357e-01 5.604406901025527077e-02
2.331957285699687299e-01 4.460509342792171594e-01
2.341573604401237518e-01 4.900426016841024079e-01
2.351189923102787738e-01 2.969101650181471541e-01
2.360806241804338235e-01 3.465261786456004245e-01
2.370422560505888454e-01 3.543131780471355796e-01
2.380038879207438951e-01 4.641668953174438172e-01
2.389655197908988615e-01 3.604243139282559127e-01
2.399271516610539112e-01 1.802262772126788093e-01
2.408887835312089332e-01 9.640243599023889942e-02
2.418504154013639829e-01 1.543606591703259312e-01
2.428120472715190048e-01 2.102207355479244200e-01
2.437736791416740267e-01 2.790485859075637620e-01
2.447353110118290209e-01 3.005976391268028181e-01
2.456969428819840706e-01 2.719241419018594286e-01
2.466585747521390926e-01 3.018459854242259155e-01
2.476202066222941145e-01 2.943478092365161558e-01
2.485818384924491642e-01 3.718093049557644747e-01
2.495434703626041584e-01 4.064095763984205689e-01
2.505051022327591803e-01 4.510199840124258230e-01
2.514667341029142023e-01 5.150613837117639093e-01
2.524283659730692242e-01 3.752496375056004752e-01
2.533899978432243016e-01 4.678359198070118907e-01
2.543516297133793236e-01 6.129835055551637879e-01
2.553132615835342900e-01 7.196089403707972565e-01
2.562748934536893120e-01 6.558775345390159828e-01
2.572365253238443894e-01 5.043549026910305599e-01
2.581981571939994113e-01 4.386475739326485268e-01
2.591597890641544333e-01 3.519348226073475416e-01
2.601214209343094552e-01 6.687716541573607287e-01
2.610830528044644772e-01 7.422537336800125729e-01
2.620446846746194991e-01 6.260815126306695788e-01
2.630063165447745210e-01 7.312973986630062484e-01
2.639679484149295430e-01 7.864728545242982705e-01
2.649295802850845649e-01 9.512291140838620151e-01
2.658912121552395869e-01 1.023154082900468609e+00
2.668528440253946088e-01 9.469297692707066005e-01
2.678144758955496307e-01 1.049352411133760654e+00
2.687761077657046527e-01 1.015341221313398989e+00
2.697377396358597301e-01 6.669657837725004867e-01
2.706993715060147521e-01 8.200659645762229388e-01
2.716610033761697185e-01 8.353294722453732390e-01
2.726226352463247404e-01 1.003012635077510595e+00
2.735842671164798179e-01 9.899311521373270750e-01
2.745458989866348398e-01 9.721975827450926033e-01
2.755075308567898618e-01 9.994892197835874015e-01
2.764691627269448837e-01 8.622769274565484920e-01
2.774307945970999056e-01 7.751773369572205752e-01
2.783924264672549276e-01 1.067388616252507916e+00
2.793540583374099495e-01 1.063542768658404469e+00
2.803156902075649715e-01 1.028633226542332579e+00
2.812773220777199934e-01 9.252701984807423230e-01
2.822389539478750153e-01 1.008365459703686184e+00
2.832005858180300373e-01 1.058220352986754875e+00
2.841622176881850592e-01 1.088747106302736967e+00
2.851238495583400812e-01 9.346960531932886340e-01
2.860854814284951586e-01 9.666970785507373876e-01
2.870471132986501805e-01 8.990257411154622957e-01
2.880087451688051470e-01 6.397565873735970854e-01
2.889703770389601689e-01 6.193672655443833719e-01
2.899320089091152464e-01 8.092870670019820523e-01
2.908936407792702683e-01 9.428835144359659637e-01
2.918552726494252902e-01 8.881473905975063587e-01
2.928169045195803122e-01 8.123082079154109181e-01
2.937785363897353341e-01 6.669732952067448650e-01
2.947401682598903561e-01 7.505140351263790421e-01
2.957018001300453780e-01 8.263350212324240829e-01
2.966634320002003999e-01 7.714318011211176440e-01
2.976250638703554219e-01 8.055662274554507007e-01
2.985866957405104993e-01 7.974460567694450219e-01
2.995483276106654658e-01 8.864266547277885877e-01
3.005099594808204877e-01 7.271689918539614439e-01
3.014715913509755651e-01 7.451568442043488005e-01
3.024332232211305871e-01 9.614486422893975259e-01
3.033948550912856090e-01 8.948073635217532740e-01
3.043564869614405755e-01 4.900062434355980656e-01
3.053181188315956529e-01 5.085711459105617394e-01
3.062797507017506748e-01 5.488111760984359933e-01
3.072413825719056968e-01 5.624713809099404216e-01
3.082030144420607187e-01 5.630599470758461678e-01
3.091646463122157407e-01 5.549755368622157903e-01
3.101262781823707626e-01 4.826242076924920354e-01
3.110879100525257845e-01 4.061994959690196083e-01
3.120495419226808065e-01 3.244944117819343887e-01
3.130111737928358284e-01 3.614397728495504225e-01
3.139728056629909059e-01 3.976170419786875243e-01
3.149344375331459278e-01 3.473069884355091119e-01
3.158960694033008942e-01 3.918035336020189163e-01
3.168577012734559162e-01 3.173684758418353624e-01
3.178193331436109936e-01 2.237892874846174607e-01
3.187809650137660156e-01 3.008742581249101988e-01
3.197425968839210375e-01 3.909741983589398728e-01
3.207042287540760039e-01 2.811888472795942562e-01
3.216658606242310814e-01 1.922786405390368714e-01
3.226274924943861033e-01 2.067375453794326745e-01
3.235891243645411253e-01 2.836572456680279686e-01
3.245507562346961472e-01 3.354182853342777548e-01
3.255123881048511691e-01 2.418461298025782469e-01
3.264740199750061911e-01 2.218179115461360595e-01
3.274356518451612130e-01 1.227178258025283242e-01
3.283972837153162350e-01 1.973481290689562684e-01
3.293589155854712569e-01 3.094512522946217814e-01
3.303205474556263344e-01 4.048234296082320327e-01
3.312821793257813563e-01 2.170347781410093546e-01
3.322438111959363227e-01 1.384349386965091355e-01
3.332054430660913447e-01 3.613360523560906756e-01
3.341670749362464221e-01 2.489582529874638794e-01
3.351287068064014441e-01 1.575227347105006004e-01
3.360903386765564660e-01 6.138147099248669747e-02
3.370519705467114324e-01 0.000000000000000000e+00
3.380136024168665099e-01 3.029254893667854276e-01
3.389752342870215318e-01 1.952319301443274924e-01
3.399368661571765537e-01 6.879208092798450025e-02
3.408984980273315757e-01 3.713615017546736397e-01
3.418601298974865976e-01 3.058274525060049598e-01
3.428217617676416196e-01 2.983957623529036596e-01
3.437833936377966415e-01 4.484193175530322151e-01
3.447450255079516634e-01 4.019570821981446329e-01
3.457066573781066854e-01 1.714333079624452694e-02
3.466682892482617628e-01 3.043877568224111485e-01
3.476299211184167848e-01 3.565242818568208349e-01
3.485915529885717512e-01 1.987348436915468142e-01
3.495531848587267731e-01 1.672878625339144776e-01
3.505148167288818506e-01 2.733688894963606231e-01
3.514764485990368725e-01 4.165811762074120850e-01
3.524380804691918945e-01 2.405500002850047281e-01
3.533997123393468609e-01 5.188935604290634274e-02
3.543613442095019384e-01 3.241526072960638771e-01
3.553229760796569603e-01 3.922618664123511678e-01
3.562846079498119822e-01 2.147319122699897775e-01
3.572462398199670042e-01 3.272508011499013492e-01
3.582078716901220261e-01 4.627151575021208885e-01
3.591695035602770480e-01 5.692261424353972643e-01
3.601311354304320700e-01 5.006981343989913569e-01
3.610927673005870919e-01 2.697817270946494261e-01
3.620543991707421139e-01 4.201906300045763487e-01
3.630160310408971913e-01 3.179290551876547966e-01
3.639776629110522133e-01 2.571476034159800861e-01
3.649392947812071797e-01 3.553034610885248412e-01
3.659009266513622016e-01 1.508855048900379359e-01
3.668625585215172791e-01 2.014851318875194863e-01
3.678241903916723010e-01 5.360706379469384331e-01
3.687858222618273230e-01 4.729219405409779142e-01
3.697474541319822894e-01 3.636372547597055416e-01
3.707090860021373668e-01 3.238533431531180895e-01
3.716707178722923888e-01 4.018893665892981915e-01
3.726323497424474107e-01 4.383343335519107598e-01
3.735939816126024327e-01 4.785420924559815603e-01
3.745556134827574546e-01 4.826107020734156094e-01
3.755172453529124765e-01 3.237122807213559383e-01
3.764788772230674985e-01 5.076890732111394300e-01
3.774405090932225204e-01 4.506077060481743501e-01
3.784021409633775423e-01 4.211063831612200659e-01
3.793637728335326198e-01 3.013497840205623390e-01
3.803254047036876417e-01 2.772255571388733131e-01
3.812870365738426082e-01 2.715722842769530132e-01
3.822486684439976301e-01 2.746719970200430794e-01
3.832103003141527076e-01 4.826352262436515161e-01
3.841719321843077295e-01 2.928202384575087081e-01
3.851335640544627514e-01 1.374853320697759784e-01
3.860951959246177734e-01 3.075807394944547468e-01
3.870568277947727953e-01 3.021872095708708628e-01
3.880184596649278173e-01 3.662845823431908343e-01
3.889800915350828392e-01 2.985938099008897950e-01
3.899417234052378611e-01 3.694777912438311773e-01
3.909033552753928831e-01 3.044048502106520004e-01
3.918649871455479050e-01 3.433251397376650971e-01
3.928266190157029270e-01 5.235374226565561173e-01
3.937882508858579489e-01 4.736618560367595876e-01
3.947498827560129708e-01 3.083006053437387095e-01
3.957115146261680483e-01 3.851326455490067247e-02
3.966731464963230702e-01 8.847111850619882034e-02
3.976347783664780366e-01 2.216698609997358460e-01
3.985964102366330586e-01 3.110123668716582301e-01
3.995580421067881360e-01 4.897049630217296112e-01
4.005196739769430470e-01 6.054302586882585047e-01
4.014813058470981244e-01 5.075759428685557850e-01
4.024429377172531463e-01 2.468370458577915372e-01
4.034045695874082238e-01 3.022239008564220342e-01
