# q (1/Angstrom), Intensity (arb)
2.067508526570814575e-02 7.155319418490679482e+02
2.163671713586316769e-02 7.426380873110401808e+02
2.259834900601819310e-02 7.662628988841674982e+02
2.355998087617321851e-02 7.784016080859903468e+02
2.452161274632824739e-02 7.820264101329607911e+02
2.548324461648326933e-02 7.854853953681520125e+02
2.644487648663829821e-02 7.844527141927197817e+02
2.740650835679332709e-02 7.806727223211647697e+02
2.836814022694834903e-02 7.795394705915058466e+02
2.932977209710337443e-02 7.796359590637223391e+02
3.029140396725839637e-02 7.732551804688081347e+02
3.125303583741342178e-02 7.670857257695182625e+02
3.221466770756845066e-02 7.608618390346692877e+02
3.317629957772347260e-02 7.542871444680332615e+02
3.413793144787850148e-02 7.479970946569567332e+02
3.509956331803352342e-02 7.447111953268253046e+02
3.606119518818855230e-02 7.382127457660619712e+02
3.702282705834358117e-02 7.299172422208890794e+02
3.798445892849860311e-02 7.178566741629356329e+02
3.894609079865363199e-02 7.087062359066555928e+02
3.990772266880865393e-02 7.050385835719994247e+02
4.086935453896367587e-02 6.964410027014563411e+02
4.183098640911870475e-02 6.852849947485975690e+02
4.279261827927372669e-02 6.761048833002415677e+02
4.375425014942875557e-02 6.612041834836783210e+02
4.471588201958377751e-02 6.517520416625962980e+02
4.567751388973880639e-02 6.428784694358553224e+02
4.663914575989382832e-02 6.295505340930428702e+02
4.760077763004885720e-02 6.193791514111627521e+02
4.856240950020387914e-02 6.123198154288926389e+02
4.952404137035890108e-02 6.005280627500635546e+02
5.048567324051392302e-02 5.882216642051995450e+02
5.144730511066895190e-02 5.740427850774302669e+02
5.240893698082397384e-02 5.610398109446895205e+02
5.337056885097899578e-02 5.496875679152968814e+02
5.433220072113403160e-02 5.352695945000576785e+02
5.529383259128905354e-02 5.186582621838948626e+02
5.625546446144407547e-02 5.054732327719578961e+02
5.721709633159910435e-02 4.930979009101581596e+02
5.817872820175412629e-02 4.805382864836078625e+02
5.914036007190914823e-02 4.683493934432430592e+02
6.010199194206417017e-02 4.535825693790932860e+02
6.106362381221920599e-02 4.411299836604814004e+02
6.202525568237422793e-02 4.272816742627328495e+02
6.298688755252924987e-02 4.135336547324452567e+02
6.394851942268428568e-02 4.024125234433633977e+02
6.491015129283930762e-02 3.904174822194332251e+02
6.587178316299432956e-02 3.771133555297279827e+02
6.683341503314935150e-02 3.641084546312199564e+02
6.779504690330438732e-02 3.521950261808432856e+02
6.875667877345940926e-02 3.405044313820779394e+02
6.971831064361443120e-02 3.296776980164287920e+02
7.067994251376945314e-02 3.183205735822119777e+02
7.164157438392447508e-02 3.052761302958234069e+02
7.260320625407949702e-02 2.955006317366537587e+02
7.356483812423453283e-02 2.851444472785580047e+02
7.452646999438955477e-02 2.740878093741529256e+02
7.548810186454457671e-02 2.627447713463173500e+02
7.644973373469959865e-02 2.519306731339955832e+02
7.741136560485463447e-02 2.430772399044705594e+02
7.837299747500965641e-02 2.327177576880953040e+02
7.933462934516467835e-02 2.223444355605823830e+02
8.029626121531971417e-02 2.132857263961444119e+02
8.125789308547473611e-02 2.043813917669026239e+02
8.221952495562975805e-02 1.960529301215827047e+02
8.318115682578479386e-02 1.874328938584814068e+02
8.414278869593981580e-02 1.778645919437355474e+02
8.510442056609483774e-02 1.692635489905373163e+02
8.606605243624985968e-02 1.611118756623879449e+02
8.702768430640489550e-02 1.521338762143393524e+02
8.798931617655991744e-02 1.447384017292195040e+02
8.895094804671493938e-02 1.378198628188108614e+02
8.991257991686996132e-02 1.305726982126925861e+02
9.087421178702498326e-02 1.239959662670138130e+02
9.183584365718000520e-02 1.181308460028184726e+02
9.279747552733502713e-02 1.116845570942002155e+02
9.375910739749006295e-02 1.053603475381573134e+02
9.472073926764508489e-02 9.870874143425504599e+01
9.568237113780010683e-02 9.230389897366141838e+01
9.664400300795514265e-02 8.763008057929650363e+01
9.760563487811016459e-02 8.209457905558173252e+01
9.856726674826518653e-02 7.774717053176973991e+01
9.952889861842022234e-02 7.277966300571215186e+01
1.004905304885752443e-01 6.790807938320911319e+01
1.014521623587302801e-01 6.255113740605261796e+01
1.024137942288853020e-01 5.792549560327201164e+01
1.033754260990403240e-01 5.453610568652002399e+01
1.043370579691953459e-01 5.087922976491614691e+01
1.052986898393503817e-01 4.679559489257232485e+01
1.062603217095053898e-01 4.371150579318402407e+01
1.072219535796604256e-01 3.987405428855834089e+01
1.081835854498154614e-01 3.677583230175644502e+01
1.091452173199704695e-01 3.387065903584625204e+01
1.101068491901255053e-01 3.110993925740545762e+01
1.110684810602805411e-01 2.807672660250419483e+01
1.120301129304355492e-01 2.556228511394276737e+01
1.129917448005905850e-01 2.369115154028560966e+01
1.139533766707456208e-01 2.172242535952766929e+01
1.149150085409006289e-01 1.924179685589007960e+01
1.158766404110556647e-01 1.764745422877627945e+01
1.168382722812106728e-01 1.591993829384570347e+01
1.177999041513657086e-01 1.360035948104912507e+01
1.187615360215207305e-01 1.211196076404401367e+01
1.197231678916757525e-01 1.063425040032668889e+01
1.206847997618307744e-01 9.269615301242016159e+00
1.216464316319858102e-01 8.501290175740834343e+00
1.226080635021408183e-01 8.090544579240123824e+00
1.235696953722958541e-01 6.848526116872864833e+00
1.245313272424508899e-01 5.731540013300460146e+00
1.254929591126059119e-01 4.932189080138037696e+00
1.264545909827609338e-01 4.438454245371545426e+00
1.274162228529159557e-01 3.980508419944008836e+00
1.283778547230709777e-01 3.117341363351492589e+00
1.293394865932259996e-01 2.479547004679890421e+00
1.303011184633810493e-01 2.058070328242060043e+00
1.312627503335360435e-01 1.870469913078668611e+00
1.322243822036910932e-01 1.731554594944867631e+00
1.331860140738460874e-01 1.600932283169793635e+00
1.341476459440011371e-01 1.478440691740487978e+00
1.351092778141561590e-01 1.219678860706711276e+00
1.360709096843111809e-01 8.771413050038709969e-01
1.370325415544662029e-01 1.367655924688907731e+00
1.379941734246212526e-01 1.208620178218854591e+00
1.389558052947762468e-01 1.576965916503315412e+00
1.399174371649312965e-01 1.846254576582595064e+00
1.408790690350863184e-01 1.566928619712921744e+00
1.418407009052413403e-01 1.737596592816409213e+00
1.428023327753963623e-01 1.654763550307901454e+00
1.437639646455513842e-01 1.898947426634940427e+00
1.447255965157064062e-01 2.236910798843744885e+00
1.456872283858614281e-01 2.413244438201513020e+00
1.466488602560164778e-01 2.538868253035850842e+00
1.476104921261714720e-01 2.666036147461472439e+00
1.485721239963265217e-01 3.136424518672431105e+00
1.495337558664815436e-01 3.457180765399144207e+00
1.504953877366365655e-01 3.575916489959475086e+00
1.514570196067915875e-01 3.836156653802898830e+00
1.524186514769466094e-01 4.384495870759582914e+00
1.533802833471016314e-01 4.522130769077151058e+00
1.543419152172566811e-01 4.529063992297498231e+00
1.553035470874116752e-01 4.754880342543902572e+00
1.562651789575667249e-01 4.707323719548778485e+00
1.572268108277217469e-01 5.045330092145647427e+00
1.581884426978767688e-01 5.296301094577831492e+00
1.591500745680317908e-01 5.474031830438718771e+00
1.601117064381868405e-01 5.563782387602465462e+00
1.610733383083418346e-01 5.988163576536592814e+00
1.620349701784968843e-01 6.366266906348116095e+00
1.629966020486519063e-01 5.883120097486028044e+00
1.639582339188069282e-01 5.779251407208118252e+00
1.649198657889619501e-01 6.331540348629307147e+00
1.658814976591169721e-01 6.184772373066376616e+00
1.668431295292719940e-01 6.258383387211154059e+00
1.678047613994270160e-01 6.656123721712088326e+00
1.687663932695820379e-01 6.482975252541361755e+00
1.697280251397370598e-01 6.489479775361658653e+00
1.706896570098921095e-01 6.757512047313145587e+00
1.716512888800471037e-01 7.034162633972570688e+00
1.726129207502021534e-01 7.168253883828317186e+00
1.735745526203571754e-01 6.966749704587748226e+00
1.745361844905121973e-01 6.981553881665647054e+00
1.754978163606672192e-01 7.023050004754463060e+00
1.764594482308222689e-01 6.809977793440229021e+00
1.774210801009772631e-01 6.655128712108808742e+00
1.783827119711323128e-01 6.442509238031018270e+00
1.793443438412873348e-01 6.207724476883178966e+00
1.803059757114423567e-01 6.232808971822088040e+00
1.812676075815973786e-01 6.276690933406719353e+00
1.822292394517524006e-01 6.329710105815760102e+00
1.831908713219074225e-01 6.097477539817496961e+00
1.841525031920624444e-01 5.920291536410712041e+00
1.851141350622174664e-01 6.064138872888751308e+00
1.860757669323724883e-01 5.719352091922367265e+00
1.870373988025275380e-01 5.581451513017032795e+00
1.879990306726825322e-01 5.540024238656982902e+00
1.889606625428375819e-01 5.172250695641746887e+00
1.899222944129926038e-01 5.071389725105756696e+00
1.908839262831476258e-01 5.091897990823518683e+00
1.918455581533026477e-01 5.056668756137920440e+00
1.928071900234576974e-01 4.656785537174432221e+00
1.937688218936126916e-01 4.323218329856633346e+00
1.947304537637677413e-01 4.425787585816379988e+00
1.956920856339227632e-01 4.368590887437729720e+00
1.966537175040777852e-01 4.163826054963486456e+00
1.976153493742328071e-01 3.794892187197405065e+00
1.985769812443878291e-01 3.817630867709858933e+00
1.995386131145428510e-01 3.591150635865250962e+00
2.005002449846978729e-01 3.105588790808099020e+00
2.014618768548528949e-01 3.220487398205392537e+00
2.024235087250079168e-01 3.349839647387035768e+00
2.033851405951629665e-01 3.219387069935113033e+00
2.043467724653179884e-01 2.878279605045268141e+00
2.053084043354730381e-01 2.472284751012871595e+00
2.062700362056280046e-01 2.476543805914236174e+00
2.072316680757830543e-01 2.304343988810366284e+00
2.081932999459380762e-01 2.120096512522120946e+00
2.091549318160931259e-01 1.997700633850506335e+00
2.101165636862481478e-01 1.849019756762757538e+00
2.110781955564031698e-01 1.738869946603752936e+00
2.120398274265581640e-01 1.761465029195800724e+00
2.130014592967132137e-01 1.823409955372081725e+00
2.139630911668682356e-01 1.694382810216058743e+00
2.149247230370232575e-01 1.249653242036171008e+00
2.158863549071783072e-01 8.524618898186560045e-01
2.168479867773333014e-01 6.400274945750616951e-01
2.178096186474883234e-01 6.777980072683256196e-01
2.187712505176433453e-01 8.424816011125635384e-01
2.197328823877983950e-01 7.243994043523969140e-01
2.206945142579534169e-01 6.395536865646853641e-01
2.216561461281084666e-01 6.223077424357867926e-01
2.226177779982634330e-01 6.780856398898791326e-01
2.235794098684184827e-01 5.396379630481327183e-01
2.245410417385735047e-01 5.055478380848619224e-01
2.255026736087285544e-01 5.750660963803859715e-01
2.264643054788835763e-01 5.043656397577542805e-01
2.274259373490385983e-01 5.535695959872839467e-01
2.283875692191935924e-01 4.664472551153124869e-01
2.293492010893486421e-01 3.563377789659973871e-01
2.303108329595036641e-01 3.307143526611753259e-01
2.312724648296586860e-01 2.623295487134846837e-01
2.322340966998137357e-01 3.685900477877694925e-01
2.331957285699687299e-01 3.117651377427499426e-01
2.341573604401237518e-01 8.587987543414854485e-02
2.351189923102787738e-01 1.808845800657081782e-01
2.360806241804338235e-01 1.890783271207538974e-01
2.370422560505888454e-01 1.015302655383827357e-01
2.380038879207438951e-01 4.062089311146159787e-01
2.389655197908988615e-01 3.857215922623957738e-01
2.399271516610539112e-01 1.600871337470266553e-01
2.408887835312089332e-01 2.255631449275981026e-01
2.418504154013639829e-01 1.706744087421441236e-02
2.428120472715190048e-01 4.811258179941546587e-02
2.437736791416740267e-01 2.000548028889603813e-01
2.447353110118290209e-01 5.568536529191874251e-01
2.456969428819840706e-01 7.064250255961113112e-01
2.466585747521390926e-01 4.896538097712230808e-01
2.476202066222941145e-01 2.760641169422370922e-01
2.485818384924491642e-01 4.087612478680071604e-01
2.495434703626041584e-01 5.248502061310382771e-01
2.505051022327591803e-01 6.780070870985959175e-01
2.514667341029142023e-01 6.890626580536931556e-01
2.524283659730692242e-01 6.064859608243970968e-01
2.533899978432243016e-01 6.366244277038255461e-01
2.543516297133793236e-01 6.954340965405734210e-01
2.553132615835342900e-01 5.521217490730307986e-01
2.562748934536893120e-01 5.603408710931248038e-01
2.572365253238443894e-01 6.686926280927707467e-01
2.581981571939994113e-01 7.439840655818201753e-01
2.591597890641544333e-01 7.881152587562816336e-01
2.601214209343094552e-01 9.695392168421541612e-01
2.610830528044644772e-01 1.103877590642909468e+00
2.620446846746194991e-01 1.021248731435008494e+00
2.630063165447745210e-01 1.309621645606355855e+00
2.639679484149295430e-01 1.317879267130201981e+00
2.649295802850845649e-01 1.060598334160140155e+00
2.658912121552395869e-01 9.133805845955151881e-01
2.668528440253946088e-01 6.775024585871030069e-01
2.678144758955496307e-01 9.396139398601484061e-01
2.687761077657046527e-01 9.451765323464513813e-01
2.697377396358597301e-01 1.029731444265877371e+00
2.706993715060147521e-01 1.072214929358914048e+00
2.716610033761697185e-01 1.107040644074348990e+00
2.726226352463247404e-01 1.133321798211905929e+00
2.735842671164798179e-01 1.352357970899110029e+00
2.745458989866348398e-01 1.273853339295627052e+00
2.755075308567898618e-01 1.226526885663833610e+00
2.764691627269448837e-01 1.007206145049902801e+00
2.774307945970999056e-01 8.156140720346307660e-01
2.783924264672549276e-01 8.762078443709881981e-01
2.793540583374099495e-01 7.544263542071689699e-01
2.803156902075649715e-01 8.150208936545304539e-01
2.812773220777199934e-01 8.914715767284597803e-01
2.822389539478750153e-01 1.006482597520207634e+00
2.832005858180300373e-01 1.062527804666331122e+00
2.841622176881850592e-01 1.081676956950484936e+00
2.851238495583400812e-01 1.114491554253586258e+00
2.860854814284951586e-01 8.791336044368627256e-01
2.870471132986501805e-01 8.557831895721612625e-01
2.880087451688051470e-01 7.625300721455410269e-01
2.889703770389601689e-01 5.689432211603815404e-01
2.899320089091152464e-01 5.453807192204358500e-01
2.908936407792702683e-01 9.956186821881622961e-01
2.918552726494252902e-01 8.791919737542457369e-01
2.928169045195803122e-01 7.474380018063975228e-01
2.937785363897353341e-01 6.726109585588453399e-01
2.947401682598903561e-01 8.254417477159528005e-01
2.957018001300453780e-01 8.579395485814629296e-01
2.966634320002003999e-01 8.425766177146805092e-01
2.976250638703554219e-01 7.677512340996770490e-01
2.985866957405104993e-01 5.978612436709695999e-01
2.995483276106654658e-01 5.237159280882934809e-01
3.005099594808204877e-01 6.111681706256320012e-01
3.014715913509755651e-01 5.225940541385512006e-01
3.024332232211305871e-01 3.779455079077180812e-01
3.033948550912856090e-01 2.273080544627674726e-01
3.043564869614405755e-01 2.471088047948164501e-01
3.053181188315956529e-01 5.530886921091564545e-01
3.062797507017506748e-01 2.843359801936706788e-01
3.072413825719056968e-01 3.568152079506141661e-01
3.082030144420607187e-01 3.203349603847414073e-01
3.091646463122157407e-01 4.015690343260480688e-01
3.101262781823707626e-01 5.346051887154317228e-01
3.110879100525257845e-01 4.823703310014053613e-01
3.120495419226808065e-01 1.842186423043337129e-01
3.130111737928358284e-01 9.750320960172942364e-02
3.139728056629909059e-01 9.419459659606133073e-02
3.149344375331459278e-01 1.421279337169742973e-01
3.158960694033008942e-01 1.765773160540149433e-01
3.168577012734559162e-01 4.248108349884311963e-01
3.178193331436109936e-01 4.226974815302284583e-01
3.187809650137660156e-01 3.336384926765312287e-01
3.197425968839210375e-01 2.024640067630336659e-01
3.207042287540760039e-01 2.137940088742666944e-01
3.216658606242310814e-01 4.142770385520044840e-01
3.226274924943861033e-01 3.736714859672396472e-01
3.235891243645411253e-01 2.427272100393942367e-01
3.245507562346961472e-01 2.389266781754244562e-01
3.255123881048511691e-01 1.125467441202268049e-01
3.264740199750061911e-01 9.303640590506390140e-02
3.274356518451612130e-01 2.007463410159786577e-01
3.283972837153162350e-01 1.984843110698619739e-01
3.293589155854712569e-01 6.283717829101220786e-02
3.303205474556263344e-01 1.390589371268831087e-01
3.312821793257813563e-01 2.547170163698666556e-01
3.322438111959363227e-01 6.291940166650178412e-02
3.332054430660913447e-01 7.918966627844170603e-02
3.341670749362464221e-01 4.284199121065732641e-01
3.351287068064014441e-01 5.120734121560452934e-01
3.360903386765564660e-01 4.691636452988099393e-01
3.370519705467114324e-01 3.677498365769125144e-01
3.380136024168665099e-01 4.108083230532706409e-01
3.389752342870215318e-01 5.354882124098878649e-01
3.399368661571765537e-01 4.020280158461027042e-01
3.408984980273315757e-01 1.849306273452846483e-01
3.418601298974865976e-01 3.590314565098999822e-01
3.428217617676416196e-01 4.164721076731616733e-01
3.437833936377966415e-01 3.985114231621800229e-01
3.447450255079516634e-01 2.455032776244721049e-01
3.457066573781066854e-01 9.522559120597406945e-02
3.466682892482617628e-01 2.156628550275598855e-01
3.476299211184167848e-01 2.794954370110502850e-01
3.485915529885717512e-01 2.586827673918250525e-01
3.495531848587267731e-01 4.197198463490217080e-01
3.505148167288818506e-01 3.395447572815548654e-01
3.514764485990368725e-01 3.255439417077568010e-01
3.524380804691918945e-01 3.225833839231100342e-01
3.533997123393468609e-01 3.824200636072596637e-01
3.543613442095019384e-01 4.149116494035922642e-01
3.553229760796569603e-01 3.404742104798472724e-01
3.562846079498119822e-01 3.905440688715451358e-01
3.572462398199670042e-01 4.429484631497366820e-01
3.582078716901220261e-01 3.219713372102965820e-01
3.591695035602770480e-01 4.305966448051457007e-01
3.601311354304320700e-01 5.055736216708197617e-01
3.610927673005870919e-01 3.312736862696716855e-01
3.620543991707421139e-01 5.198256586086031916e-01
3.630160310408971913e-01 7.772447517217067059e-01
3.639776629110522133e-01 6.512325636720568411e-01
3.649392947812071797e-01 5.720895134040802077e-01
3.659009266513622016e-01 5.027588906043547468e-01
3.668625585215172791e-01 4.279956916019820312e-01
3.678241903916723010e-01 3.413868291402337718e-01
3.687858222618273230e-01 5.497839162751567699e-01
3.697474541319822894e-01 6.140469456902231116e-01
3.707090860021373668e-01 5.106817036618416239e-01
3.716707178722923888e-01 5.422369615186894976e-01
3.726323497424474107e-01 4.992440620916269722e-01
3.735939816126024327e-01 4.260672678933268287e-01
3.745556134827574546e-01 3.626293029446863159e-01
3.755172453529124765e-01 5.815902565346178221e-01
3.764788772230674985e-01 3.405214584656341970e-01
3.774405090932225204e-01 4.710692380001617607e-01
3.784021409633775423e-01 4.336278475790287246e-01
3.793637728335326198e-01 3.642835086141964496e-01
3.803254047036876417e-01 6.059828010236962825e-01
3.812870365738426082e-01 6.525188520373177425e-01
3.822486684439976301e-01 3.578351276264228886e-01
3.832103003141527076e-01 4.014275733648950961e-01
3.841719321843077295e-01 5.738518246003749823e-01
3.851335640544627514e-01 4.564604403726484350e-01
3.860951959246177734e-01 4.664128662532185388e-01
3.870568277947727953e-01 4.647741891416323767e-01
3.880184596649278173e-01 3.008976970658494565e-01
3.889800915350828392e-01 3.597947830904111299e-01
3.899417234052378611e-01 4.802533194535172356e-01
3.909033552753928831e-01 4.172738680179080006e-01
3.918649871455479050e-01 3.895013565329747962e-01
3.928266190157029270e-01 3.917986722316726400e-01
3.937882508858579489e-01 3.694513549200806324e-01
3.947498827560129708e-01 2.411809166150185035e-01
3.957115146261680483e-01 2.480379802712953108e-01
3.966731464963230702e-01 3.308015828037866868e-01
3.976347783664780366e-01 2.165707912486887210e-01
3.985964102366330586e-01 2.690501761916159751e-01
3.995580421067881360e-01 2.366316144487541351e-01
4.005196739769430470e-01 2.006006624024969653e-01
4.014813058470981244e-01 2.961073302452597034e-01
4.024429377172531463e-01 3.181074812543904784e-01
4.034045695874082238e-01 2.614938923837293316e-01
