# q (1/Angstrom), Intensity (arb)
2.067508526570814575e-02 7.111776123078461751e+02
2.163671713586316769e-02 7.455293165099017187e+02
2.259834900601819310e-02 7.709501285243359234e+02
2.355998087617321851e-02 7.805153279421683692e+02
2.452161274632824739e-02 7.861247040929658851e+02
2.548324461648326933e-02 7.886409762409710993e+02
2.644487648663829821e-02 7.894132472103226519e+02
2.740650835679332709e-02 7.855554299283710407e+02
2.836814022694834903e-02 7.816160199073873400e+02
2.932977209710337443e-02 7.787391409692535262e+02
3.029140396725839637e-02 7.726541069140238278e+02
3.125303583741342178e-02 7.661514612166358802e+02
3.221466770756845066e-02 7.633797906339923429e+02
3.317629957772347260e-02 7.547579746112214707e+02
3.413793144787850148e-02 7.495382021740260825e+02
3.509956331803352342e-02 7.439968447899636885e+02
3.606119518818855230e-02 7.377223269981653857e+02
3.702282705834358117e-02 7.298423661911778026e+02
3.798445892849860311e-02 7.186672104251848623e+02
3.894609079865363199e-02 7.075381933448261407e+02
3.990772266880865393e-02 7.040553098782203278e+02
4.086935453896367587e-02 6.982873588574768746e+02
4.183098640911870475e-02 6.866975977143018781e+02
4.279261827927372669e-02 6.760591384843296510e+02
4.375425014942875557e-02 6.640606477273057635e+02
4.471588201958377751e-02 6.527469754085271916e+02
4.567751388973880639e-02 6.447237297049410927e+02
4.663914575989382832e-02 6.344388656550565884e+02
4.760077763004885720e-02 6.234313695886609139e+02
4.856240950020387914e-02 6.108985129316815801e+02
4.952404137035890108e-02 5.982135104065723681e+02
5.048567324051392302e-02 5.872394340282124858e+02
5.144730511066895190e-02 5.776967201176380513e+02
5.240893698082397384e-02 5.656078870822582303e+02
5.337056885097899578e-02 5.509097151603341445e+02
5.433220072113403160e-02 5.359528997600890534e+02
5.529383259128905354e-02 5.218525114615630400e+02
5.625546446144407547e-02 5.094992869906701571e+02
5.721709633159910435e-02 4.963665548774646936e+02
5.817872820175412629e-02 4.825273435753787226e+02
5.914036007190914823e-02 4.696821958218184250e+02
6.010199194206417017e-02 4.562414979195547176e+02
6.106362381221920599e-02 4.440087682980716863e+02
6.202525568237422793e-02 4.287063160968363036e+02
6.298688755252924987e-02 4.169448645059295586e+02
6.394851942268428568e-02 4.062922257151698773e+02
6.491015129283930762e-02 3.937976339551963747e+02
6.587178316299432956e-02 3.801084358485578036e+02
6.683341503314935150e-02 3.677516029148351890e+02
6.779504690330438732e-02 3.553954156866471976e+02
6.875667877345940926e-02 3.425598570274661370e+02
6.971831064361443120e-02 3.306093363572012436e+02
7.067994251376945314e-02 3.196332463431439805e+02
7.164157438392447508e-02 3.082799553210136878e+02
7.260320625407949702e-02 2.953098656349216640e+02
7.356483812423453283e-02 2.842611508520953976e+02
7.452646999438955477e-02 2.758040425451504234e+02
7.548810186454457671e-02 2.639951443932898769e+02
7.644973373469959865e-02 2.538857629106611000e+02
7.741136560485463447e-02 2.436890871423775877e+02
7.837299747500965641e-02 2.341050513038742338e+02
7.933462934516467835e-02 2.239314911604694487e+02
8.029626121531971417e-02 2.139411075439081458e+02
8.125789308547473611e-02 2.043178623484189984e+02
8.221952495562975805e-02 1.952383739379922645e+02
8.318115682578479386e-02 1.851658661875625569e+02
8.414278869593981580e-02 1.778586167796673578e+02
8.510442056609483774e-02 1.698823328260059213e+02
8.606605243624985968e-02 1.631761399274188591e+02
8.702768430640489550e-02 1.555625236667310674e+02
8.798931617655991744e-02 1.468579909686309577e+02
8.895094804671493938e-02 1.398346336228724738e+02
8.991257991686996132e-02 1.330125641421092553e+02
9.087421178702498326e-02 1.257436930432109250e+02
9.183584365718000520e-02 1.183854279696599150e+02
9.279747552733502713e-02 1.123383411979812649e+02
9.375910739749006295e-02 1.058043559134103049e+02
9.472073926764508489e-02 9.976197940990635971e+01
9.568237113780010683e-02 9.357271730410731436e+01
9.664400300795514265e-02 8.756187412687881988e+01
9.760563487811016459e-02 8.290910657622569602e+01
9.856726674826518653e-02 7.825041039040718260e+01
9.952889861842022234e-02 7.295723258418028934e+01
1.004905304885752443e-01 6.814022905305824906e+01
1.014521623587302801e-01 6.370911045374954540e+01
1.024137942288853020e-01 5.905478644681141276e+01
1.033754260990403240e-01 5.539616892899351797e+01
1.043370579691953459e-01 5.097441653090906044e+01
1.052986898393503817e-01 4.749454386959420304e+01
1.062603217095053898e-01 4.402987432689984360e+01
1.072219535796604256e-01 4.028242779364261850e+01
1.081835854498154614e-01 3.752368754208188051e+01
1.091452173199704695e-01 3.458076278967164541e+01
1.101068491901255053e-01 3.210938430216820905e+01
1.110684810602805411e-01 2.852776822502030996e+01
1.120301129304355492e-01 2.643299881656365358e+01
1.129917448005905850e-01 2.471486545585711525e+01
1.139533766707456208e-01 2.295998448561581640e+01
1.149150085409006289e-01 2.040112778545476502e+01
1.158766404110556647e-01 1.825401971617782593e+01
1.168382722812106728e-01 1.646289222427483878e+01
1.177999041513657086e-01 1.493392302396401661e+01
1.187615360215207305e-01 1.319185102758680372e+01
1.197231678916757525e-01 1.129777530605436198e+01
1.206847997618307744e-01 1.010086562429561496e+01
1.216464316319858102e-01 9.021369079831544013e+00
1.226080635021408183e-01 8.303840678071150450e+00
1.235696953722958541e-01 7.111784490570464357e+00
1.245313272424508899e-01 6.570767581518236256e+00
1.254929591126059119e-01 5.537451805337582300e+00
1.264545909827609338e-01 4.785122774242687171e+00
1.274162228529159557e-01 4.335821515750367894e+00
1.283778547230709777e-01 3.213563436589293332e+00
1.293394865932259996e-01 2.626647664308112695e+00
1.303011184633810493e-01 2.619431296716406621e+00
1.312627503335360435e-01 2.472730732256671615e+00
1.322243822036910932e-01 2.203902130047055152e+00
1.331860140738460874e-01 2.026644241862509688e+00
1.341476459440011371e-01 1.749792720061194018e+00
1.351092778141561590e-01 1.272804605423431212e+00
1.360709096843111809e-01 1.577576876107027459e+00
1.370325415544662029e-01 1.816998908893513232e+00
1.379941734246212526e-01 1.782404379867696065e+00
1.389558052947762468e-01 1.583311761242857330e+00
1.399174371649312965e-01 1.735682481622625062e+00
1.408790690350863184e-01 1.889253502986658617e+00
1.418407009052413403e-01 2.177981615957854444e+00
1.428023327753963623e-01 2.037876286773553147e+00
1.437639646455513842e-01 2.041852626870412024e+00
1.447255965157064062e-01 1.896323329756484100e+00
1.456872283858614281e-01 1.972831970640207544e+00
1.466488602560164778e-01 2.458214006976426447e+00
1.476104921261714720e-01 2.721088049144359644e+00
1.485721239963265217e-01 3.066014593014191547e+00
1.495337558664815436e-01 3.321533854251818241e+00
1.504953877366365655e-01 3.852873204918424221e+00
1.514570196067915875e-01 4.115096532475298829e+00
1.524186514769466094e-01 4.076888477816464018e+00
1.533802833471016314e-01 4.332457555280392114e+00
1.543419152172566811e-01 4.259796469863047719e+00
1.553035470874116752e-01 4.570947336325410504e+00
1.562651789575667249e-01 5.059839171075118713e+00
1.572268108277217469e-01 5.463081233897099764e+00
1.581884426978767688e-01 5.801941043163992617e+00
1.591500745680317908e-01 5.641468590487466628e+00
1.601117064381868405e-01 5.956817328784893562e+00
1.610733383083418346e-01 6.154744207547818036e+00
1.620349701784968843e-01 6.131597464475198933e+00
1.629966020486519063e-01 6.296503742466565967e+00
1.639582339188069282e-01 6.799094143268920476e+00
1.649198657889619501e-01 6.963956500565455343e+00
1.658814976591169721e-01 7.113212627565147272e+00
1.668431295292719940e-01 7.054737123569577051e+00
1.678047613994270160e-01 6.901081708570689699e+00
1.687663932695820379e-01 7.081934149964823177e+00
1.697280251397370598e-01 7.280403175233349344e+00
1.706896570098921095e-01 7.186111509252572915e+00
1.716512888800471037e-01 7.069056274273133766e+00
1.726129207502021534e-01 7.366894881392127559e+00
1.735745526203571754e-01 7.374160420208902167e+00
1.745361844905121973e-01 7.179950008511234216e+00
1.754978163606672192e-01 7.060737745415451627e+00
1.764594482308222689e-01 7.091581893453550833e+00
1.774210801009772631e-01 7.044253384669595164e+00
1.783827119711323128e-01 6.932142752731000002e+00
1.793443438412873348e-01 6.986522168439808667e+00
1.803059757114423567e-01 6.893419236076713474e+00
1.812676075815973786e-01 6.877100606661706195e+00
1.822292394517524006e-01 6.807187783203080045e+00
1.831908713219074225e-01 6.606514995306447702e+00
1.841525031920624444e-01 6.094185731315935328e+00
1.851141350622174664e-01 6.192376515582854068e+00
1.860757669323724883e-01 5.922339541151892206e+00
1.870373988025275380e-01 5.901033316210455126e+00
1.879990306726825322e-01 5.897841723792865309e+00
1.889606625428375819e-01 5.820556013832629105e+00
1.899222944129926038e-01 5.594147465997416191e+00
1.908839262831476258e-01 5.728796220738573197e+00
1.918455581533026477e-01 5.393836055854841049e+00
1.928071900234576974e-01 4.883989917707818762e+00
1.937688218936126916e-01 4.717065625766785786e+00
1.947304537637677413e-01 4.912715349135705623e+00
1.956920856339227632e-01 4.672604643244383738e+00
1.966537175040777852e-01 4.383790474495107503e+00
1.976153493742328071e-01 4.145536424585696267e+00
1.985769812443878291e-01 3.906317726490851072e+00
1.995386131145428510e-01 3.957282420821552904e+00
2.005002449846978729e-01 3.786077534841762571e+00
2.014618768548528949e-01 3.641734893851211297e+00
2.024235087250079168e-01 2.905143064374570372e+00
2.033851405951629665e-01 3.134553213012754469e+00
2.043467724653179884e-01 2.876927483986015943e+00
2.053084043354730381e-01 2.608659368810144485e+00
2.062700362056280046e-01 2.865456681267751549e+00
2.072316680757830543e-01 2.573889929271643950e+00
2.081932999459380762e-01 2.112902678289135139e+00
2.091549318160931259e-01 2.161728778657849404e+00
2.101165636862481478e-01 2.206382492043960752e+00
2.110781955564031698e-01 1.738918861171921293e+00
2.120398274265581640e-01 1.679183842550347805e+00
2.130014592967132137e-01 1.430009673844001128e+00
2.139630911668682356e-01 1.286616447425249277e+00
2.149247230370232575e-01 1.307651272148810051e+00
2.158863549071783072e-01 1.355297605919624004e+00
2.168479867773333014e-01 1.577238581866478029e+00
2.178096186474883234e-01 1.269337711233898602e+00
2.187712505176433453e-01 8.612276525832562868e-01
2.197328823877983950e-01 1.041115840497823797e+00
2.206945142579534169e-01 8.188110768921674776e-01
2.216561461281084666e-01 7.980538913137138479e-01
2.226177779982634330e-01 7.318178681318379120e-01
2.235794098684184827e-01 7.310505317805002790e-01
2.245410417385735047e-01 7.163926273510590192e-01
2.255026736087285544e-01 7.072833819376533881e-01
2.264643054788835763e-01 5.435408636707315111e-01
2.274259373490385983e-01 5.377419223740922405e-01
2.283875692191935924e-01 7.966763280607587205e-01
2.293492010893486421e-01 6.515058321514004547e-01
2.303108329595036641e-01 2.626943717177994131e-01
2.312724648296586860e-01 3.335594778842896346e-01
2.322340966998137357e-01 3.375807059871611671e-01
2.331957285699687299e-01 3.501018779175559814e-01
2.341573604401237518e-01 5.909463824529694875e-01
2.351189923102787738e-01 7.025272822127703876e-01
2.360806241804338235e-01 5.567858838671213562e-01
2.370422560505888454e-01 4.649752691781152691e-01
2.380038879207438951e-01 4.102353577181219180e-01
2.389655197908988615e-01 4.773032509408992041e-01
2.399271516610539112e-01 5.505293722074284801e-01
2.408887835312089332e-01 4.626768891601642508e-01
2.418504154013639829e-01 3.893602769431439015e-01
2.428120472715190048e-01 5.623778663172842585e-01
2.437736791416740267e-01 8.544533274740224726e-01
2.447353110118290209e-01 6.683112213089614784e-01
2.456969428819840706e-01 7.250338473581479093e-01
2.466585747521390926e-01 6.792888851948077900e-01
2.476202066222941145e-01 6.124321173926752238e-01
2.485818384924491642e-01 5.567047010902150816e-01
2.495434703626041584e-01 5.902240871545316736e-01
2.505051022327591803e-01 6.019321831519413024e-01
2.514667341029142023e-01 6.334883652834406575e-01
2.524283659730692242e-01 7.786219960036717680e-01
2.533899978432243016e-01 9.172196799448038007e-01
2.543516297133793236e-01 8.742951849468205694e-01
2.553132615835342900e-01 1.033641046958607035e+00
2.562748934536893120e-01 1.169079488681418866e+00
2.572365253238443894e-01 1.212495566145900483e+00
2.581981571939994113e-01 1.307866104932919882e+00
2.591597890641544333e-01 1.233342191532447174e+00
2.601214209343094552e-01 1.143332565850368354e+00
2.610830528044644772e-01 1.123756604882142796e+00
2.620446846746194991e-01 1.080937387063595878e+00
2.630063165447745210e-01 9.655299182845631378e-01
2.639679484149295430e-01 1.026474706266597536e+00
2.649295802850845649e-01 1.188922253691512054e+00
2.658912121552395869e-01 1.007243176268623586e+00
2.668528440253946088e-01 1.099586556817897076e+00
2.678144758955496307e-01 1.216421671874467592e+00
2.687761077657046527e-01 1.207467636372996367e+00
2.697377396358597301e-01 1.346383509492220298e+00
2.706993715060147521e-01 1.079100123978669501e+00
2.716610033761697185e-01 9.496897420101184650e-01
2.726226352463247404e-01 1.231704781522640957e+00
2.735842671164798179e-01 1.316337850462705461e+00
2.745458989866348398e-01 1.290728033984549938e+00
2.755075308567898618e-01 1.276257786119579407e+00
2.764691627269448837e-01 1.280313364118843111e+00
2.774307945970999056e-01 1.372652562722887382e+00
2.783924264672549276e-01 1.276304014031108380e+00
2.793540583374099495e-01 1.188244434165405039e+00
2.803156902075649715e-01 1.115686636505682117e+00
2.812773220777199934e-01 1.228679740505931761e+00
2.822389539478750153e-01 1.294401829681635974e+00
2.832005858180300373e-01 1.101101114749699406e+00
2.841622176881850592e-01 1.007445417084301909e+00
2.851238495583400812e-01 1.257475132729837242e+00
2.860854814284951586e-01 1.320480807354513786e+00
2.870471132986501805e-01 1.151892341275441822e+00
2.880087451688051470e-01 1.150128659387593899e+00
2.889703770389601689e-01 1.158312908386218254e+00
2.899320089091152464e-01 1.112118649530415837e+00
2.908936407792702683e-01 9.871299771463455386e-01
2.918552726494252902e-01 9.781279752981433262e-01
2.928169045195803122e-01 1.013067254608092327e+00
2.937785363897353341e-01 1.016537794965824304e+00
2.947401682598903561e-01 7.986860019440413794e-01
2.957018001300453780e-01 9.204266855808498349e-01
2.966634320002003999e-01 9.370186714744619394e-01
2.976250638703554219e-01 8.217390175315202328e-01
2.985866957405104993e-01 6.405601928309643256e-01
2.995483276106654658e-01 8.288668203500648701e-01
3.005099594808204877e-01 8.367539228300380216e-01
3.014715913509755651e-01 6.082978792571331894e-01
3.024332232211305871e-01 6.649816003936166453e-01
3.033948550912856090e-01 6.554114725937374430e-01
3.043564869614405755e-01 5.204104836454348515e-01
3.053181188315956529e-01 6.257225876672620757e-01
3.062797507017506748e-01 6.168603997218760071e-01
3.072413825719056968e-01 5.872454367966639666e-01
3.082030144420607187e-01 4.116684108975263712e-01
3.091646463122157407e-01 5.580688987148363367e-01
3.101262781823707626e-01 5.675692511198882073e-01
3.110879100525257845e-01 4.276907319710261390e-01
3.120495419226808065e-01 6.293498645516990564e-01
3.130111737928358284e-01 1.060999038930752647e+00
3.139728056629909059e-01 8.521920041165600423e-01
3.149344375331459278e-01 5.910395131447607753e-01
3.158960694033008942e-01 3.907197357169565066e-01
3.168577012734559162e-01 5.075864773502409832e-01
3.178193331436109936e-01 5.266174825564959860e-01
3.187809650137660156e-01 6.529485517699349373e-01
3.197425968839210375e-01 4.655127695858922721e-01
3.207042287540760039e-01 3.284914537203498242e-01
3.216658606242310814e-01 0.000000000000000000e+00
3.226274924943861033e-01 1.330400759763108454e-01
3.235891243645411253e-01 3.806678941903243185e-01
3.245507562346961472e-01 4.064407170335471164e-01
3.255123881048511691e-01 3.254358902233320805e-01
3.264740199750061911e-01 4.930638021016555683e-01
3.274356518451612130e-01 6.573193557346783678e-01
3.283972837153162350e-01 7.236888069854536809e-01
3.293589155854712569e-01 5.627623294013481825e-01
3.303205474556263344e-01 4.537116526596634003e-01
3.312821793257813563e-01 3.629786191528836525e-01
3.322438111959363227e-01 3.476127371227732965e-01
3.332054430660913447e-01 5.049879752389934140e-01
3.341670749362464221e-01 5.992276512207190819e-01
3.351287068064014441e-01 5.744913773103128563e-01
3.360903386765564660e-01 3.707770361193993836e-01
3.370519705467114324e-01 4.034520846684479523e-01
3.380136024168665099e-01 6.289309725043317201e-01
3.389752342870215318e-01 5.565758404892591216e-01
3.399368661571765537e-01 3.117166311555799041e-01
3.408984980273315757e-01 4.279161252282897010e-01
3.418601298974865976e-01 5.526270203530110336e-01
3.428217617676416196e-01 6.023348923824336509e-01
3.437833936377966415e-01 6.729443159075714220e-01
3.447450255079516634e-01 6.827257000295468004e-01
3.457066573781066854e-01 6.737499868407930137e-01
3.466682892482617628e-01 5.574811291359935694e-01
3.476299211184167848e-01 4.865581693584601908e-01
3.485915529885717512e-01 5.022148479494958906e-01
3.495531848587267731e-01 5.198863123341226355e-01
3.505148167288818506e-01 5.077465605956028583e-01
3.514764485990368725e-01 7.350112860005211246e-01
3.524380804691918945e-01 5.412501135168774624e-01
3.533997123393468609e-01 4.632055896941764672e-01
3.543613442095019384e-01 5.094274485237981764e-01
3.553229760796569603e-01 5.582030551777847904e-01
3.562846079498119822e-01 5.670721840649157741e-01
3.572462398199670042e-01 6.919631045596155161e-01
3.582078716901220261e-01 7.799101583858636388e-01
3.591695035602770480e-01 6.331250734888094200e-01
3.601311354304320700e-01 4.938672232417502528e-01
3.610927673005870919e-01 4.840626387896023175e-01
3.620543991707421139e-01 4.654144106011202098e-01
3.630160310408971913e-01 4.018939806773822454e-01
3.639776629110522133e-01 4.040502078066126046e-01
3.649392947812071797e-01 3.385033729228901223e-01
3.659009266513622016e-01 4.854738634406672304e-01
3.668625585215172791e-01 5.411290970864222061e-01
3.678241903916723010e-01 5.834332842809857311e-01
3.687858222618273230e-01 4.444006216203391091e-01
3.697474541319822894e-01 4.761457324377467160e-01
3.707090860021373668e-01 6.669250101890789040e-01
3.716707178722923888e-01 5.487344388270436468e-01
3.726323497424474107e-01 5.242268786914188183e-01
3.735939816126024327e-01 7.770498344818363989e-01
3.745556134827574546e-01 7.071185009568310420e-01
3.755172453529124765e-01 6.093565535486824558e-01
3.764788772230674985e-01 4.727020515354425356e-01
3.774405090932225204e-01 6.663143338030863561e-01
3.784021409633775423e-01 7.212282474165228052e-01
3.793637728335326198e-01 6.364626619470534763e-01
3.803254047036876417e-01 5.463487430816194035e-01
3.812870365738426082e-01 6.378014442533483930e-01
3.822486684439976301e-01 7.098597705539546610e-01
3.832103003141527076e-01 7.963295539739085882e-01
3.841719321843077295e-01 5.254455350151552295e-01
3.851335640544627514e-01 6.399000801479601819e-01
3.860951959246177734e-01 5.980430177127686875e-01
3.870568277947727953e-01 4.651169339219656251e-01
3.880184596649278173e-01 4.067976675004878473e-01
3.889800915350828392e-01 3.027780733889855469e-01
3.899417234052378611e-01 4.499091424080354784e-01
3.909033552753928831e-01 7.073404552553093083e-01
3.918649871455479050e-01 8.774664925281108196e-01
3.928266190157029270e-01 7.324605793326384173e-01
3.937882508858579489e-01 6.219421886542910727e-01
3.947498827560129708e-01 4.745666991002224222e-01
3.957115146261680483e-01 5.118659892047681126e-01
3.966731464963230702e-01 4.779965067540459245e-01
3.976347783664780366e-01 5.667143364675162331e-01
3.985964102366330586e-01 4.598550896351589756e-01
3.995580421067881360e-01 5.402007606002605655e-01
4.005196739769430470e-01 5.575699187864486817e-01
4.014813058470981244e-01 6.620043901006056331e-01
4.024429377172531463e-01 6.453398199848336958e-01
4.034045695874082238e-01 4.961498845441383310e-01
