# q (1/Angstrom), Intensity (arb)
2.067508526570814575e-02 6.872485280381157509e+02
2.163671713586316769e-02 7.212302555156591097e+02
2.259834900601819310e-02 7.450516368008333075e+02
2.355998087617321851e-02 7.562505956207755844e+02
2.452161274632824739e-02 7.614649313987838468e+02
2.548324461648326933e-02 7.624124113749342087e+02
2.644487648663829821e-02 7.619998440692004351e+02
2.740650835679332709e-02 7.591890800423876726e+02
2.836814022694834903e-02 7.561778880414957484e+02
2.932977209710337443e-02 7.520804956740242915e+02
3.029140396725839637e-02 7.464344107027579867e+02
3.125303583741342178e-02 7.407562251217548237e+02
3.221466770756845066e-02 7.391588818216159780e+02
3.317629957772347260e-02 7.339959740824717755e+02
3.413793144787850148e-02 7.284823181021985192e+02
3.509956331803352342e-02 7.194683642291977321e+02
3.606119518818855230e-02 7.157818744378531619e+02
3.702282705834358117e-02 7.075126361981001537e+02
3.798445892849860311e-02 7.006171965609630661e+02
3.894609079865363199e-02 6.920329253297938976e+02
3.990772266880865393e-02 6.838364699636405248e+02
4.086935453896367587e-02 6.749240671399871871e+02
4.183098640911870475e-02 6.648847138386121287e+02
4.279261827927372669e-02 6.560245715922458203e+02
4.375425014942875557e-02 6.450676970614026686e+02
4.471588201958377751e-02 6.346346817073640523e+02
4.567751388973880639e-02 6.253032896463186034e+02
4.663914575989382832e-02 6.164841224130002502e+02
4.760077763004885720e-02 6.047874094022084819e+02
4.856240950020387914e-02 5.942444720189396321e+02
4.952404137035890108e-02 5.844646906905522883e+02
5.048567324051392302e-02 5.729669234680281988e+02
5.144730511066895190e-02 5.615581982224991862e+02
5.240893698082397384e-02 5.499351352696039612e+02
5.337056885097899578e-02 5.368142468783983077e+02
5.433220072113403160e-02 5.245702435945644311e+02
5.529383259128905354e-02 5.110456229304362523e+02
5.625546446144407547e-02 4.992255559959417610e+02
5.721709633159910435e-02 4.875066994956425788e+02
5.817872820175412629e-02 4.727386097253238972e+02
5.914036007190914823e-02 4.584175165733412314e+02
6.010199194206417017e-02 4.477271906275053652e+02
6.106362381221920599e-02 4.365298944902027642e+02
6.202525568237422793e-02 4.238775556600924688e+02
6.298688755252924987e-02 4.112355216210269191e+02
6.394851942268428568e-02 3.987620092113601800e+02
6.491015129283930762e-02 3.875113452638926219e+02
6.587178316299432956e-02 3.740362895631191122e+02
6.683341503314935150e-02 3.625112268161157090e+02
6.779504690330438732e-02 3.512339906845892870e+02
6.875667877345940926e-02 3.403790885244301876e+02
6.971831064361443120e-02 3.284071053264949569e+02
7.067994251376945314e-02 3.161548075396427180e+02
7.164157438392447508e-02 3.051896718684182588e+02
7.260320625407949702e-02 2.956465949941734834e+02
7.356483812423453283e-02 2.862118299855492864e+02
7.452646999438955477e-02 2.755045905098828598e+02
7.548810186454457671e-02 2.642847272647450154e+02
7.644973373469959865e-02 2.546594568861610242e+02
7.741136560485463447e-02 2.463347322945878375e+02
7.837299747500965641e-02 2.352211459544968477e+02
7.933462934516467835e-02 2.261239355267689177e+02
8.029626121531971417e-02 2.171681520568454857e+02
8.125789308547473611e-02 2.076909527952775534e+02
8.221952495562975805e-02 1.983172775759020681e+02
8.318115682578479386e-02 1.895829687075815002e+02
8.414278869593981580e-02 1.807938122272539374e+02
8.510442056609483774e-02 1.731133254428299608e+02
8.606605243624985968e-02 1.650686225686699800e+02
8.702768430640489550e-02 1.571788424546166709e+02
8.798931617655991744e-02 1.497780639065385628e+02
8.895094804671493938e-02 1.422277280334312195e+02
8.991257991686996132e-02 1.353962012834292352e+02
9.087421178702498326e-02 1.291218549207043793e+02
9.183584365718000520e-02 1.220996791572156894e+02
9.279747552733502713e-02 1.156992076292380744e+02
9.375910739749006295e-02 1.094831544560488226e+02
9.472073926764508489e-02 1.031406609059855839e+02
9.568237113780010683e-02 9.719309949692036810e+01
9.664400300795514265e-02 9.198399301747849677e+01
9.760563487811016459e-02 8.642800453366474756e+01
9.856726674826518653e-02 8.127899230712139911e+01
9.952889861842022234e-02 7.666482940664998580e+01
1.004905304885752443e-01 7.160683209556304973e+01
1.014521623587302801e-01 6.620294590225660158e+01
1.024137942288853020e-01 6.170290843895047317e+01
1.033754260990403240e-01 5.767617824922957936e+01
1.043370579691953459e-01 5.416957143733411328e+01
1.052986898393503817e-01 5.028588563808989420e+01
1.062603217095053898e-01 4.674380264127160700e+01
1.072219535796604256e-01 4.354135046014192767e+01
1.081835854498154614e-01 4.110500900470705687e+01
1.091452173199704695e-01 3.719465133109465427e+01
1.101068491901255053e-01 3.381837999992546884e+01
1.110684810602805411e-01 3.169285107931455059e+01
1.120301129304355492e-01 2.896945456459843982e+01
1.129917448005905850e-01 2.614379620267765603e+01
1.139533766707456208e-01 2.393806398228388232e+01
1.149150085409006289e-01 2.175562857952633422e+01
1.158766404110556647e-01 2.032003223144712223e+01
1.168382722812106728e-01 1.823322495352022443e+01
1.177999041513657086e-01 1.602033517510436056e+01
1.187615360215207305e-01 1.455790112571466466e+01
1.197231678916757525e-01 1.314193170762152008e+01
1.206847997618307744e-01 1.157366503967805471e+01
1.216464316319858102e-01 1.057860388634158966e+01
1.226080635021408183e-01 9.598185379718664478e+00
1.235696953722958541e-01 8.334726611213920222e+00
1.245313272424508899e-01 7.158864201600348309e+00
1.254929591126059119e-01 6.324524746947663090e+00
1.264545909827609338e-01 5.754807074690788227e+00
1.274162228529159557e-01 4.877224694922155379e+00
1.283778547230709777e-01 4.041990895119383254e+00
1.293394865932259996e-01 3.553588507838348676e+00
1.303011184633810493e-01 3.193073734549585652e+00
1.312627503335360435e-01 2.706768304195449559e+00
1.322243822036910932e-01 2.591398108898992803e+00
1.331860140738460874e-01 2.312623299380856423e+00
1.341476459440011371e-01 2.020749948315543776e+00
1.351092778141561590e-01 1.610643742626969299e+00
1.360709096843111809e-01 1.580433678355515070e+00
1.370325415544662029e-01 1.430264125585225088e+00
1.379941734246212526e-01 1.337962665332494083e+00
1.389558052947762468e-01 1.349558800371440270e+00
1.399174371649312965e-01 1.257594309914097153e+00
1.408790690350863184e-01 1.153131643128300965e+00
1.418407009052413403e-01 1.498133920582308320e+00
1.428023327753963623e-01 1.780469063395504037e+00
1.437639646455513842e-01 2.048619919262055333e+00
1.447255965157064062e-01 2.203789228641699793e+00
1.456872283858614281e-01 2.098905209670959948e+00
1.466488602560164778e-01 2.114132695995017741e+00
1.476104921261714720e-01 2.506102019133514602e+00
1.485721239963265217e-01 2.968151503180184392e+00
1.495337558664815436e-01 3.069849232909096060e+00
1.504953877366365655e-01 3.097799415757499730e+00
1.514570196067915875e-01 3.118115662682317435e+00
1.524186514769466094e-01 3.404933790674707694e+00
1.533802833471016314e-01 3.713561826847843861e+00
1.543419152172566811e-01 4.084007051775319752e+00
1.553035470874116752e-01 4.457085321764118646e+00
1.562651789575667249e-01 4.540070123508002098e+00
1.572268108277217469e-01 4.581079713265012288e+00
1.581884426978767688e-01 5.012865788174508452e+00
1.591500745680317908e-01 5.389780899416805937e+00
1.601117064381868405e-01 5.255288021876612703e+00
1.610733383083418346e-01 5.356238525128922845e+00
1.620349701784968843e-01 6.106301522910921875e+00
1.629966020486519063e-01 5.943707959783534278e+00
1.639582339188069282e-01 6.089202268017558595e+00
1.649198657889619501e-01 6.167748098077410646e+00
1.658814976591169721e-01 6.379443004503936976e+00
1.668431295292719940e-01 6.500816060226608073e+00
1.678047613994270160e-01 6.454780582509410891e+00
1.687663932695820379e-01 6.607617981299803489e+00
1.697280251397370598e-01 6.596474670111572181e+00
1.706896570098921095e-01 6.309144140287592961e+00
1.716512888800471037e-01 6.409271721598646110e+00
1.726129207502021534e-01 6.549712248705120032e+00
1.735745526203571754e-01 6.482385623629721039e+00
1.745361844905121973e-01 6.613774889956861358e+00
1.754978163606672192e-01 6.696183159761368131e+00
1.764594482308222689e-01 6.489309358709824949e+00
1.774210801009772631e-01 6.902871102810845372e+00
1.783827119711323128e-01 6.789550291141559057e+00
1.793443438412873348e-01 6.505571685661088566e+00
1.803059757114423567e-01 6.670992448697180777e+00
1.812676075815973786e-01 6.796257952989428475e+00
1.822292394517524006e-01 6.644662578512978257e+00
1.831908713219074225e-01 6.394724357887799471e+00
1.841525031920624444e-01 6.065945299604827312e+00
1.851141350622174664e-01 5.924959935212278594e+00
1.860757669323724883e-01 5.991789294122543907e+00
1.870373988025275380e-01 5.949741115878094178e+00
1.879990306726825322e-01 5.796660135699184480e+00
1.889606625428375819e-01 5.550117539807736478e+00
1.899222944129926038e-01 5.303940525454738264e+00
1.908839262831476258e-01 5.432553961521325192e+00
1.918455581533026477e-01 5.265958873373214999e+00
1.928071900234576974e-01 5.066113427898574884e+00
1.937688218936126916e-01 4.778755673389756709e+00
1.947304537637677413e-01 4.801032252403228284e+00
1.956920856339227632e-01 4.593043561946007713e+00
1.966537175040777852e-01 4.360171700608809431e+00
1.976153493742328071e-01 4.199556336278732260e+00
1.985769812443878291e-01 4.330699096866830189e+00
1.995386131145428510e-01 4.160745737150723045e+00
2.005002449846978729e-01 4.012180168844029282e+00
2.014618768548528949e-01 3.661270148617994380e+00
2.024235087250079168e-01 3.418790928569119814e+00
2.033851405951629665e-01 3.287337494724699383e+00
2.043467724653179884e-01 3.051719939409355931e+00
2.053084043354730381e-01 3.073637781256003620e+00
2.062700362056280046e-01 2.843365461191851296e+00
2.072316680757830543e-01 2.418104908560859911e+00
2.081932999459380762e-01 2.482407604929843359e+00
2.091549318160931259e-01 2.214881489756741928e+00
2.101165636862481478e-01 1.970064552024247462e+00
2.110781955564031698e-01 2.046864782478266420e+00
2.120398274265581640e-01 2.035442258574505558e+00
2.130014592967132137e-01 2.019253173049328609e+00
2.139630911668682356e-01 1.501595168931679325e+00
2.149247230370232575e-01 1.449217612121103116e+00
2.158863549071783072e-01 1.492782533687208257e+00
2.168479867773333014e-01 1.590574841376003690e+00
2.178096186474883234e-01 1.227642639042677786e+00
2.187712505176433453e-01 1.006251367046647971e+00
2.197328823877983950e-01 1.234615823921899391e+00
2.206945142579534169e-01 1.070914247826042498e+00
2.216561461281084666e-01 1.169344039603668506e+00
2.226177779982634330e-01 1.127324636845660422e+00
2.235794098684184827e-01 8.991720029194603114e-01
2.245410417385735047e-01 7.191451554407777280e-01
2.255026736087285544e-01 7.275940653013712733e-01
2.264643054788835763e-01 5.536442431877723891e-01
2.274259373490385983e-01 7.855411154421751974e-01
2.283875692191935924e-01 6.234534127649382640e-01
2.293492010893486421e-01 4.976839940421236008e-01
2.303108329595036641e-01 2.113564100715024097e-01
2.312724648296586860e-01 3.959862900707946665e-01
2.322340966998137357e-01 4.185186155259188467e-01
2.331957285699687299e-01 3.194159946256469595e-01
2.341573604401237518e-01 3.484148307246286436e-01
2.351189923102787738e-01 6.110653255145237495e-02
2.360806241804338235e-01 1.715422224110447758e-01
2.370422560505888454e-01 3.506183304517129784e-01
2.380038879207438951e-01 3.744586876992848090e-01
2.389655197908988615e-01 2.107947737454942683e-01
2.399271516610539112e-01 3.383628422526037127e-01
2.408887835312089332e-01 4.476867563744519884e-01
2.418504154013639829e-01 5.828678282285260082e-01
2.428120472715190048e-01 4.516601492069050039e-01
2.437736791416740267e-01 2.531481235511670036e-01
2.447353110118290209e-01 2.266972624202132636e-01
2.456969428819840706e-01 2.300314933861322686e-01
2.466585747521390926e-01 3.349699764518909717e-01
2.476202066222941145e-01 4.826279567956248684e-01
2.485818384924491642e-01 3.930621833513612273e-01
2.495434703626041584e-01 6.065083750297475262e-01
2.505051022327591803e-01 7.816088005387058502e-01
2.514667341029142023e-01 7.459376825351142770e-01
2.524283659730692242e-01 6.616876698446496619e-01
2.533899978432243016e-01 7.495900550235532478e-01
2.543516297133793236e-01 8.211353086798354184e-01
2.553132615835342900e-01 7.945320932660955293e-01
2.562748934536893120e-01 7.264296099013378694e-01
2.572365253238443894e-01 9.310171665899851234e-01
2.581981571939994113e-01 8.964519221582527564e-01
2.591597890641544333e-01 8.081592236031340803e-01
2.601214209343094552e-01 1.032297902562575587e+00
2.610830528044644772e-01 9.203520493191597041e-01
2.620446846746194991e-01 8.477463142037642285e-01
2.630063165447745210e-01 7.733004160647283243e-01
2.639679484149295430e-01 8.211436024742759798e-01
2.649295802850845649e-01 8.905505964748741121e-01
2.658912121552395869e-01 7.793237293057835302e-01
2.668528440253946088e-01 1.165970053843992105e+00
2.678144758955496307e-01 1.138155697530891075e+00
2.687761077657046527e-01 1.037726165531648093e+00
2.697377396358597301e-01 1.213656213381700155e+00
2.706993715060147521e-01 9.835843466493976450e-01
2.716610033761697185e-01 1.073441046335027238e+00
2.726226352463247404e-01 1.232061037519162738e+00
2.735842671164798179e-01 1.332504302529375906e+00
2.745458989866348398e-01 1.457188787986517298e+00
2.755075308567898618e-01 1.165462208221928364e+00
2.764691627269448837e-01 1.082102717107535028e+00
2.774307945970999056e-01 1.141394952590061962e+00
2.783924264672549276e-01 9.844496383686340835e-01
2.793540583374099495e-01 1.033933360480329355e+00
2.803156902075649715e-01 1.078552824251424624e+00
2.812773220777199934e-01 9.489219183574455485e-01
2.822389539478750153e-01 1.029711528986027247e+00
2.832005858180300373e-01 1.285433389489259781e+00
2.841622176881850592e-01 1.229908540824144580e+00
2.851238495583400812e-01 1.172411388715531189e+00
2.860854814284951586e-01 1.155266598448417170e+00
2.870471132986501805e-01 1.316990163504957678e+00
2.880087451688051470e-01 1.133295941132182350e+00
2.889703770389601689e-01 1.003762544658215461e+00
2.899320089091152464e-01 8.578430160999808152e-01
2.908936407792702683e-01 8.180526786692929875e-01
2.918552726494252902e-01 8.352807087474189984e-01
2.928169045195803122e-01 1.029227831217145450e+00
2.937785363897353341e-01 1.017795961653604309e+00
2.947401682598903561e-01 6.291799830836062313e-01
2.957018001300453780e-01 7.589532070535689456e-01
2.966634320002003999e-01 5.573841107253869609e-01
2.976250638703554219e-01 7.187181251109819868e-01
2.985866957405104993e-01 8.525263165118346365e-01
2.995483276106654658e-01 7.078387725739112568e-01
3.005099594808204877e-01 5.544004481812763174e-01
3.014715913509755651e-01 5.571532701861983128e-01
3.024332232211305871e-01 6.185660505242509544e-01
3.033948550912856090e-01 8.064382816127313447e-01
3.043564869614405755e-01 5.898503162436625757e-01
3.053181188315956529e-01 5.501528421814398939e-01
3.062797507017506748e-01 5.951609310920247253e-01
3.072413825719056968e-01 6.429879474247250926e-01
3.082030144420607187e-01 6.284826069450311081e-01
3.091646463122157407e-01 7.034080430772995385e-01
3.101262781823707626e-01 5.622817515664877419e-01
3.110879100525257845e-01 5.486464281720024871e-01
3.120495419226808065e-01 6.156801678898204955e-01
3.130111737928358284e-01 4.840992138047965909e-01
3.139728056629909059e-01 3.425247330268845758e-01
3.149344375331459278e-01 4.051073190345633179e-01
3.158960694033008942e-01 4.001478384500067875e-01
3.168577012734559162e-01 4.083887117551761037e-01
3.178193331436109936e-01 4.218631318126213614e-01
3.187809650137660156e-01 4.124766845694374240e-01
3.197425968839210375e-01 5.334947928677458151e-01
3.207042287540760039e-01 5.771152689043113071e-01
3.216658606242310814e-01 4.959513516688041079e-01
3.226274924943861033e-01 2.411798910525320139e-01
3.235891243645411253e-01 3.277167236731308719e-01
3.245507562346961472e-01 3.340102666409663357e-01
3.255123881048511691e-01 4.948606870451044415e-01
3.264740199750061911e-01 5.458287138814021944e-01
3.274356518451612130e-01 4.692946026916047231e-01
3.283972837153162350e-01 3.250758381563336741e-01
3.293589155854712569e-01 5.980111818270970048e-01
3.303205474556263344e-01 7.181179183374233332e-01
3.312821793257813563e-01 3.568591685736350883e-01
3.322438111959363227e-01 1.956495252548897668e-01
3.332054430660913447e-01 3.161785038842381823e-01
3.341670749362464221e-01 3.700535113723901759e-01
3.351287068064014441e-01 1.188345470359486455e-01
3.360903386765564660e-01 9.918048610581919888e-02
3.370519705467114324e-01 2.693316095808455657e-01
3.380136024168665099e-01 3.089345619239267648e-01
3.389752342870215318e-01 2.001049781946271366e-01
3.399368661571765537e-01 3.002819872627178199e-01
3.408984980273315757e-01 4.282190490352881795e-01
3.418601298974865976e-01 3.505961366011085545e-01
3.428217617676416196e-01 3.011582805152066555e-01
3.437833936377966415e-01 2.437019571309164689e-01
3.447450255079516634e-01 3.852285373748891573e-01
3.457066573781066854e-01 5.650869528588522428e-01
3.466682892482617628e-01 3.562111124594657952e-01
3.476299211184167848e-01 3.491102805015309229e-01
3.485915529885717512e-01 2.229898190084824705e-01
3.495531848587267731e-01 2.928802072831047099e-01
3.505148167288818506e-01 3.937593726277519579e-01
3.514764485990368725e-01 4.136805633098781243e-01
3.524380804691918945e-01 2.380312617744202441e-01
3.533997123393468609e-01 3.529255864087197381e-01
3.543613442095019384e-01 5.053766002617940956e-01
3.553229760796569603e-01 6.510694203726643536e-01
3.562846079498119822e-01 6.634445429652906512e-01
3.572462398199670042e-01 7.274898392439439476e-01
3.582078716901220261e-01 7.010433917267349102e-01
3.591695035602770480e-01 4.921736649671402120e-01
3.601311354304320700e-01 3.419732552282326310e-01
3.610927673005870919e-01 2.064752887454162078e-01
3.620543991707421139e-01 5.723116702277089018e-01
3.630160310408971913e-01 5.613662103006191728e-01
3.639776629110522133e-01 4.531354714486042212e-01
3.649392947812071797e-01 2.761456460359390519e-01
3.659009266513622016e-01 3.351255696367658743e-01
3.668625585215172791e-01 4.384063645328346581e-01
3.678241903916723010e-01 5.407002992922933515e-01
3.687858222618273230e-01 5.346485885112493008e-01
3.697474541319822894e-01 4.963922627444787850e-01
3.707090860021373668e-01 5.812324757964901778e-01
3.716707178722923888e-01 6.002045246095342179e-01
3.726323497424474107e-01 6.146437917370235482e-01
3.735939816126024327e-01 3.763088554167239863e-01
3.745556134827574546e-01 3.966376095831840587e-01
3.755172453529124765e-01 4.829721401718032325e-01
3.764788772230674985e-01 6.429970374354638807e-01
3.774405090932225204e-01 4.510190312300466076e-01
3.784021409633775423e-01 3.209306259148725360e-01
3.793637728335326198e-01 3.047743834477145697e-01
3.803254047036876417e-01 3.468697484213976168e-01
3.812870365738426082e-01 4.296458535452600813e-01
3.822486684439976301e-01 3.264629260382427844e-01
3.832103003141527076e-01 3.617766801488180306e-01
3.841719321843077295e-01 4.618944227355612497e-01
3.851335640544627514e-01 5.608192903399107365e-01
3.860951959246177734e-01 5.096336249739934487e-01
3.870568277947727953e-01 3.889563061682963507e-01
3.880184596649278173e-01 3.644812826885264201e-01
3.889800915350828392e-01 4.884983013107593308e-01
3.899417234052378611e-01 5.213359660142380392e-01
3.909033552753928831e-01 3.915626001365701825e-01
3.918649871455479050e-01 3.909858701637389800e-01
3.928266190157029270e-01 5.599076022584128509e-01
3.937882508858579489e-01 5.174423001388213095e-01
3.947498827560129708e-01 4.853212705933032112e-01
3.957115146261680483e-01 3.214568510355562125e-01
3.966731464963230702e-01 3.953396909039135210e-01
3.976347783664780366e-01 5.181308165722491310e-01
3.985964102366330586e-01 3.915879439185872002e-01
3.995580421067881360e-01 3.220511311708236235e-01
4.005196739769430470e-01 4.464121378183598665e-01
4.014813058470981244e-01 4.277592060834614074e-01
4.024429377172531463e-01 3.919009867846732220e-01
4.034045695874082238e-01 4.205275632625706805e-01
