# q (1/Angstrom), Intensity (arb)
2.067508526570814575e-02 7.837366792471852932e+02
2.163671713586316769e-02 8.197426085743975364e+02
2.259834900601819310e-02 8.537993588791096045e+02
2.355998087617321851e-02 8.667011555797975006e+02
2.452161274632824739e-02 8.690825906776412921e+02
2.548324461648326933e-02 8.682074523130720536e+02
2.644487648663829821e-02 8.666042974154763670e+02
2.740650835679332709e-02 8.657302829189333124e+02
2.836814022694834903e-02 8.641880415200888592e+02
2.932977209710337443e-02 8.591688549722258585e+02
3.029140396725839637e-02 8.552146808278941990e+02
3.125303583741342178e-02 8.450316760282501036e+02
3.221466770756845066e-02 8.383246726809348957e+02
3.317629957772347260e-02 8.350694593159842043e+02
3.413793144787850148e-02 8.265627920307524619e+02
3.509956331803352342e-02 8.180075567406299797e+02
3.606119518818855230e-02 8.162683610806192291e+02
3.702282705834358117e-02 8.078505291969056543e+02
3.798445892849860311e-02 7.969459308141292695e+02
3.894609079865363199e-02 7.868793845317335354e+02
3.990772266880865393e-02 7.765781224053752112e+02
4.086935453896367587e-02 7.667276529744884783e+02
4.183098640911870475e-02 7.579040899009901295e+02
4.279261827927372669e-02 7.481205478153168542e+02
4.375425014942875557e-02 7.347862526776507366e+02
4.471588201958377751e-02 7.204765274148073786e+02
4.567751388973880639e-02 7.078341276569841511e+02
4.663914575989382832e-02 6.970510574135357729e+02
4.760077763004885720e-02 6.844854188685565077e+02
4.856240950020387914e-02 6.736117663349575650e+02
4.952404137035890108e-02 6.607123419168530063e+02
5.048567324051392302e-02 6.493596622375789593e+02
5.144730511066895190e-02 6.373884923357453545e+02
5.240893698082397384e-02 6.230761257859954867e+02
5.337056885097899578e-02 6.087086996119494415e+02
5.433220072113403160e-02 5.930167253673146206e+02
5.529383259128905354e-02 5.779008335725199004e+02
5.625546446144407547e-02 5.635489164485218225e+02
5.721709633159910435e-02 5.477992268681451833e+02
5.817872820175412629e-02 5.332403024264827991e+02
5.914036007190914823e-02 5.189086609132519925e+02
6.010199194206417017e-02 5.071931267199899480e+02
6.106362381221920599e-02 4.947157215884365655e+02
6.202525568237422793e-02 4.782750218723153353e+02
6.298688755252924987e-02 4.644889507690198798e+02
6.394851942268428568e-02 4.513015787766308904e+02
6.491015129283930762e-02 4.348122269938712634e+02
6.587178316299432956e-02 4.205469231905041170e+02
6.683341503314935150e-02 4.096489876744145704e+02
6.779504690330438732e-02 3.962735668819802299e+02
6.875667877345940926e-02 3.810068637726540715e+02
6.971831064361443120e-02 3.687421349609541608e+02
7.067994251376945314e-02 3.575674125852617067e+02
7.164157438392447508e-02 3.433640957734884864e+02
7.260320625407949702e-02 3.313023473563980588e+02
7.356483812423453283e-02 3.177477276573322911e+02
7.452646999438955477e-02 3.059054227345135928e+02
7.548810186454457671e-02 2.942891107798857888e+02
7.644973373469959865e-02 2.839051540923882726e+02
7.741136560485463447e-02 2.734692059287431221e+02
7.837299747500965641e-02 2.623218817180544420e+02
7.933462934516467835e-02 2.510358853199343798e+02
8.029626121531971417e-02 2.401622707462416031e+02
8.125789308547473611e-02 2.308380955179831346e+02
8.221952495562975805e-02 2.205251507645454012e+02
8.318115682578479386e-02 2.096205995664255681e+02
8.414278869593981580e-02 1.997225450381587279e+02
8.510442056609483774e-02 1.914374591713760765e+02
8.606605243624985968e-02 1.824248382515282003e+02
8.702768430640489550e-02 1.731294306102857661e+02
8.798931617655991744e-02 1.654607315099621019e+02
8.895094804671493938e-02 1.580226115333999530e+02
8.991257991686996132e-02 1.494342508396075857e+02
9.087421178702498326e-02 1.413462378021905010e+02
9.183584365718000520e-02 1.336954530853804215e+02
9.279747552733502713e-02 1.259015887855807989e+02
9.375910739749006295e-02 1.192061448198059992e+02
9.472073926764508489e-02 1.128130177004830301e+02
9.568237113780010683e-02 1.070204969108088022e+02
9.664400300795514265e-02 1.003630349273010580e+02
9.760563487811016459e-02 9.467178878308601497e+01
9.856726674826518653e-02 8.869859614162845673e+01
9.952889861842022234e-02 8.292268822713475629e+01
1.004905304885752443e-01 7.780241088330897981e+01
1.014521623587302801e-01 7.270152353232607823e+01
1.024137942288853020e-01 6.729782419387643699e+01
1.033754260990403240e-01 6.271959807153996280e+01
1.043370579691953459e-01 5.796956741138399849e+01
1.052986898393503817e-01 5.294790878210321949e+01
1.062603217095053898e-01 4.958684997097120828e+01
1.072219535796604256e-01 4.608745189790796815e+01
1.081835854498154614e-01 4.226379383502299447e+01
1.091452173199704695e-01 3.922948809418664950e+01
1.101068491901255053e-01 3.598098087613838203e+01
1.110684810602805411e-01 3.294375404215857372e+01
1.120301129304355492e-01 3.016352041015391450e+01
1.129917448005905850e-01 2.808525975448224798e+01
1.139533766707456208e-01 2.528041270716142463e+01
1.149150085409006289e-01 2.275255136528088329e+01
1.158766404110556647e-01 2.065083716918387324e+01
1.168382722812106728e-01 1.864738112931550162e+01
1.177999041513657086e-01 1.693210528233183965e+01
1.187615360215207305e-01 1.511665231816645161e+01
1.197231678916757525e-01 1.339101234947181140e+01
1.206847997618307744e-01 1.164533495990714229e+01
1.216464316319858102e-01 1.010090393090232297e+01
1.226080635021408183e-01 8.860527651000595029e+00
1.235696953722958541e-01 7.956070468653063443e+00
1.245313272424508899e-01 7.233815408359628663e+00
1.254929591126059119e-01 6.335632920873379703e+00
1.264545909827609338e-01 5.141320038767457135e+00
1.274162228529159557e-01 4.222241889425159656e+00
1.283778547230709777e-01 3.883846013991860247e+00
1.293394865932259996e-01 3.633176354634986893e+00
1.303011184633810493e-01 3.256790872353775512e+00
1.312627503335360435e-01 2.855652500355535750e+00
1.322243822036910932e-01 2.226110445885709055e+00
1.331860140738460874e-01 1.817075616036088803e+00
1.341476459440011371e-01 1.903430409267453882e+00
1.351092778141561590e-01 1.498501178079539642e+00
1.360709096843111809e-01 1.466168758581243736e+00
1.370325415544662029e-01 1.582211776282218096e+00
1.379941734246212526e-01 1.732073786859093190e+00
1.389558052947762468e-01 1.734370311016103727e+00
1.399174371649312965e-01 1.728993048569169133e+00
1.408790690350863184e-01 1.909142332407121501e+00
1.418407009052413403e-01 2.004914287604727008e+00
1.428023327753963623e-01 2.299264575942075339e+00
1.437639646455513842e-01 2.657238105306412024e+00
1.447255965157064062e-01 2.620661334308600487e+00
1.456872283858614281e-01 3.135743934125709842e+00
1.466488602560164778e-01 2.990969120370287726e+00
1.476104921261714720e-01 2.884693508861925437e+00
1.485721239963265217e-01 3.326601147190608287e+00
1.495337558664815436e-01 3.744069956804693788e+00
1.504953877366365655e-01 4.097432521903677127e+00
1.514570196067915875e-01 4.237952179175270118e+00
1.524186514769466094e-01 4.588643355044261796e+00
1.533802833471016314e-01 4.611777082070350531e+00
1.543419152172566811e-01 4.918634415957360062e+00
1.553035470874116752e-01 5.369098625881093767e+00
1.562651789575667249e-01 5.618966277103076834e+00
1.572268108277217469e-01 5.843247025899870550e+00
1.581884426978767688e-01 5.814732325500276744e+00
1.591500745680317908e-01 6.351481459781556538e+00
1.601117064381868405e-01 6.849633485525686183e+00
1.610733383083418346e-01 6.603382156098895450e+00
1.620349701784968843e-01 6.606442521461175943e+00
1.629966020486519063e-01 6.939474602431943140e+00
1.639582339188069282e-01 7.113044100600074415e+00
1.649198657889619501e-01 7.315305366262400355e+00
1.658814976591169721e-01 7.395480873005190858e+00
1.668431295292719940e-01 7.543654236206656094e+00
1.678047613994270160e-01 7.825130613465741902e+00
1.687663932695820379e-01 7.880552593760178581e+00
1.697280251397370598e-01 7.787981605123398765e+00
1.706896570098921095e-01 7.765598515100371912e+00
1.716512888800471037e-01 7.859794616266782441e+00
1.726129207502021534e-01 7.875579350126592715e+00
1.735745526203571754e-01 7.871478278775359883e+00
1.745361844905121973e-01 8.022588910743447599e+00
1.754978163606672192e-01 7.941674910359054707e+00
1.764594482308222689e-01 7.967029434035712399e+00
1.774210801009772631e-01 8.185839788990115551e+00
1.783827119711323128e-01 7.814436691291323456e+00
1.793443438412873348e-01 7.716171789324427266e+00
1.803059757114423567e-01 7.748501414138520005e+00
1.812676075815973786e-01 7.510901188814077756e+00
1.822292394517524006e-01 7.392891068890278916e+00
1.831908713219074225e-01 7.036550808352124875e+00
1.841525031920624444e-01 6.946325024915484647e+00
1.851141350622174664e-01 6.847676806832772911e+00
1.860757669323724883e-01 6.940321947877656328e+00
1.870373988025275380e-01 6.676217233699468068e+00
1.879990306726825322e-01 6.314357165233449365e+00
1.889606625428375819e-01 6.190350766332350929e+00
1.899222944129926038e-01 6.295981163991775986e+00
1.908839262831476258e-01 6.029722588113756387e+00
1.918455581533026477e-01 5.704500357507892971e+00
1.928071900234576974e-01 5.584647522482157456e+00
1.937688218936126916e-01 5.442957079289659106e+00
1.947304537637677413e-01 5.193733831998990524e+00
1.956920856339227632e-01 4.890829011660450476e+00
1.966537175040777852e-01 4.909162871788108617e+00
1.976153493742328071e-01 4.481266240651102351e+00
1.985769812443878291e-01 4.202586424886721517e+00
1.995386131145428510e-01 4.072836063788749073e+00
2.005002449846978729e-01 3.737586590570973755e+00
2.014618768548528949e-01 3.654909495509652828e+00
2.024235087250079168e-01 3.560387106229967458e+00
2.033851405951629665e-01 3.439436957928005967e+00
2.043467724653179884e-01 3.214787579990794342e+00
2.053084043354730381e-01 3.012266623534685550e+00
2.062700362056280046e-01 2.857087181414588173e+00
2.072316680757830543e-01 2.553869952908780050e+00
2.081932999459380762e-01 2.691863415591246422e+00
2.091549318160931259e-01 2.334105607009288263e+00
2.101165636862481478e-01 2.172796855960079654e+00
2.110781955564031698e-01 2.100202202894788428e+00
2.120398274265581640e-01 1.920074123462629956e+00
2.130014592967132137e-01 1.852436330535205400e+00
2.139630911668682356e-01 1.593227246245330520e+00
2.149247230370232575e-01 1.367929483333600871e+00
2.158863549071783072e-01 1.323702861814322063e+00
2.168479867773333014e-01 1.316337685942297497e+00
2.178096186474883234e-01 1.177441189274230027e+00
2.187712505176433453e-01 1.095795796109587883e+00
2.197328823877983950e-01 8.947276141762010582e-01
2.206945142579534169e-01 8.712597725898127976e-01
2.216561461281084666e-01 7.208209053792664633e-01
2.226177779982634330e-01 6.764529100178933163e-01
2.235794098684184827e-01 6.070587994439087254e-01
2.245410417385735047e-01 8.730833643482611706e-01
2.255026736087285544e-01 6.965160315450091844e-01
2.264643054788835763e-01 6.213780464603608777e-01
2.274259373490385983e-01 6.478329933985520483e-01
2.283875692191935924e-01 4.904121007849688851e-01
2.293492010893486421e-01 6.290644330660875028e-01
2.303108329595036641e-01 5.404398232926084233e-01
2.312724648296586860e-01 3.557780085684605353e-01
2.322340966998137357e-01 4.037478340514226716e-01
2.331957285699687299e-01 4.963927439339599346e-01
2.341573604401237518e-01 3.795071668607761239e-01
2.351189923102787738e-01 3.696954409023085475e-01
2.360806241804338235e-01 6.118265048697466568e-01
2.370422560505888454e-01 5.109072960458718171e-01
2.380038879207438951e-01 4.765094411412427178e-01
2.389655197908988615e-01 2.529222439882374829e-01
2.399271516610539112e-01 2.542156100886820980e-01
2.408887835312089332e-01 5.520671183562697593e-01
2.418504154013639829e-01 4.516194368393975367e-01
2.428120472715190048e-01 4.500763574924029342e-01
2.437736791416740267e-01 6.133524298220258686e-01
2.447353110118290209e-01 5.900121224288739086e-01
2.456969428819840706e-01 7.171439276531934581e-01
2.466585747521390926e-01 4.364499296998687328e-01
2.476202066222941145e-01 5.354084849197278118e-01
2.485818384924491642e-01 7.875249285929832865e-01
2.495434703626041584e-01 8.969633806245767005e-01
2.505051022327591803e-01 8.961490872524997542e-01
2.514667341029142023e-01 6.400061048701779498e-01
2.524283659730692242e-01 6.416556710450791456e-01
2.533899978432243016e-01 5.269314358136583110e-01
2.543516297133793236e-01 5.763030867978500282e-01
2.553132615835342900e-01 9.118924591847630268e-01
2.562748934536893120e-01 1.083561663161326294e+00
2.572365253238443894e-01 9.353833845631172039e-01
2.581981571939994113e-01 1.011384277324125947e+00
2.591597890641544333e-01 1.056398864059058695e+00
2.601214209343094552e-01 1.171583365365385987e+00
2.610830528044644772e-01 1.146534349796919372e+00
2.620446846746194991e-01 1.179527692229793701e+00
2.630063165447745210e-01 1.111089980869884641e+00
2.639679484149295430e-01 1.033599968256694979e+00
2.649295802850845649e-01 1.158866255168199189e+00
2.658912121552395869e-01 1.107464543347216335e+00
2.668528440253946088e-01 1.022534682441285980e+00
2.678144758955496307e-01 1.057813488984571393e+00
2.687761077657046527e-01 1.321967973343273428e+00
2.697377396358597301e-01 1.207241185664617689e+00
2.706993715060147521e-01 1.096971268055490611e+00
2.716610033761697185e-01 1.115937221309430072e+00
2.726226352463247404e-01 8.982504092108882787e-01
2.735842671164798179e-01 1.029654952967465675e+00
2.745458989866348398e-01 1.167464644806742058e+00
2.755075308567898618e-01 1.240204402855194843e+00
2.764691627269448837e-01 1.407373988755743710e+00
2.774307945970999056e-01 1.295731766632066240e+00
2.783924264672549276e-01 1.282388166023537224e+00
2.793540583374099495e-01 1.321727753114824822e+00
2.803156902075649715e-01 1.145386571194386249e+00
2.812773220777199934e-01 1.060285486882534656e+00
2.822389539478750153e-01 9.638407414106779925e-01
2.832005858180300373e-01 8.219213096282160791e-01
2.841622176881850592e-01 9.094330785658009120e-01
2.851238495583400812e-01 9.298691054121945854e-01
2.860854814284951586e-01 1.068849772636340845e+00
2.870471132986501805e-01 1.029401516772384895e+00
2.880087451688051470e-01 9.552861757595039194e-01
2.889703770389601689e-01 9.652718914010627316e-01
2.899320089091152464e-01 8.420579362971594151e-01
2.908936407792702683e-01 6.842603969948619635e-01
2.918552726494252902e-01 7.225594021284393875e-01
2.928169045195803122e-01 9.093135381742172285e-01
2.937785363897353341e-01 7.963543145160656422e-01
2.947401682598903561e-01 7.458685210133353394e-01
2.957018001300453780e-01 8.211977800478500455e-01
2.966634320002003999e-01 8.560608317237026199e-01
2.976250638703554219e-01 8.863622807808546611e-01
2.985866957405104993e-01 7.269437683816200035e-01
2.995483276106654658e-01 8.462412308499658309e-01
3.005099594808204877e-01 7.780315877137837788e-01
3.014715913509755651e-01 7.540949450180391977e-01
3.024332232211305871e-01 7.575704381530812270e-01
3.033948550912856090e-01 6.551651978098682605e-01
3.043564869614405755e-01 4.922542674090699677e-01
3.053181188315956529e-01 6.627944595532220262e-01
3.062797507017506748e-01 5.959053210085087926e-01
3.072413825719056968e-01 4.026666985415836564e-01
3.082030144420607187e-01 5.142921319623390275e-01
3.091646463122157407e-01 4.340742612000703105e-01
3.101262781823707626e-01 2.607868961983825784e-01
3.110879100525257845e-01 1.581248532603112267e-01
3.120495419226808065e-01 2.288132795020700883e-01
3.130111737928358284e-01 3.701093439137572716e-01
3.139728056629909059e-01 2.494004108005327680e-01
3.149344375331459278e-01 3.083236509176892071e-01
3.158960694033008942e-01 3.469615287379035351e-01
3.168577012734559162e-01 2.063037162951424364e-01
3.178193331436109936e-01 4.041212648103140737e-01
3.187809650137660156e-01 3.410606625147174498e-01
3.197425968839210375e-01 2.340114043240575370e-01
3.207042287540760039e-01 2.194120205649312538e-01
3.216658606242310814e-01 1.605134315472227513e-01
3.226274924943861033e-01 8.840178525381503505e-02
3.235891243645411253e-01 2.766512948766219893e-01
3.245507562346961472e-01 3.151132614294276379e-01
3.255123881048511691e-01 3.168243402347172832e-01
3.264740199750061911e-01 1.824179123102638300e-01
3.274356518451612130e-01 2.066282430532346837e-01
3.283972837153162350e-01 2.423983053427356538e-01
3.293589155854712569e-01 3.548985952875831629e-01
3.303205474556263344e-01 3.462625605716809218e-01
3.312821793257813563e-01 2.477593490301792656e-01
3.322438111959363227e-01 3.829024200555188884e-01
3.332054430660913447e-01 1.918413023201210876e-01
3.341670749362464221e-01 2.440893334998435193e-01
3.351287068064014441e-01 2.754714370974582494e-01
3.360903386765564660e-01 2.489771185448361734e-01
3.370519705467114324e-01 1.908290872235518520e-01
3.380136024168665099e-01 3.687639050448048295e-01
3.389752342870215318e-01 4.794712668395177957e-01
3.399368661571765537e-01 3.421123205667591094e-01
3.408984980273315757e-01 3.898706334103820836e-01
3.418601298974865976e-01 4.386218384404365622e-01
3.428217617676416196e-01 3.898292356314279061e-01
3.437833936377966415e-01 2.023976137204037684e-01
3.447450255079516634e-01 2.874200381235034740e-01
3.457066573781066854e-01 3.241400296991372443e-01
3.466682892482617628e-01 2.931898906437702124e-01
3.476299211184167848e-01 3.029571270104902680e-01
3.485915529885717512e-01 3.429253137402170637e-01
3.495531848587267731e-01 3.244090633140679358e-01
3.505148167288818506e-01 3.402731298738537191e-01
3.514764485990368725e-01 3.958251226346760632e-01
3.524380804691918945e-01 4.486520462583918345e-01
3.533997123393468609e-01 3.841856358118072023e-01
3.543613442095019384e-01 3.322576650605348902e-01
3.553229760796569603e-01 3.190142416515975299e-01
3.562846079498119822e-01 3.311534407824545667e-01
3.572462398199670042e-01 3.783078590619624038e-01
3.582078716901220261e-01 3.832511809628726951e-01
3.591695035602770480e-01 4.212717503811944653e-01
3.601311354304320700e-01 4.843155962349356969e-01
3.610927673005870919e-01 5.624980383147111240e-01
3.620543991707421139e-01 5.754784659340472786e-01
3.630160310408971913e-01 4.697669373838024853e-01
3.639776629110522133e-01 4.365256494400568954e-01
3.649392947812071797e-01 4.051807257773667459e-01
3.659009266513622016e-01 3.501373911524652272e-01
3.668625585215172791e-01 4.419367669028879675e-01
3.678241903916723010e-01 6.496428724583793723e-01
3.687858222618273230e-01 5.760008175996844670e-01
3.697474541319822894e-01 4.539194662518326595e-01
3.707090860021373668e-01 2.929341540375141051e-01
3.716707178722923888e-01 3.458016095608940077e-01
3.726323497424474107e-01 4.601444807159964512e-01
3.735939816126024327e-01 4.265124627658920531e-01
3.745556134827574546e-01 5.031620770503231199e-01
3.755172453529124765e-01 5.807458719707838668e-01
3.764788772230674985e-01 6.431137831147815120e-01
3.774405090932225204e-01 5.280077583086928428e-01
3.784021409633775423e-01 4.387963429912780100e-01
3.793637728335326198e-01 3.342193151793537709e-01
3.803254047036876417e-01 2.922960848240379050e-01
3.812870365738426082e-01 2.737506117539894035e-01
3.822486684439976301e-01 2.989993762641383057e-01
3.832103003141527076e-01 2.956468415344666312e-01
3.841719321843077295e-01 3.883758673451396248e-01
3.851335640544627514e-01 2.848912204758100586e-01
3.860951959246177734e-01 2.942652386044919410e-01
3.870568277947727953e-01 3.518245747949002578e-01
3.880184596649278173e-01 4.298867593351900496e-01
3.889800915350828392e-01 4.508114662398412520e-01
3.899417234052378611e-01 4.506914164809856516e-01
3.909033552753928831e-01 2.750185946416934257e-01
3.918649871455479050e-01 2.736747260941498894e-01
3.928266190157029270e-01 2.356863143189933396e-01
3.937882508858579489e-01 3.198510680412809393e-01
3.947498827560129708e-01 3.377449335290592103e-01
3.957115146261680483e-01 3.993234014059474646e-01
3.966731464963230702e-01 5.262470974592865502e-01
3.976347783664780366e-01 4.066212609617849694e-01
3.985964102366330586e-01 1.633326436612385635e-01
3.995580421067881360e-01 2.236585559806947288e-01
4.005196739769430470e-01 2.935636723834349482e-01
4.014813058470981244e-01 4.592288378738693666e-01
4.024429377172531463e-01 3.552385111084745972e-01
4.034045695874082238e-01 2.022902695736732426e-01
