# q (1/Angstrom), Intensity (arb)
2.067508526570814575e-02 8.231733923234894519e+02
2.163671713586316769e-02 8.579967051314329183e+02
2.259834900601819310e-02 8.865129112139413792e+02
2.355998087617321851e-02 8.968749557866085524e+02
2.452161274632824739e-02 8.996147051657952716e+02
2.548324461648326933e-02 8.993183902121547817e+02
2.644487648663829821e-02 8.974207215235644526e+02
2.740650835679332709e-02 8.987658439941556026e+02
2.836814022694834903e-02 8.953550809282344289e+02
2.932977209710337443e-02 8.908621682177355297e+02
3.029140396725839637e-02 8.823485900728447859e+02
3.125303583741342178e-02 8.724530320610456329e+02
3.221466770756845066e-02 8.686432449251421986e+02
3.317629957772347260e-02 8.597036307409550773e+02
3.413793144787850148e-02 8.527362447404783552e+02
3.509956331803352342e-02 8.479151263639771514e+02
3.606119518818855230e-02 8.439978036444556437e+02
3.702282705834358117e-02 8.300595420183437909e+02
3.798445892849860311e-02 8.207687467566727264e+02
3.894609079865363199e-02 8.143477684957944120e+02
3.990772266880865393e-02 8.056381767577942128e+02
4.086935453896367587e-02 7.963564117178750621e+02
4.183098640911870475e-02 7.846405610860391562e+02
4.279261827927372669e-02 7.754008526817838174e+02
4.375425014942875557e-02 7.634565957613334604e+02
4.471588201958377751e-02 7.452219802715175092e+02
4.567751388973880639e-02 7.332631119604994865e+02
4.663914575989382832e-02 7.245847835980625860e+02
4.760077763004885720e-02 7.117673840725943819e+02
4.856240950020387914e-02 6.981697670615393463e+02
4.952404137035890108e-02 6.861578605942765989e+02
5.048567324051392302e-02 6.752289834566067839e+02
5.144730511066895190e-02 6.596108316660751143e+02
5.240893698082397384e-02 6.466787448165381420e+02
5.337056885097899578e-02 6.327096202402328800e+02
5.433220072113403160e-02 6.145365431136336838e+02
5.529383259128905354e-02 5.990778253406563181e+02
5.625546446144407547e-02 5.835004941584800235e+02
5.721709633159910435e-02 5.656830708604458096e+02
5.817872820175412629e-02 5.529964437719131638e+02
5.914036007190914823e-02 5.391836323013842502e+02
6.010199194206417017e-02 5.244963136011002689e+02
6.106362381221920599e-02 5.101232734016439281e+02
6.202525568237422793e-02 4.948951011507556359e+02
6.298688755252924987e-02 4.795103848714647370e+02
6.394851942268428568e-02 4.654498964081334407e+02
6.491015129283930762e-02 4.530528474099592131e+02
6.587178316299432956e-02 4.393504930843270131e+02
6.683341503314935150e-02 4.243147021105171461e+02
6.779504690330438732e-02 4.113210289164898654e+02
6.875667877345940926e-02 3.965949691778894817e+02
6.971831064361443120e-02 3.828000769856053012e+02
7.067994251376945314e-02 3.698844871362715025e+02
7.164157438392447508e-02 3.588109837275156906e+02
7.260320625407949702e-02 3.467660443570262601e+02
7.356483812423453283e-02 3.327306100818933601e+02
7.452646999438955477e-02 3.205689571733601042e+02
7.548810186454457671e-02 3.086089428897327025e+02
7.644973373469959865e-02 2.970428785292614862e+02
7.741136560485463447e-02 2.863725353824489162e+02
7.837299747500965641e-02 2.750617683635798016e+02
7.933462934516467835e-02 2.638901976692852145e+02
8.029626121531971417e-02 2.511077469244408746e+02
8.125789308547473611e-02 2.404726246035438919e+02
8.221952495562975805e-02 2.300430433180228817e+02
8.318115682578479386e-02 2.199920960957650777e+02
8.414278869593981580e-02 2.111177480269353168e+02
8.510442056609483774e-02 2.008855685498208459e+02
8.606605243624985968e-02 1.915910458707289479e+02
8.702768430640489550e-02 1.811845700693392303e+02
8.798931617655991744e-02 1.728876551692656278e+02
8.895094804671493938e-02 1.655990290268205740e+02
8.991257991686996132e-02 1.570399800375631401e+02
9.087421178702498326e-02 1.476336417219934560e+02
9.183584365718000520e-02 1.398710893494469474e+02
9.279747552733502713e-02 1.330157487629249999e+02
9.375910739749006295e-02 1.258925716828571950e+02
9.472073926764508489e-02 1.186296189674933714e+02
9.568237113780010683e-02 1.117576342355560399e+02
9.664400300795514265e-02 1.054101164339981693e+02
9.760563487811016459e-02 9.824799197952705754e+01
9.856726674826518653e-02 9.209581837846110375e+01
9.952889861842022234e-02 8.728680195592038160e+01
1.004905304885752443e-01 8.120328953896144242e+01
1.014521623587302801e-01 7.590695101250904031e+01
1.024137942288853020e-01 7.099434734487962828e+01
1.033754260990403240e-01 6.544720740415364446e+01
1.043370579691953459e-01 6.143342027386343318e+01
1.052986898393503817e-01 5.729424523449979745e+01
1.062603217095053898e-01 5.268153999756776784e+01
1.072219535796604256e-01 4.874461682568664855e+01
1.081835854498154614e-01 4.513206972326972988e+01
1.091452173199704695e-01 4.176839639896699907e+01
1.101068491901255053e-01 3.840932135006821113e+01
1.110684810602805411e-01 3.470859716898620206e+01
1.120301129304355492e-01 3.201734971982209288e+01
1.129917448005905850e-01 2.900711388634674393e+01
1.139533766707456208e-01 2.662251137142027702e+01
1.149150085409006289e-01 2.405060664151327288e+01
1.158766404110556647e-01 2.159389542311952326e+01
1.168382722812106728e-01 1.951503600682320538e+01
1.177999041513657086e-01 1.794434530949433793e+01
1.187615360215207305e-01 1.579948616302441522e+01
1.197231678916757525e-01 1.377525548305446179e+01
1.206847997618307744e-01 1.217156166660062055e+01
1.216464316319858102e-01 1.090443549780757948e+01
1.226080635021408183e-01 9.688052273783696933e+00
1.235696953722958541e-01 8.761912657716134589e+00
1.245313272424508899e-01 7.617715719276642261e+00
1.254929591126059119e-01 6.646257899110988632e+00
1.264545909827609338e-01 5.744206610029500837e+00
1.274162228529159557e-01 4.996914676608373185e+00
1.283778547230709777e-01 4.273536414737566957e+00
1.293394865932259996e-01 3.572829109457106966e+00
1.303011184633810493e-01 3.121444929816682645e+00
1.312627503335360435e-01 2.714809480220537807e+00
1.322243822036910932e-01 2.669966954735503606e+00
1.331860140738460874e-01 2.108965839693976108e+00
1.341476459440011371e-01 1.855500628704941590e+00
1.351092778141561590e-01 1.733878252340144144e+00
1.360709096843111809e-01 1.897938960277283371e+00
1.370325415544662029e-01 1.979386696321729033e+00
1.379941734246212526e-01 2.968548396460214178e+00
1.389558052947762468e-01 2.460074604593216918e+00
1.399174371649312965e-01 1.833567948272907699e+00
1.408790690350863184e-01 2.030677447588416840e+00
1.418407009052413403e-01 2.259073458839818471e+00
1.428023327753963623e-01 2.189827300017714862e+00
1.437639646455513842e-01 2.503489713935994843e+00
1.447255965157064062e-01 2.956629771247108351e+00
1.456872283858614281e-01 3.050740999562325584e+00
1.466488602560164778e-01 3.108589964378715820e+00
1.476104921261714720e-01 3.322699092390550391e+00
1.485721239963265217e-01 3.594820315095493157e+00
1.495337558664815436e-01 4.019381267618463482e+00
1.504953877366365655e-01 4.273375197938602099e+00
1.514570196067915875e-01 4.513611510619515599e+00
1.524186514769466094e-01 4.937795588284235038e+00
1.533802833471016314e-01 5.348322891242204946e+00
1.543419152172566811e-01 5.342421785140697210e+00
1.553035470874116752e-01 5.409630746363884413e+00
1.562651789575667249e-01 5.707921918442032450e+00
1.572268108277217469e-01 6.262849405369440348e+00
1.581884426978767688e-01 6.547754661905987206e+00
1.591500745680317908e-01 6.778347869232664635e+00
1.601117064381868405e-01 6.855217449507751581e+00
1.610733383083418346e-01 6.914687406130209268e+00
1.620349701784968843e-01 6.874631570401167124e+00
1.629966020486519063e-01 7.113792559635193413e+00
1.639582339188069282e-01 7.467994111155725534e+00
1.649198657889619501e-01 7.534168808805436157e+00
1.658814976591169721e-01 7.556763818852541448e+00
1.668431295292719940e-01 7.887172219445943711e+00
1.678047613994270160e-01 8.240375536925760969e+00
1.687663932695820379e-01 8.409416135925692259e+00
1.697280251397370598e-01 8.124534088047479230e+00
1.706896570098921095e-01 8.163456563975010738e+00
1.716512888800471037e-01 8.075157308738372564e+00
1.726129207502021534e-01 8.229412026168326122e+00
1.735745526203571754e-01 8.399614662354810690e+00
1.745361844905121973e-01 8.358776218516830170e+00
1.754978163606672192e-01 8.226829332042726151e+00
1.764594482308222689e-01 8.242426403545934477e+00
1.774210801009772631e-01 8.189482698973197472e+00
1.783827119711323128e-01 7.834130135832179320e+00
1.793443438412873348e-01 7.826945240341377286e+00
1.803059757114423567e-01 7.898097848101087948e+00
1.812676075815973786e-01 7.946011047956474727e+00
1.822292394517524006e-01 7.915777020133582198e+00
1.831908713219074225e-01 7.663528814186197025e+00
1.841525031920624444e-01 7.814457649482026369e+00
1.851141350622174664e-01 7.520476374682985465e+00
1.860757669323724883e-01 7.041652781415375983e+00
1.870373988025275380e-01 6.967549982365742522e+00
1.879990306726825322e-01 6.696037998217395426e+00
1.889606625428375819e-01 6.525314459814023138e+00
1.899222944129926038e-01 6.017528076840296336e+00
1.908839262831476258e-01 5.907621155460436313e+00
1.918455581533026477e-01 6.102890865306861201e+00
1.928071900234576974e-01 5.881816814871104526e+00
1.937688218936126916e-01 5.417626978903303581e+00
1.947304537637677413e-01 5.557201840152053762e+00
1.956920856339227632e-01 5.378932564042969489e+00
1.966537175040777852e-01 5.020571380962454811e+00
1.976153493742328071e-01 4.804303292125148062e+00
1.985769812443878291e-01 4.693149454548276367e+00
1.995386131145428510e-01 4.553238516999009278e+00
2.005002449846978729e-01 4.392201486797464582e+00
2.014618768548528949e-01 4.161616467870743463e+00
2.024235087250079168e-01 3.929729773821090788e+00
2.033851405951629665e-01 3.769441642254633962e+00
2.043467724653179884e-01 3.511365056334099677e+00
2.053084043354730381e-01 3.147045486567190409e+00
2.062700362056280046e-01 3.032518652464890607e+00
2.072316680757830543e-01 2.754193387639105595e+00
2.081932999459380762e-01 2.509449017405778193e+00
2.091549318160931259e-01 2.343053814685916336e+00
2.101165636862481478e-01 2.342310844579625240e+00
2.110781955564031698e-01 2.422308030500261111e+00
2.120398274265581640e-01 2.014374063931512637e+00
2.130014592967132137e-01 1.779093082523719005e+00
2.139630911668682356e-01 1.385281891661421128e+00
2.149247230370232575e-01 1.216091229326877965e+00
2.158863549071783072e-01 1.465753561982520381e+00
2.168479867773333014e-01 1.388719624269818098e+00
2.178096186474883234e-01 1.256509696862917025e+00
2.187712505176433453e-01 9.275798759765905288e-01
2.197328823877983950e-01 8.488589373886519240e-01
2.206945142579534169e-01 8.932647946714986631e-01
2.216561461281084666e-01 7.874497701801566052e-01
2.226177779982634330e-01 7.465444003169601217e-01
2.235794098684184827e-01 6.837936495444161267e-01
2.245410417385735047e-01 6.017579567851498723e-01
2.255026736087285544e-01 5.176864202601016984e-01
2.264643054788835763e-01 6.536711676782438474e-01
2.274259373490385983e-01 5.027525419291691833e-01
2.283875692191935924e-01 3.538794695159914738e-01
2.293492010893486421e-01 4.479283775207605345e-01
2.303108329595036641e-01 5.929031923816623362e-01
2.312724648296586860e-01 5.820891814416135901e-01
2.322340966998137357e-01 6.992814826170317133e-01
2.331957285699687299e-01 3.283376906691657382e-01
2.341573604401237518e-01 3.264508355087478719e-01
2.351189923102787738e-01 3.713468146562561856e-01
2.360806241804338235e-01 4.973514944632491108e-01
2.370422560505888454e-01 5.287477303107301907e-01
2.380038879207438951e-01 4.239070683559589270e-01
2.389655197908988615e-01 4.784143781171685816e-01
2.399271516610539112e-01 3.329818518829981144e-01
2.408887835312089332e-01 3.933429198807836258e-01
2.418504154013639829e-01 3.954083723366927927e-01
2.428120472715190048e-01 3.820839352233633690e-01
2.437736791416740267e-01 5.308611771133691093e-01
2.447353110118290209e-01 5.990585377588395488e-01
2.456969428819840706e-01 6.758510115718756595e-01
2.466585747521390926e-01 7.706176859782942756e-01
2.476202066222941145e-01 9.729191766691016596e-01
2.485818384924491642e-01 6.597016523512628794e-01
2.495434703626041584e-01 5.607383686653690802e-01
2.505051022327591803e-01 6.532960782600198968e-01
2.514667341029142023e-01 7.128725517940353029e-01
2.524283659730692242e-01 7.270224365485198348e-01
2.533899978432243016e-01 8.417041543927190617e-01
2.543516297133793236e-01 9.358067730983421484e-01
2.553132615835342900e-01 9.140621399562363081e-01
2.562748934536893120e-01 6.759416974140997070e-01
2.572365253238443894e-01 7.375715036668282210e-01
2.581981571939994113e-01 1.046032859587825214e+00
2.591597890641544333e-01 1.053174305642098574e+00
2.601214209343094552e-01 1.048130947359656062e+00
2.610830528044644772e-01 1.056535035653318744e+00
2.620446846746194991e-01 1.063023390564890036e+00
2.630063165447745210e-01 1.133750810588281865e+00
2.639679484149295430e-01 1.155966707714398467e+00
2.649295802850845649e-01 1.303023761234065603e+00
2.658912121552395869e-01 1.234749183424142416e+00
2.668528440253946088e-01 1.118499453462579396e+00
2.678144758955496307e-01 1.211181402200100621e+00
2.687761077657046527e-01 1.115625633794458338e+00
2.697377396358597301e-01 1.286065628062754485e+00
2.706993715060147521e-01 1.322572205645123233e+00
2.716610033761697185e-01 1.183995218367272173e+00
2.726226352463247404e-01 1.232751767888323968e+00
2.735842671164798179e-01 1.212494379712772741e+00
2.745458989866348398e-01 1.184010052006211566e+00
2.755075308567898618e-01 1.359490585232723703e+00
2.764691627269448837e-01 1.375407360292530967e+00
2.774307945970999056e-01 1.172296188908276804e+00
2.783924264672549276e-01 1.062325977903039842e+00
2.793540583374099495e-01 1.166821986179442661e+00
2.803156902075649715e-01 9.724884007600813618e-01
2.812773220777199934e-01 9.685310191291023330e-01
2.822389539478750153e-01 1.167569557558703508e+00
2.832005858180300373e-01 1.057374830449791858e+00
2.841622176881850592e-01 9.063508661211585604e-01
2.851238495583400812e-01 1.045466263483341152e+00
2.860854814284951586e-01 1.148926535338443244e+00
2.870471132986501805e-01 1.124700596152756304e+00
2.880087451688051470e-01 1.059831968935256441e+00
2.889703770389601689e-01 1.098652324966280958e+00
2.899320089091152464e-01 9.264148269266954117e-01
2.908936407792702683e-01 9.672194002168872373e-01
2.918552726494252902e-01 8.781784132373715579e-01
2.928169045195803122e-01 8.386425480977379721e-01
2.937785363897353341e-01 8.883459979434782383e-01
2.947401682598903561e-01 8.854592047808473865e-01
2.957018001300453780e-01 7.223141921055216130e-01
2.966634320002003999e-01 5.568612785674922350e-01
2.976250638703554219e-01 6.587877865776441411e-01
2.985866957405104993e-01 8.453739230908396962e-01
2.995483276106654658e-01 7.405801750259897176e-01
3.005099594808204877e-01 6.840237731584473124e-01
3.014715913509755651e-01 7.340166299724941723e-01
3.024332232211305871e-01 8.458554163092841804e-01
3.033948550912856090e-01 4.923730827050505354e-01
3.043564869614405755e-01 5.287092618785997900e-01
3.053181188315956529e-01 5.856179085521127092e-01
3.062797507017506748e-01 4.962315964448329453e-01
3.072413825719056968e-01 4.936492902489924006e-01
3.082030144420607187e-01 5.135292520999854560e-01
3.091646463122157407e-01 5.480923381223021806e-01
3.101262781823707626e-01 5.814082413014602935e-01
3.110879100525257845e-01 4.102524632200825749e-01
3.120495419226808065e-01 4.486543771273616699e-01
3.130111737928358284e-01 2.883527086355002211e-01
3.139728056629909059e-01 2.159172844961183557e-01
3.149344375331459278e-01 2.816227880346353629e-01
3.158960694033008942e-01 4.366227723368822922e-01
3.168577012734559162e-01 4.511298290291954061e-01
3.178193331436109936e-01 5.476393710522060587e-01
3.187809650137660156e-01 3.928214920701869062e-01
3.197425968839210375e-01 1.987976102408914869e-01
3.207042287540760039e-01 2.082674748655151120e-01
3.216658606242310814e-01 2.097076913610962379e-01
3.226274924943861033e-01 2.306369250809154892e-01
3.235891243645411253e-01 2.518803741187483070e-01
3.245507562346961472e-01 2.056971348199532201e-01
3.255123881048511691e-01 1.869771659518733031e-01
3.264740199750061911e-01 3.410800152353132830e-01
3.274356518451612130e-01 4.585983998101426096e-01
3.283972837153162350e-01 5.562500784999855341e-01
3.293589155854712569e-01 9.202014370844615598e-01
3.303205474556263344e-01 6.478794672335297378e-01
3.312821793257813563e-01 5.542023883636097992e-01
3.322438111959363227e-01 4.173283738616042626e-01
3.332054430660913447e-01 2.951657727843581824e-01
3.341670749362464221e-01 2.921467844067677788e-01
3.351287068064014441e-01 2.443259172810137159e-01
3.360903386765564660e-01 6.128125078651436297e-02
3.370519705467114324e-01 2.195899038891546695e-01
3.380136024168665099e-01 4.273066603963542320e-01
3.389752342870215318e-01 3.430071588498506685e-01
3.399368661571765537e-01 2.787057027352339844e-01
3.408984980273315757e-01 1.600271955539760427e-01
3.418601298974865976e-01 2.823038592516873280e-01
3.428217617676416196e-01 3.586205439200185197e-01
3.437833936377966415e-01 1.747821278234198417e-01
3.447450255079516634e-01 1.437773312846424290e-01
3.457066573781066854e-01 1.984110974911637015e-01
3.466682892482617628e-01 3.675168200188423384e-01
3.476299211184167848e-01 4.649368303613030662e-01
3.485915529885717512e-01 4.377914886217695312e-01
3.495531848587267731e-01 3.900385783893902669e-01
3.505148167288818506e-01 4.123557961082866541e-01
3.514764485990368725e-01 2.659945386156117308e-01
3.524380804691918945e-01 2.759133697244067207e-01
3.533997123393468609e-01 3.044118417720298453e-01
3.543613442095019384e-01 3.986872380002211003e-01
3.553229760796569603e-01 4.205746032229136233e-01
3.562846079498119822e-01 4.856722887182698400e-01
3.572462398199670042e-01 4.405635437479951122e-01
3.582078716901220261e-01 3.485723286082098582e-01
3.591695035602770480e-01 5.531618749581994621e-01
3.601311354304320700e-01 4.763666428355115556e-01
3.610927673005870919e-01 2.554683291109896004e-01
3.620543991707421139e-01 4.152592826750911570e-01
3.630160310408971913e-01 4.423821595077548352e-01
3.639776629110522133e-01 5.026413587195754928e-01
3.649392947812071797e-01 6.064132448207075754e-01
3.659009266513622016e-01 5.441906339830140382e-01
3.668625585215172791e-01 5.437033449908348359e-01
3.678241903916723010e-01 6.634514787051770668e-01
3.687858222618273230e-01 5.003472694070190130e-01
3.697474541319822894e-01 5.025733598027315452e-01
3.707090860021373668e-01 4.904850617924836342e-01
3.716707178722923888e-01 4.925072519147200012e-01
3.726323497424474107e-01 5.126297356806084338e-01
3.735939816126024327e-01 5.144516393118365727e-01
3.745556134827574546e-01 5.635911768162351621e-01
3.755172453529124765e-01 4.491197251445449012e-01
3.764788772230674985e-01 3.707583040743607228e-01
3.774405090932225204e-01 4.326229999795927483e-01
3.784021409633775423e-01 5.355939914208995845e-01
3.793637728335326198e-01 3.495970033791060416e-01
3.803254047036876417e-01 3.723165016043772368e-01
3.812870365738426082e-01 4.071628269105325160e-01
3.822486684439976301e-01 3.959617671842750042e-01
3.832103003141527076e-01 3.247561911388672229e-01
3.841719321843077295e-01 3.849911575185842594e-01
3.851335640544627514e-01 3.469280604608826479e-01
3.860951959246177734e-01 2.849081046630672631e-01
3.870568277947727953e-01 3.015537144351050358e-01
3.880184596649278173e-01 3.536953993432980781e-01
3.889800915350828392e-01 4.323794262246636322e-01
3.899417234052378611e-01 3.793785936758276023e-01
3.909033552753928831e-01 3.457804662377590432e-01
3.918649871455479050e-01 2.245655477851720150e-01
3.928266190157029270e-01 3.384720775805298842e-01
3.937882508858579489e-01 4.090770883432028882e-01
3.947498827560129708e-01 4.679879745829502724e-01
3.957115146261680483e-01 4.011696432556597358e-01
3.966731464963230702e-01 3.967404493498527529e-01
3.976347783664780366e-01 3.734326564462762121e-01
3.985964102366330586e-01 3.457656485038995697e-01
3.995580421067881360e-01 2.897305803038037197e-01
4.005196739769430470e-01 3.271937943648914882e-01
4.014813058470981244e-01 3.133581931663300679e-01
4.024429377172531463e-01 4.180881378693364070e-01
4.034045695874082238e-01 4.942267160894253664e-01
