# q (1/Angstrom), Intensity (arb)
2.067508526570814575e-02 7.783318173084524005e+02
2.163671713586316769e-02 8.148904852902911671e+02
2.259834900601819310e-02 8.473409940415858728e+02
2.355998087617321851e-02 8.533770934330020737e+02
2.452161274632824739e-02 8.588096941194686451e+02
2.548324461648326933e-02 8.640117529110810892e+02
2.644487648663829821e-02 8.630751322274201129e+02
2.740650835679332709e-02 8.626434219131223244e+02
2.836814022694834903e-02 8.611524204092760328e+02
2.932977209710337443e-02 8.564710246475018494e+02
3.029140396725839637e-02 8.480045624759229668e+02
3.125303583741342178e-02 8.415228242747222112e+02
3.221466770756845066e-02 8.355082400805374618e+02
3.317629957772347260e-02 8.279659435960531937e+02
3.413793144787850148e-02 8.177810354226193112e+02
3.509956331803352342e-02 8.090151599651192100e+02
3.606119518818855230e-02 8.052622540293125439e+02
3.702282705834358117e-02 7.967816845187353465e+02
3.798445892849860311e-02 7.873165660801810191e+02
3.894609079865363199e-02 7.798834503491412988e+02
3.990772266880865393e-02 7.740355506695001395e+02
4.086935453896367587e-02 7.670387366708754371e+02
4.183098640911870475e-02 7.549485056367651623e+02
4.279261827927372669e-02 7.405288218877400368e+02
4.375425014942875557e-02 7.290600076710653639e+02
4.471588201958377751e-02 7.179740898292260454e+02
4.567751388973880639e-02 7.050700156237438705e+02
4.663914575989382832e-02 6.927879790441177192e+02
4.760077763004885720e-02 6.810980209824731446e+02
4.856240950020387914e-02 6.718489572704235115e+02
4.952404137035890108e-02 6.581154716084887468e+02
5.048567324051392302e-02 6.427978736277118514e+02
5.144730511066895190e-02 6.320000515908564012e+02
5.240893698082397384e-02 6.185673219076568330e+02
5.337056885097899578e-02 6.001552805883965220e+02
5.433220072113403160e-02 5.867059200375415458e+02
5.529383259128905354e-02 5.734026562476193476e+02
5.625546446144407547e-02 5.590733237330321117e+02
5.721709633159910435e-02 5.442771344540459495e+02
5.817872820175412629e-02 5.286532389204413676e+02
5.914036007190914823e-02 5.166066432994141451e+02
6.010199194206417017e-02 5.029609925205959939e+02
6.106362381221920599e-02 4.872366774010056361e+02
6.202525568237422793e-02 4.715397390807083298e+02
6.298688755252924987e-02 4.572929291263519076e+02
6.394851942268428568e-02 4.451730769581075151e+02
6.491015129283930762e-02 4.322678417952010932e+02
6.587178316299432956e-02 4.176997124483218613e+02
6.683341503314935150e-02 4.033071150451747826e+02
6.779504690330438732e-02 3.911978817637951806e+02
6.875667877345940926e-02 3.785923579141620507e+02
6.971831064361443120e-02 3.637768814357974065e+02
7.067994251376945314e-02 3.519845865803679317e+02
7.164157438392447508e-02 3.410596923732911137e+02
7.260320625407949702e-02 3.282779676356953473e+02
7.356483812423453283e-02 3.171976424061906528e+02
7.452646999438955477e-02 3.057017409422483638e+02
7.548810186454457671e-02 2.937417742002148771e+02
7.644973373469959865e-02 2.817323667557301974e+02
7.741136560485463447e-02 2.706081061616224019e+02
7.837299747500965641e-02 2.591285842453689270e+02
7.933462934516467835e-02 2.490071261616865286e+02
8.029626121531971417e-02 2.380402957466103828e+02
8.125789308547473611e-02 2.273937743410820360e+02
8.221952495562975805e-02 2.181643198795588603e+02
8.318115682578479386e-02 2.081636506997948004e+02
8.414278869593981580e-02 1.999898160296720278e+02
8.510442056609483774e-02 1.915987278298086665e+02
8.606605243624985968e-02 1.814317768714461181e+02
8.702768430640489550e-02 1.712589201311118359e+02
8.798931617655991744e-02 1.631913520985278581e+02
8.895094804671493938e-02 1.547833515641501378e+02
8.991257991686996132e-02 1.472446189379343195e+02
9.087421178702498326e-02 1.391451924681522883e+02
9.183584365718000520e-02 1.325238248124543645e+02
9.279747552733502713e-02 1.257993845380625544e+02
9.375910739749006295e-02 1.186485127782124636e+02
9.472073926764508489e-02 1.118526496402769226e+02
9.568237113780010683e-02 1.046467086834632312e+02
9.664400300795514265e-02 9.815862929776497481e+01
9.760563487811016459e-02 9.245534572817106778e+01
9.856726674826518653e-02 8.707867898250589178e+01
9.952889861842022234e-02 8.155958697183372408e+01
1.004905304885752443e-01 7.677852017145947627e+01
1.014521623587302801e-01 7.180685084169628851e+01
1.024137942288853020e-01 6.659896229594744455e+01
1.033754260990403240e-01 6.207651495086845728e+01
1.043370579691953459e-01 5.799654239461280980e+01
1.052986898393503817e-01 5.357801266466297818e+01
1.062603217095053898e-01 4.904487119633868986e+01
1.072219535796604256e-01 4.551411309539936667e+01
1.081835854498154614e-01 4.196491531232903327e+01
1.091452173199704695e-01 3.857611353322302250e+01
1.101068491901255053e-01 3.592541726136825275e+01
1.110684810602805411e-01 3.308175699728407437e+01
1.120301129304355492e-01 2.987487666336249248e+01
1.129917448005905850e-01 2.761129201642259545e+01
1.139533766707456208e-01 2.503653350776863462e+01
1.149150085409006289e-01 2.273417456242691159e+01
1.158766404110556647e-01 2.048824271294264676e+01
1.168382722812106728e-01 1.864879500845774984e+01
1.177999041513657086e-01 1.675326867394765884e+01
1.187615360215207305e-01 1.512531088334318241e+01
1.197231678916757525e-01 1.348952815126330762e+01
1.206847997618307744e-01 1.197621811687256255e+01
1.216464316319858102e-01 1.034100392254003253e+01
1.226080635021408183e-01 9.240693583560922519e+00
1.235696953722958541e-01 8.213704373688926808e+00
1.245313272424508899e-01 6.784346765114136701e+00
1.254929591126059119e-01 5.821888265988587108e+00
1.264545909827609338e-01 5.346684891571339193e+00
1.274162228529159557e-01 4.768054779322852710e+00
1.283778547230709777e-01 4.290905780899397115e+00
1.293394865932259996e-01 3.795192567573458575e+00
1.303011184633810493e-01 2.960828098695262867e+00
1.312627503335360435e-01 2.332689887905420534e+00
1.322243822036910932e-01 2.282784156319092261e+00
1.331860140738460874e-01 2.199813578744787890e+00
1.341476459440011371e-01 1.875674586943990363e+00
1.351092778141561590e-01 1.920683684817177550e+00
1.360709096843111809e-01 1.676063197048492270e+00
1.370325415544662029e-01 1.473766624215162580e+00
1.379941734246212526e-01 1.547653033305113723e+00
1.389558052947762468e-01 1.436675885614487669e+00
1.399174371649312965e-01 1.772008335352431629e+00
1.408790690350863184e-01 1.862261967906466253e+00
1.418407009052413403e-01 2.077421786296437034e+00
1.428023327753963623e-01 2.178690594556329074e+00
1.437639646455513842e-01 2.573597227783082531e+00
1.447255965157064062e-01 2.523794596009082625e+00
1.456872283858614281e-01 2.773473381425020534e+00
1.466488602560164778e-01 3.070563962403536351e+00
1.476104921261714720e-01 3.073517422896433260e+00
1.485721239963265217e-01 3.640949206755710321e+00
1.495337558664815436e-01 3.594892322104595195e+00
1.504953877366365655e-01 3.896558041284553298e+00
1.514570196067915875e-01 4.358325089301651190e+00
1.524186514769466094e-01 4.588281526440386671e+00
1.533802833471016314e-01 4.793102525645750234e+00
1.543419152172566811e-01 4.934633914162198209e+00
1.553035470874116752e-01 5.194637414823638721e+00
1.562651789575667249e-01 5.621312628729160821e+00
1.572268108277217469e-01 5.760708241498729620e+00
1.581884426978767688e-01 6.143119205048837017e+00
1.591500745680317908e-01 6.791915636774042753e+00
1.601117064381868405e-01 6.744685091218645567e+00
1.610733383083418346e-01 6.908521165356241056e+00
1.620349701784968843e-01 6.834741479076541282e+00
1.629966020486519063e-01 7.087973476796374683e+00
1.639582339188069282e-01 7.294049794400301323e+00
1.649198657889619501e-01 7.517718446270929888e+00
1.658814976591169721e-01 7.482418415182827687e+00
1.668431295292719940e-01 7.416251128754684174e+00
1.678047613994270160e-01 7.521237116702788938e+00
1.687663932695820379e-01 7.672423956127271794e+00
1.697280251397370598e-01 7.798155817704046200e+00
1.706896570098921095e-01 7.739194402066967626e+00
1.716512888800471037e-01 7.842867363741810038e+00
1.726129207502021534e-01 8.036269995320779458e+00
1.735745526203571754e-01 8.000021471373568005e+00
1.745361844905121973e-01 7.594525311949713142e+00
1.754978163606672192e-01 7.525986335417520934e+00
1.764594482308222689e-01 7.448906823941264577e+00
1.774210801009772631e-01 7.713573686433896626e+00
1.783827119711323128e-01 7.670395975796562738e+00
1.793443438412873348e-01 7.393138944147310099e+00
1.803059757114423567e-01 7.573050776407189488e+00
1.812676075815973786e-01 7.299265421202182580e+00
1.822292394517524006e-01 7.275108617826269608e+00
1.831908713219074225e-01 7.156989504476495512e+00
1.841525031920624444e-01 7.204891602766128500e+00
1.851141350622174664e-01 7.218751921372838609e+00
1.860757669323724883e-01 6.980550061487942770e+00
1.870373988025275380e-01 6.549733724968220372e+00
1.879990306726825322e-01 6.705022259904811932e+00
1.889606625428375819e-01 6.401284474780361222e+00
1.899222944129926038e-01 6.094056015206508192e+00
1.908839262831476258e-01 5.947371845891687769e+00
1.918455581533026477e-01 5.981581542290022924e+00
1.928071900234576974e-01 5.539527231358611914e+00
1.937688218936126916e-01 5.301231214904856159e+00
1.947304537637677413e-01 5.390858561892386547e+00
1.956920856339227632e-01 5.019773136730830032e+00
1.966537175040777852e-01 4.893335559794660838e+00
1.976153493742328071e-01 4.380333364423997011e+00
1.985769812443878291e-01 4.034716843634928551e+00
1.995386131145428510e-01 4.065994917687469012e+00
2.005002449846978729e-01 3.927859259788498036e+00
2.014618768548528949e-01 3.650708241752610661e+00
2.024235087250079168e-01 3.698474662001636659e+00
2.033851405951629665e-01 3.597716867018579734e+00
2.043467724653179884e-01 2.474270462031036288e+00
2.053084043354730381e-01 2.487333691778772504e+00
2.062700362056280046e-01 2.859436528540662437e+00
2.072316680757830543e-01 2.493951738094679627e+00
2.081932999459380762e-01 2.394582696026542834e+00
2.091549318160931259e-01 2.338440427527025633e+00
2.101165636862481478e-01 2.200615458120349643e+00
2.110781955564031698e-01 2.372826537718353279e+00
2.120398274265581640e-01 1.921591996475488173e+00
2.130014592967132137e-01 1.639801494645947599e+00
2.139630911668682356e-01 1.703040079797524697e+00
2.149247230370232575e-01 1.607333088742631588e+00
2.158863549071783072e-01 1.408942621685376650e+00
2.168479867773333014e-01 1.480587373965352782e+00
2.178096186474883234e-01 1.333489291581219760e+00
2.187712505176433453e-01 1.240936994718385478e+00
2.197328823877983950e-01 9.572089623432944450e-01
2.206945142579534169e-01 9.141571216707440328e-01
2.216561461281084666e-01 8.487822513139704483e-01
2.226177779982634330e-01 8.073192445014711893e-01
2.235794098684184827e-01 7.306543584009581593e-01
2.245410417385735047e-01 6.241769685662390543e-01
2.255026736087285544e-01 4.550120539101989436e-01
2.264643054788835763e-01 4.553259757904513094e-01
2.274259373490385983e-01 3.874162001909908781e-01
2.283875692191935924e-01 6.188311834346897911e-01
2.293492010893486421e-01 8.653682364808972238e-01
2.303108329595036641e-01 8.673620780443052070e-01
2.312724648296586860e-01 5.831770749738183213e-01
2.322340966998137357e-01 5.814115090330140845e-01
2.331957285699687299e-01 3.565263114002590328e-01
2.341573604401237518e-01 2.992752217395597825e-01
2.351189923102787738e-01 3.111907414803027905e-01
2.360806241804338235e-01 2.672609399045775547e-01
2.370422560505888454e-01 1.298788844547935639e-01
2.380038879207438951e-01 4.172468884543185652e-01
2.389655197908988615e-01 2.943678191515139986e-01
2.399271516610539112e-01 3.641283483297250712e-01
2.408887835312089332e-01 5.440134668191518585e-01
2.418504154013639829e-01 5.735853312698324658e-01
2.428120472715190048e-01 6.371092164040526029e-01
2.437736791416740267e-01 4.389324094874460513e-01
2.447353110118290209e-01 2.995932283531708151e-01
2.456969428819840706e-01 6.149310821836699859e-01
2.466585747521390926e-01 6.216807506135744177e-01
2.476202066222941145e-01 4.774626095491925071e-01
2.485818384924491642e-01 5.502452079962729670e-01
2.495434703626041584e-01 6.698547235157583657e-01
2.505051022327591803e-01 7.679358821750668085e-01
2.514667341029142023e-01 8.615614679492011874e-01
2.524283659730692242e-01 9.725210048955652553e-01
2.533899978432243016e-01 1.111635636908381741e+00
2.543516297133793236e-01 9.733387298452207403e-01
2.553132615835342900e-01 9.269578830716298512e-01
2.562748934536893120e-01 1.215760016362633422e+00
2.572365253238443894e-01 1.202460847352071482e+00
2.581981571939994113e-01 1.129799304450720854e+00
2.591597890641544333e-01 1.297646356114622535e+00
2.601214209343094552e-01 1.291248522565410894e+00
2.610830528044644772e-01 1.314005964711121521e+00
2.620446846746194991e-01 1.290060954593950981e+00
2.630063165447745210e-01 1.318208200303210731e+00
2.639679484149295430e-01 1.311950631710267601e+00
2.649295802850845649e-01 1.143465212276343124e+00
2.658912121552395869e-01 1.307770554098691917e+00
2.668528440253946088e-01 1.169279616787136433e+00
2.678144758955496307e-01 1.116830618545574083e+00
2.687761077657046527e-01 1.096128396560072105e+00
2.697377396358597301e-01 1.174963226484262435e+00
2.706993715060147521e-01 1.227679564030079717e+00
2.716610033761697185e-01 1.203421163538454408e+00
2.726226352463247404e-01 1.222336480524443658e+00
2.735842671164798179e-01 1.269883464374380821e+00
2.745458989866348398e-01 1.272987835746413054e+00
2.755075308567898618e-01 1.203293039667457265e+00
2.764691627269448837e-01 1.172446444034353163e+00
2.774307945970999056e-01 1.213611550121520111e+00
2.783924264672549276e-01 1.206751342887205425e+00
2.793540583374099495e-01 1.207687007766590881e+00
2.803156902075649715e-01 1.350887123226190312e+00
2.812773220777199934e-01 1.206715638660959655e+00
2.822389539478750153e-01 1.199296125888011488e+00
2.832005858180300373e-01 1.440407838457446132e+00
2.841622176881850592e-01 1.289684006940099437e+00
2.851238495583400812e-01 1.276321910984751895e+00
2.860854814284951586e-01 1.001598644007387406e+00
2.870471132986501805e-01 1.087651129401049133e+00
2.880087451688051470e-01 1.129768459255554802e+00
2.889703770389601689e-01 1.075607120039482112e+00
2.899320089091152464e-01 9.588098760729231174e-01
2.908936407792702683e-01 9.937831710556537246e-01
2.918552726494252902e-01 8.149410550248425977e-01
2.928169045195803122e-01 9.287545917320656486e-01
2.937785363897353341e-01 8.083130979019053086e-01
2.947401682598903561e-01 8.559055481381498964e-01
2.957018001300453780e-01 8.937171571268329728e-01
2.966634320002003999e-01 8.490144075112446842e-01
2.976250638703554219e-01 7.081865945913712324e-01
2.985866957405104993e-01 7.887721140155790067e-01
2.995483276106654658e-01 7.697017347468353421e-01
3.005099594808204877e-01 6.795500178505697875e-01
3.014715913509755651e-01 5.022121526971687899e-01
3.024332232211305871e-01 6.435252399314101979e-01
3.033948550912856090e-01 6.213292493169895181e-01
3.043564869614405755e-01 4.520263881956481100e-01
3.053181188315956529e-01 4.095002896395918413e-01
3.062797507017506748e-01 4.224403790646391599e-01
3.072413825719056968e-01 5.989730383023328386e-01
3.082030144420607187e-01 6.398894503049312732e-01
3.091646463122157407e-01 5.868235421617207237e-01
3.101262781823707626e-01 4.982262469598985888e-01
3.110879100525257845e-01 4.177420777086418013e-01
3.120495419226808065e-01 2.268139008960972092e-01
3.130111737928358284e-01 9.149340709092257384e-02
3.139728056629909059e-01 3.775195717421802044e-01
3.149344375331459278e-01 4.596838155338538456e-01
3.158960694033008942e-01 4.328829190568086460e-01
3.168577012734559162e-01 3.844105821514602894e-01
3.178193331436109936e-01 3.879408263691672687e-01
3.187809650137660156e-01 5.524613372413575973e-01
3.197425968839210375e-01 5.275725044621601967e-01
3.207042287540760039e-01 4.322916103696954337e-01
3.216658606242310814e-01 5.034097650418267733e-01
3.226274924943861033e-01 3.089157450992452425e-01
3.235891243645411253e-01 2.737037539833870881e-01
3.245507562346961472e-01 3.470062949431707011e-01
3.255123881048511691e-01 2.616114601416938967e-01
3.264740199750061911e-01 3.391610338381916279e-01
3.274356518451612130e-01 4.875048890612703190e-01
3.283972837153162350e-01 3.818277750367577994e-01
3.293589155854712569e-01 5.128449627069855410e-01
3.303205474556263344e-01 3.377992483898957232e-01
3.312821793257813563e-01 4.399276078609126728e-01
3.322438111959363227e-01 4.028718344659729667e-01
3.332054430660913447e-01 4.598661513669171086e-01
3.341670749362464221e-01 3.222740247966946470e-01
3.351287068064014441e-01 3.566511110771095616e-01
3.360903386765564660e-01 3.199059986838079794e-01
3.370519705467114324e-01 3.431509348099481826e-01
3.380136024168665099e-01 2.789089434223157582e-01
3.389752342870215318e-01 1.953146133069445511e-01
3.399368661571765537e-01 2.809067327512977386e-01
3.408984980273315757e-01 4.041788663245959867e-01
3.418601298974865976e-01 3.991419401589979543e-01
3.428217617676416196e-01 3.963077401919896658e-01
3.437833936377966415e-01 2.527181979906707454e-01
3.447450255079516634e-01 3.149612431363202347e-01
3.457066573781066854e-01 3.723536511679483851e-01
3.466682892482617628e-01 4.566688532345608564e-01
3.476299211184167848e-01 6.679923969095007408e-01
3.485915529885717512e-01 5.465367321117255983e-01
3.495531848587267731e-01 7.266301095709266633e-01
3.505148167288818506e-01 6.225958878146720110e-01
3.514764485990368725e-01 3.682831274270768063e-01
3.524380804691918945e-01 4.858234814767463661e-01
3.533997123393468609e-01 4.566806228679816115e-01
3.543613442095019384e-01 2.752396168338044902e-01
3.553229760796569603e-01 3.601981707299515278e-01
3.562846079498119822e-01 6.008311616208423800e-01
3.572462398199670042e-01 5.633863765243560806e-01
3.582078716901220261e-01 3.022972920366946425e-01
3.591695035602770480e-01 2.276859288582073759e-01
3.601311354304320700e-01 3.329915467245392335e-01
3.610927673005870919e-01 2.439817200041254353e-01
3.620543991707421139e-01 3.528732588738989762e-01
3.630160310408971913e-01 4.995277878928483517e-01
3.639776629110522133e-01 6.708382848064040616e-01
3.649392947812071797e-01 5.748575045253900839e-01
3.659009266513622016e-01 4.339619466176714013e-01
3.668625585215172791e-01 3.907056411798990325e-01
3.678241903916723010e-01 5.895013397974189218e-01
3.687858222618273230e-01 6.004559604912849125e-01
3.697474541319822894e-01 5.397531690127763682e-01
3.707090860021373668e-01 4.372557802532099913e-01
3.716707178722923888e-01 3.732612910184691657e-01
3.726323497424474107e-01 5.402665308731506855e-01
3.735939816126024327e-01 5.564911545377029256e-01
3.745556134827574546e-01 4.391189296520856544e-01
3.755172453529124765e-01 5.393838990012085333e-01
3.764788772230674985e-01 5.489262285464704405e-01
3.774405090932225204e-01 6.432657310473821610e-01
3.784021409633775423e-01 5.992274181162535740e-01
3.793637728335326198e-01 4.822247091508344852e-01
3.803254047036876417e-01 5.337010054985888985e-01
3.812870365738426082e-01 5.231049385945958363e-01
3.822486684439976301e-01 4.921575302584777489e-01
3.832103003141527076e-01 4.342764723730816456e-01
3.841719321843077295e-01 4.086573743497616817e-01
3.851335640544627514e-01 4.011188451495080187e-01
3.860951959246177734e-01 4.932859141324037466e-01
3.870568277947727953e-01 4.827946325990843945e-01
3.880184596649278173e-01 4.980046650787031126e-01
3.889800915350828392e-01 5.246255911638648683e-01
3.899417234052378611e-01 5.100869741967279936e-01
3.909033552753928831e-01 4.760301339052936953e-01
3.918649871455479050e-01 5.500924769073840537e-01
3.928266190157029270e-01 4.123242558575910266e-01
3.937882508858579489e-01 5.005707063042201810e-01
3.947498827560129708e-01 4.974935594581708642e-01
3.957115146261680483e-01 3.572956499122241780e-01
3.966731464963230702e-01 2.790287989971353966e-01
3.976347783664780366e-01 2.030021662741567923e-01
3.985964102366330586e-01 3.799343915766222324e-01
3.995580421067881360e-01 3.752705573825139140e-01
4.005196739769430470e-01 3.386491655838206327e-01
4.014813058470981244e-01 4.104412371351244815e-01
4.024429377172531463e-01 5.374025819194798714e-01
4.034045695874082238e-01 5.616184197190001726e-01
