# q (1/Angstrom), Intensity (arb)
2.067508526570814575e-02 8.160480911154845671e+02
2.163671713586316769e-02 8.565180192091659137e+02
2.259834900601819310e-02 8.887883664453562460e+02
2.355998087617321851e-02 8.947838023495327207e+02
2.452161274632824739e-02 8.969096940735900034e+02
2.548324461648326933e-02 9.031544419189416431e+02
2.644487648663829821e-02 8.998990703017205988e+02
2.740650835679332709e-02 8.944958944234755336e+02
2.836814022694834903e-02 8.905316601659386606e+02
2.932977209710337443e-02 8.866805356246053407e+02
3.029140396725839637e-02 8.812387949271195566e+02
3.125303583741342178e-02 8.757050797979593426e+02
3.221466770756845066e-02 8.697027314785131011e+02
3.317629957772347260e-02 8.588094673691707612e+02
3.413793144787850148e-02 8.539258306400099627e+02
3.509956331803352342e-02 8.514651292793722632e+02
3.606119518818855230e-02 8.459133434188113370e+02
3.702282705834358117e-02 8.327719381312942915e+02
3.798445892849860311e-02 8.203630338914410913e+02
3.894609079865363199e-02 8.099165976604590469e+02
3.990772266880865393e-02 8.055307215156246912e+02
4.086935453896367587e-02 7.978902703199706821e+02
4.183098640911870475e-02 7.867653243473434941e+02
4.279261827927372669e-02 7.739370658472088280e+02
4.375425014942875557e-02 7.587676888072005568e+02
4.471588201958377751e-02 7.463446701618813677e+02
4.567751388973880639e-02 7.349795089848919361e+02
4.663914575989382832e-02 7.223755805693742786e+02
4.760077763004885720e-02 7.098960063615406852e+02
4.856240950020387914e-02 7.009630687862891136e+02
4.952404137035890108e-02 6.881209481491973747e+02
5.048567324051392302e-02 6.742400693702210219e+02
5.144730511066895190e-02 6.594707544251410809e+02
5.240893698082397384e-02 6.448597050810011524e+02
5.337056885097899578e-02 6.293043575505785157e+02
5.433220072113403160e-02 6.122639323916765761e+02
5.529383259128905354e-02 5.981853020711992031e+02
5.625546446144407547e-02 5.816145402117172125e+02
5.721709633159910435e-02 5.658756220904423344e+02
5.817872820175412629e-02 5.504922320328371370e+02
5.914036007190914823e-02 5.384466110068232183e+02
6.010199194206417017e-02 5.237675407382264439e+02
6.106362381221920599e-02 5.079102180641969539e+02
6.202525568237422793e-02 4.936457310171962831e+02
6.298688755252924987e-02 4.802392747885277231e+02
6.394851942268428568e-02 4.681494864399575135e+02
6.491015129283930762e-02 4.540040551483332365e+02
6.587178316299432956e-02 4.396069684803053974e+02
6.683341503314935150e-02 4.251566305905305398e+02
6.779504690330438732e-02 4.116309610548875071e+02
6.875667877345940926e-02 3.976007327246887826e+02
6.971831064361443120e-02 3.831569758353771817e+02
7.067994251376945314e-02 3.693705530224576137e+02
7.164157438392447508e-02 3.554602876534179359e+02
7.260320625407949702e-02 3.433172050563524067e+02
7.356483812423453283e-02 3.326915903229744913e+02
7.452646999438955477e-02 3.188556397494013481e+02
7.548810186454457671e-02 3.059908929880675714e+02
7.644973373469959865e-02 2.962106190589742027e+02
7.741136560485463447e-02 2.849058290423454878e+02
7.837299747500965641e-02 2.719987258148853471e+02
7.933462934516467835e-02 2.619082351378123690e+02
8.029626121531971417e-02 2.509846271009715508e+02
8.125789308547473611e-02 2.401551269274113167e+02
8.221952495562975805e-02 2.290026152265976691e+02
8.318115682578479386e-02 2.185488516378750319e+02
8.414278869593981580e-02 2.080180587890632751e+02
8.510442056609483774e-02 1.982898716165373401e+02
8.606605243624985968e-02 1.897212196122348189e+02
8.702768430640489550e-02 1.816725681753138133e+02
8.798931617655991744e-02 1.729536694006424398e+02
8.895094804671493938e-02 1.630700584972549620e+02
8.991257991686996132e-02 1.546435320303605749e+02
9.087421178702498326e-02 1.462718308881340192e+02
9.183584365718000520e-02 1.399446892768237944e+02
9.279747552733502713e-02 1.326981726501037713e+02
9.375910739749006295e-02 1.241816085401063674e+02
9.472073926764508489e-02 1.176363260961437902e+02
9.568237113780010683e-02 1.106855014350810507e+02
9.664400300795514265e-02 1.033194973273826065e+02
9.760563487811016459e-02 9.699772551728858616e+01
9.856726674826518653e-02 9.200699501347469322e+01
9.952889861842022234e-02 8.691770981547301744e+01
1.004905304885752443e-01 8.118995744851594054e+01
1.014521623587302801e-01 7.519605184623195271e+01
1.024137942288853020e-01 7.081740580249024219e+01
1.033754260990403240e-01 6.568697860201882577e+01
1.043370579691953459e-01 6.028932328645088035e+01
1.052986898393503817e-01 5.570137947512040455e+01
1.062603217095053898e-01 5.187742370333238995e+01
1.072219535796604256e-01 4.833489186600688470e+01
1.081835854498154614e-01 4.501941332878480040e+01
1.091452173199704695e-01 4.126566492578763246e+01
1.101068491901255053e-01 3.797890924964414694e+01
1.110684810602805411e-01 3.511151222073554834e+01
1.120301129304355492e-01 3.235564848858322762e+01
1.129917448005905850e-01 2.903009115354121050e+01
1.139533766707456208e-01 2.629922549641258200e+01
1.149150085409006289e-01 2.396048007216501219e+01
1.158766404110556647e-01 2.107948660577408972e+01
1.168382722812106728e-01 1.915725895771404197e+01
1.177999041513657086e-01 1.751532575737318709e+01
1.187615360215207305e-01 1.555428401923316173e+01
1.197231678916757525e-01 1.368099563705071375e+01
1.206847997618307744e-01 1.124222105353275225e+01
1.216464316319858102e-01 1.059141694472458539e+01
1.226080635021408183e-01 9.504173724080118291e+00
1.235696953722958541e-01 8.738709849583017331e+00
1.245313272424508899e-01 7.427251600412578370e+00
1.254929591126059119e-01 6.594196056703790276e+00
1.264545909827609338e-01 6.012441514418487287e+00
1.274162228529159557e-01 4.699958297180884870e+00
1.283778547230709777e-01 4.065421233387048972e+00
1.293394865932259996e-01 3.695033557221385934e+00
1.303011184633810493e-01 2.919407278746263046e+00
1.312627503335360435e-01 2.522799791023679461e+00
1.322243822036910932e-01 2.673987847965189957e+00
1.331860140738460874e-01 2.413463872870771354e+00
1.341476459440011371e-01 1.919328342318433300e+00
1.351092778141561590e-01 1.913824008633845608e+00
1.360709096843111809e-01 1.832747317687555721e+00
1.370325415544662029e-01 1.718063473433932842e+00
1.379941734246212526e-01 1.655936547424005312e+00
1.389558052947762468e-01 1.670452863177452230e+00
1.399174371649312965e-01 1.713391880233235298e+00
1.408790690350863184e-01 1.558162485147491338e+00
1.418407009052413403e-01 1.747314997247350732e+00
1.428023327753963623e-01 2.001570685303313724e+00
1.437639646455513842e-01 2.059621350891031710e+00
1.447255965157064062e-01 2.612032792408115256e+00
1.456872283858614281e-01 2.973037449360415252e+00
1.466488602560164778e-01 3.141681928366988785e+00
1.476104921261714720e-01 3.346028089641713166e+00
1.485721239963265217e-01 3.452897810226165376e+00
1.495337558664815436e-01 3.939399881847286622e+00
1.504953877366365655e-01 4.070642761478200811e+00
1.514570196067915875e-01 4.451950049926349351e+00
1.524186514769466094e-01 4.855564199507529821e+00
1.533802833471016314e-01 4.894207980720093332e+00
1.543419152172566811e-01 5.247580375784654194e+00
1.553035470874116752e-01 5.823411582122250962e+00
1.562651789575667249e-01 5.878950116018174299e+00
1.572268108277217469e-01 6.056100764093510946e+00
1.581884426978767688e-01 6.181306584987261488e+00
1.591500745680317908e-01 6.407352483012839883e+00
1.601117064381868405e-01 6.909906915650342540e+00
1.610733383083418346e-01 7.077537869777856372e+00
1.620349701784968843e-01 7.269642825183510126e+00
1.629966020486519063e-01 7.438863546381146108e+00
1.639582339188069282e-01 7.456095074416083435e+00
1.649198657889619501e-01 7.181532814205585424e+00
1.658814976591169721e-01 7.792764812302266364e+00
1.668431295292719940e-01 8.157022990785197436e+00
1.678047613994270160e-01 8.186988426290959353e+00
1.687663932695820379e-01 8.041544948790953384e+00
1.697280251397370598e-01 8.113456393645993359e+00
1.706896570098921095e-01 8.111408066636414560e+00
1.716512888800471037e-01 8.036254072468715037e+00
1.726129207502021534e-01 8.072772708429454269e+00
1.735745526203571754e-01 7.860054855445898880e+00
1.745361844905121973e-01 7.947531583598202332e+00
1.754978163606672192e-01 8.081220589499842788e+00
1.764594482308222689e-01 8.049773286831289454e+00
1.774210801009772631e-01 8.108522896992930384e+00
1.783827119711323128e-01 8.051772400468166779e+00
1.793443438412873348e-01 7.991809465582672800e+00
1.803059757114423567e-01 7.790554038463632480e+00
1.812676075815973786e-01 7.520233587803044628e+00
1.822292394517524006e-01 7.378661339549950071e+00
1.831908713219074225e-01 7.283608458846689615e+00
1.841525031920624444e-01 7.264746036547357733e+00
1.851141350622174664e-01 7.149752406164175511e+00
1.860757669323724883e-01 6.964962861486981183e+00
1.870373988025275380e-01 6.850212383906320923e+00
1.879990306726825322e-01 6.651382578756319219e+00
1.889606625428375819e-01 6.314878331586488258e+00
1.899222944129926038e-01 6.539808271248620741e+00
1.908839262831476258e-01 6.224641303034729845e+00
1.918455581533026477e-01 5.840444047341154743e+00
1.928071900234576974e-01 5.893687766941592798e+00
1.937688218936126916e-01 5.515990511536234209e+00
1.947304537637677413e-01 5.633582264837947662e+00
1.956920856339227632e-01 5.473032106218763460e+00
1.966537175040777852e-01 5.073586415226337465e+00
1.976153493742328071e-01 4.873584273078428453e+00
1.985769812443878291e-01 4.739077884622989956e+00
1.995386131145428510e-01 4.527251035859048756e+00
2.005002449846978729e-01 4.038304186358686820e+00
2.014618768548528949e-01 3.859603623470952982e+00
2.024235087250079168e-01 3.671415804836470897e+00
2.033851405951629665e-01 3.498368181443911595e+00
2.043467724653179884e-01 3.308338384096835227e+00
2.053084043354730381e-01 3.008482229200385660e+00
2.062700362056280046e-01 2.916628602413211979e+00
2.072316680757830543e-01 2.870102913396166855e+00
2.081932999459380762e-01 2.774034867156835560e+00
2.091549318160931259e-01 2.339281240024693176e+00
2.101165636862481478e-01 2.010892484236407540e+00
2.110781955564031698e-01 1.976537377111746707e+00
2.120398274265581640e-01 1.984260577967791761e+00
2.130014592967132137e-01 1.977094113724447766e+00
2.139630911668682356e-01 1.749918685747381630e+00
2.149247230370232575e-01 1.461005622339584420e+00
2.158863549071783072e-01 1.585682811819857818e+00
2.168479867773333014e-01 1.525647436385323630e+00
2.178096186474883234e-01 1.309139653595398300e+00
2.187712505176433453e-01 1.467162764669545538e+00
2.197328823877983950e-01 1.275420424110933482e+00
2.206945142579534169e-01 1.141805043893324267e+00
2.216561461281084666e-01 1.078097083910105169e+00
2.226177779982634330e-01 9.421016915652238310e-01
2.235794098684184827e-01 1.075201905570370542e+00
2.245410417385735047e-01 6.831937643351331246e-01
2.255026736087285544e-01 5.670133013965319435e-01
2.264643054788835763e-01 6.320387597957441983e-01
2.274259373490385983e-01 4.268046486356453784e-01
2.283875692191935924e-01 5.069458362969179177e-01
2.293492010893486421e-01 6.624583380119659637e-01
2.303108329595036641e-01 5.203347288298765250e-01
2.312724648296586860e-01 3.567251022832245155e-01
2.322340966998137357e-01 2.501968716077733745e-01
2.331957285699687299e-01 2.117312451858808231e-01
2.341573604401237518e-01 1.861967738906571412e-01
2.351189923102787738e-01 2.255997935744069594e-01
2.360806241804338235e-01 2.366812321123887841e-01
2.370422560505888454e-01 2.212126740487434517e-01
2.380038879207438951e-01 4.187989086389372062e-01
2.389655197908988615e-01 5.879746534639167521e-01
2.399271516610539112e-01 6.272782517671124936e-01
2.408887835312089332e-01 6.726620349891980766e-01
2.418504154013639829e-01 4.817229019526969580e-01
2.428120472715190048e-01 5.656763589609745679e-01
2.437736791416740267e-01 5.649611463237711462e-01
2.447353110118290209e-01 6.170399401133650485e-01
2.456969428819840706e-01 5.586314023131109252e-01
2.466585747521390926e-01 4.989536984468685432e-01
2.476202066222941145e-01 5.764162215935328959e-01
2.485818384924491642e-01 7.391585493829992970e-01
2.495434703626041584e-01 8.355621597606592843e-01
2.505051022327591803e-01 6.417656221168748232e-01
2.514667341029142023e-01 7.991637540308182963e-01
2.524283659730692242e-01 9.067566949130707599e-01
2.533899978432243016e-01 7.491533685168825230e-01
2.543516297133793236e-01 6.927170659782859730e-01
2.553132615835342900e-01 7.861916458425248777e-01
2.562748934536893120e-01 8.369348004808898622e-01
2.572365253238443894e-01 1.227505193932284300e+00
2.581981571939994113e-01 1.146264182497915840e+00
2.591597890641544333e-01 1.139653676033205443e+00
2.601214209343094552e-01 1.166914479006688765e+00
2.610830528044644772e-01 1.104763964855120406e+00
2.620446846746194991e-01 1.131109888319286938e+00
2.630063165447745210e-01 1.117389991880830991e+00
2.639679484149295430e-01 1.168416870324488599e+00
2.649295802850845649e-01 1.166547533230687606e+00
2.658912121552395869e-01 1.150183558844130260e+00
2.668528440253946088e-01 1.206089328666461569e+00
2.678144758955496307e-01 1.142463243482119140e+00
2.687761077657046527e-01 1.114459949990425969e+00
2.697377396358597301e-01 1.070562907736125169e+00
2.706993715060147521e-01 1.056835677808123819e+00
2.716610033761697185e-01 1.132547873180975273e+00
2.726226352463247404e-01 1.268698537063080778e+00
2.735842671164798179e-01 1.272526990396503521e+00
2.745458989866348398e-01 1.318643733347879987e+00
2.755075308567898618e-01 1.204403585491405693e+00
2.764691627269448837e-01 1.114378401292853482e+00
2.774307945970999056e-01 1.104246259740367719e+00
2.783924264672549276e-01 1.151475719326334968e+00
2.793540583374099495e-01 1.138397772196864111e+00
2.803156902075649715e-01 1.162295105620625435e+00
2.812773220777199934e-01 1.119966688739033600e+00
2.822389539478750153e-01 8.894085504007556153e-01
2.832005858180300373e-01 8.341208428765440885e-01
2.841622176881850592e-01 9.981324133261573195e-01
2.851238495583400812e-01 1.126869276209149007e+00
2.860854814284951586e-01 1.209618953556219623e+00
2.870471132986501805e-01 1.019423451053420138e+00
2.880087451688051470e-01 8.106323698596398231e-01
2.889703770389601689e-01 9.258396779740962756e-01
2.899320089091152464e-01 9.739893106997321581e-01
2.908936407792702683e-01 1.071883191996651163e+00
2.918552726494252902e-01 1.024172131511004835e+00
2.928169045195803122e-01 7.126006802672613105e-01
2.937785363897353341e-01 7.253127840241155866e-01
2.947401682598903561e-01 8.279302838759221572e-01
2.957018001300453780e-01 8.703367533640786746e-01
2.966634320002003999e-01 7.579836595805460320e-01
2.976250638703554219e-01 6.321921768654590323e-01
2.985866957405104993e-01 4.194804506467768590e-01
2.995483276106654658e-01 3.431079572612674156e-01
3.005099594808204877e-01 2.933256582605281437e-01
3.014715913509755651e-01 3.790168830693367852e-01
3.024332232211305871e-01 3.641041301415235409e-01
3.033948550912856090e-01 2.681460778816706636e-01
3.043564869614405755e-01 3.538851708778274485e-01
3.053181188315956529e-01 2.975630855329285396e-01
3.062797507017506748e-01 2.975892725361646285e-01
3.072413825719056968e-01 3.454284342970446176e-01
3.082030144420607187e-01 3.827901090181349275e-01
3.091646463122157407e-01 4.117052407842365369e-01
3.101262781823707626e-01 4.227159226682353221e-01
3.110879100525257845e-01 1.993079465456055743e-01
3.120495419226808065e-01 2.108464356733925626e-01
3.130111737928358284e-01 2.716470274775097948e-01
3.139728056629909059e-01 2.247234618723297217e-01
3.149344375331459278e-01 1.721491471341636270e-01
3.158960694033008942e-01 2.733548473077860308e-01
3.168577012734559162e-01 2.850782824645179403e-01
3.178193331436109936e-01 3.414840719887166642e-01
3.187809650137660156e-01 2.375316836387106889e-01
3.197425968839210375e-01 6.261195287222065531e-02
3.207042287540760039e-01 1.694608009529900983e-01
3.216658606242310814e-01 1.887567016066178383e-01
3.226274924943861033e-01 2.716641277304567836e-01
3.235891243645411253e-01 1.399737979391595388e-01
3.245507562346961472e-01 1.389171243191640315e-01
3.255123881048511691e-01 2.362307008488961912e-01
3.264740199750061911e-01 2.853315422181523786e-01
3.274356518451612130e-01 1.985882196740789141e-01
3.283972837153162350e-01 8.413491862104294228e-02
3.293589155854712569e-01 1.604680231909902943e-01
3.303205474556263344e-01 1.096692953965785478e-01
3.312821793257813563e-01 8.299419522118967052e-02
3.322438111959363227e-01 1.349170993856532164e-01
3.332054430660913447e-01 2.019897413062388125e-01
3.341670749362464221e-01 2.302520576905138228e-01
3.351287068064014441e-01 1.018693157383516734e-01
3.360903386765564660e-01 5.496039650141781863e-02
3.370519705467114324e-01 1.232083985296128503e-01
3.380136024168665099e-01 2.947003583567351370e-01
3.389752342870215318e-01 2.568178805616199156e-01
3.399368661571765537e-01 2.065691278006767106e-01
3.408984980273315757e-01 1.136838339458883240e-01
3.418601298974865976e-01 1.845469161787640644e-01
3.428217617676416196e-01 1.361103264381284816e-01
3.437833936377966415e-01 9.107200901002698856e-02
3.447450255079516634e-01 1.473851647195623116e-01
3.457066573781066854e-01 5.695466094178769367e-02
3.466682892482617628e-01 6.815764456283446293e-02
3.476299211184167848e-01 4.558901377574287039e-01
3.485915529885717512e-01 3.612358522082494972e-01
3.495531848587267731e-01 2.441846192501877510e-01
3.505148167288818506e-01 2.783480017283750385e-01
3.514764485990368725e-01 2.546762595487841452e-01
3.524380804691918945e-01 2.099706574816195825e-01
3.533997123393468609e-01 2.704920790508893447e-01
3.543613442095019384e-01 2.115434440887682399e-01
3.553229760796569603e-01 2.098664398484899607e-01
3.562846079498119822e-01 4.215168771264998782e-01
3.572462398199670042e-01 3.818568796976791191e-01
3.582078716901220261e-01 3.533671545520320478e-01
3.591695035602770480e-01 3.609568191392860115e-01
3.601311354304320700e-01 3.006615062861079934e-01
3.610927673005870919e-01 4.905173955031720823e-01
3.620543991707421139e-01 4.484694404865052775e-01
3.630160310408971913e-01 2.322781883506159772e-01
3.639776629110522133e-01 1.318315285729525499e-01
3.649392947812071797e-01 3.327324875909916102e-01
3.659009266513622016e-01 4.968034299589803027e-01
3.668625585215172791e-01 4.995073637868649996e-01
3.678241903916723010e-01 4.207469343321612598e-01
3.687858222618273230e-01 4.356851237604715266e-01
3.697474541319822894e-01 5.296815065254207866e-01
3.707090860021373668e-01 5.050958526430378015e-01
3.716707178722923888e-01 4.422084884866279708e-01
3.726323497424474107e-01 4.025311530816750860e-01
3.735939816126024327e-01 5.028049527231210902e-01
3.745556134827574546e-01 5.057543202758587597e-01
3.755172453529124765e-01 5.436356199853591420e-01
3.764788772230674985e-01 6.001032602123999027e-01
3.774405090932225204e-01 5.421231657994987074e-01
3.784021409633775423e-01 3.582036602463389841e-01
3.793637728335326198e-01 3.724976209717887343e-01
3.803254047036876417e-01 2.556115084088510514e-01
3.812870365738426082e-01 1.761145394985490498e-01
3.822486684439976301e-01 2.895569349628352995e-01
3.832103003141527076e-01 1.935162954591476137e-01
3.841719321843077295e-01 2.997038029504324186e-01
3.851335640544627514e-01 3.749842952815463093e-01
3.860951959246177734e-01 3.770101320354832808e-01
3.870568277947727953e-01 4.916788171701114152e-01
3.880184596649278173e-01 4.164675470057908058e-01
3.889800915350828392e-01 4.021811203430978310e-01
3.899417234052378611e-01 3.793125313305942825e-01
3.909033552753928831e-01 3.303800776057315147e-01
3.918649871455479050e-01 2.327505577598181219e-01
3.928266190157029270e-01 3.422040096766174599e-01
3.937882508858579489e-01 4.374328269855212170e-01
3.947498827560129708e-01 5.089883420907703737e-01
3.957115146261680483e-01 3.110555107228378802e-01
3.966731464963230702e-01 1.118250880764577460e-01
3.976347783664780366e-01 4.430707815576084840e-03
3.985964102366330586e-01 9.507424362588068334e-02
3.995580421067881360e-01 2.429658459002794757e-01
4.005196739769430470e-01 2.385976357923631497e-01
4.014813058470981244e-01 2.775768073893658539e-01
4.024429377172531463e-01 3.533458580256727544e-01
4.034045695874082238e-01 3.548618759112969201e-01
