# q (1/Angstrom), Intensity (arb)
2.067508526570814575e-02 8.064121562762592248e+02
2.163671713586316769e-02 8.426240308728167747e+02
2.259834900601819310e-02 8.707326877202452806e+02
2.355998087617321851e-02 8.814752605382951742e+02
2.452161274632824739e-02 8.845929649798850960e+02
2.548324461648326933e-02 8.897366568110580829e+02
2.644487648663829821e-02 8.898956288295154309e+02
2.740650835679332709e-02 8.867285215551914916e+02
2.836814022694834903e-02 8.819785169367684148e+02
2.932977209710337443e-02 8.780225549849592426e+02
3.029140396725839637e-02 8.761030979539164036e+02
3.125303583741342178e-02 8.694238607030282537e+02
3.221466770756845066e-02 8.608448822489006034e+02
3.317629957772347260e-02 8.541877615757241529e+02
3.413793144787850148e-02 8.510256183163602373e+02
3.509956331803352342e-02 8.418086793583387362e+02
3.606119518818855230e-02 8.351105033326978173e+02
3.702282705834358117e-02 8.260654378808599176e+02
3.798445892849860311e-02 8.144692555165153180e+02
3.894609079865363199e-02 8.032645257105403971e+02
3.990772266880865393e-02 7.957255385954775875e+02
4.086935453896367587e-02 7.887587260570729768e+02
4.183098640911870475e-02 7.775173406538990548e+02
4.279261827927372669e-02 7.671347048970282003e+02
4.375425014942875557e-02 7.522540234252587652e+02
4.471588201958377751e-02 7.399513536424085487e+02
4.567751388973880639e-02 7.269613419540919494e+02
4.663914575989382832e-02 7.157432725127044932e+02
4.760077763004885720e-02 7.028670068037488363e+02
4.856240950020387914e-02 6.904701439306154498e+02
4.952404137035890108e-02 6.781456925667442874e+02
5.048567324051392302e-02 6.654620499404400107e+02
5.144730511066895190e-02 6.514142575363522383e+02
5.240893698082397384e-02 6.378298191555657013e+02
5.337056885097899578e-02 6.223562515002253122e+02
5.433220072113403160e-02 6.061775734266701647e+02
5.529383259128905354e-02 5.924644171545298832e+02
5.625546446144407547e-02 5.779955151646059903e+02
5.721709633159910435e-02 5.643149809399437800e+02
5.817872820175412629e-02 5.503844712427178365e+02
5.914036007190914823e-02 5.339160753405843707e+02
6.010199194206417017e-02 5.173499354039081481e+02
6.106362381221920599e-02 5.012881067595955074e+02
6.202525568237422793e-02 4.882058817751682795e+02
6.298688755252924987e-02 4.730353585250571768e+02
6.394851942268428568e-02 4.609852380739764044e+02
6.491015129283930762e-02 4.493360409526988519e+02
6.587178316299432956e-02 4.352655009278954026e+02
6.683341503314935150e-02 4.184950778026745297e+02
6.779504690330438732e-02 4.047653734356634345e+02
6.875667877345940926e-02 3.916878969040009792e+02
6.971831064361443120e-02 3.800688834441115205e+02
7.067994251376945314e-02 3.662947448759608733e+02
7.164157438392447508e-02 3.546416900391727154e+02
7.260320625407949702e-02 3.419870494217228725e+02
7.356483812423453283e-02 3.288940628138223019e+02
7.452646999438955477e-02 3.169760067888304320e+02
7.548810186454457671e-02 3.036973438922811397e+02
7.644973373469959865e-02 2.906062037642830660e+02
7.741136560485463447e-02 2.798785947185664327e+02
7.837299747500965641e-02 2.693043317415638853e+02
7.933462934516467835e-02 2.577519685061977839e+02
8.029626121531971417e-02 2.475092973403428971e+02
8.125789308547473611e-02 2.368256199393306360e+02
8.221952495562975805e-02 2.264304703576785300e+02
8.318115682578479386e-02 2.153392554694997614e+02
8.414278869593981580e-02 2.060256283570416258e+02
8.510442056609483774e-02 1.972871169695818594e+02
8.606605243624985968e-02 1.886487678848625080e+02
8.702768430640489550e-02 1.793581981046750116e+02
8.798931617655991744e-02 1.700836157431401148e+02
8.895094804671493938e-02 1.618115031948969147e+02
8.991257991686996132e-02 1.540932888827078955e+02
9.087421178702498326e-02 1.465064132667346257e+02
9.183584365718000520e-02 1.379428384068916671e+02
9.279747552733502713e-02 1.302607293339017644e+02
9.375910739749006295e-02 1.230532228572280076e+02
9.472073926764508489e-02 1.162203875521802559e+02
9.568237113780010683e-02 1.101019314555377662e+02
9.664400300795514265e-02 1.027601368860698443e+02
9.760563487811016459e-02 9.702053186731633616e+01
9.856726674826518653e-02 9.098541884526049728e+01
9.952889861842022234e-02 8.549884421829062831e+01
1.004905304885752443e-01 7.981632991437666647e+01
1.014521623587302801e-01 7.479826439760746837e+01
1.024137942288853020e-01 6.952566704513913010e+01
1.033754260990403240e-01 6.433383102147639931e+01
1.043370579691953459e-01 5.976324412926156526e+01
1.052986898393503817e-01 5.600145623148635821e+01
1.062603217095053898e-01 5.169357219412012228e+01
1.072219535796604256e-01 4.758981964529397857e+01
1.081835854498154614e-01 4.407573011924755235e+01
1.091452173199704695e-01 4.112182709154384241e+01
1.101068491901255053e-01 3.755724160807523049e+01
1.110684810602805411e-01 3.438772083655662470e+01
1.120301129304355492e-01 3.135789979152990981e+01
1.129917448005905850e-01 2.833928757425316292e+01
1.139533766707456208e-01 2.603957042697233959e+01
1.149150085409006289e-01 2.375440657873816619e+01
1.158766404110556647e-01 2.173068956189158385e+01
1.168382722812106728e-01 1.969811077290588130e+01
1.177999041513657086e-01 1.798376575551203160e+01
1.187615360215207305e-01 1.602071034420841755e+01
1.197231678916757525e-01 1.382408834447944201e+01
1.206847997618307744e-01 1.222000205720694055e+01
1.216464316319858102e-01 1.111908797777490676e+01
1.226080635021408183e-01 9.776049849677452386e+00
1.235696953722958541e-01 8.492476330921196137e+00
1.245313272424508899e-01 7.336772282096951869e+00
1.254929591126059119e-01 6.506444568384765148e+00
1.264545909827609338e-01 5.618673140230008300e+00
1.274162228529159557e-01 4.824001100492459670e+00
1.283778547230709777e-01 4.392513872938049957e+00
1.293394865932259996e-01 3.480461575412565622e+00
1.303011184633810493e-01 3.125204027526635286e+00
1.312627503335360435e-01 3.005301227131909059e+00
1.322243822036910932e-01 2.628719284000158751e+00
1.331860140738460874e-01 2.207779871223340962e+00
1.341476459440011371e-01 2.005177068387812511e+00
1.351092778141561590e-01 1.725672931330535675e+00
1.360709096843111809e-01 1.831035019531171315e+00
1.370325415544662029e-01 1.452526833232546721e+00
1.379941734246212526e-01 1.433827510966452223e+00
1.389558052947762468e-01 1.811744523469378976e+00
1.399174371649312965e-01 1.814231991248224318e+00
1.408790690350863184e-01 1.735588650409830791e+00
1.418407009052413403e-01 1.867395708343689620e+00
1.428023327753963623e-01 2.017366842917205361e+00
1.437639646455513842e-01 2.214491300557863696e+00
1.447255965157064062e-01 2.602540499375759708e+00
1.456872283858614281e-01 2.951083795796744624e+00
1.466488602560164778e-01 3.386122934400088269e+00
1.476104921261714720e-01 3.352419575099602866e+00
1.485721239963265217e-01 3.582221356090411035e+00
1.495337558664815436e-01 3.815597378315015220e+00
1.504953877366365655e-01 3.979660156700678186e+00
1.514570196067915875e-01 4.040475733499821587e+00
1.524186514769466094e-01 4.321921673155610932e+00
1.533802833471016314e-01 4.846103041279587131e+00
1.543419152172566811e-01 5.350877955847384015e+00
1.553035470874116752e-01 5.607332335526027833e+00
1.562651789575667249e-01 5.595563267267607444e+00
1.572268108277217469e-01 5.728067996517900440e+00
1.581884426978767688e-01 6.309893992116048622e+00
1.591500745680317908e-01 6.569295300213354949e+00
1.601117064381868405e-01 6.682707222619178822e+00
1.610733383083418346e-01 6.797048350275375128e+00
1.620349701784968843e-01 7.029777136989963537e+00
1.629966020486519063e-01 7.590844899401915313e+00
1.639582339188069282e-01 7.611608635826378588e+00
1.649198657889619501e-01 7.600551389265763902e+00
1.658814976591169721e-01 7.531779087411194951e+00
1.668431295292719940e-01 7.625175006438350778e+00
1.678047613994270160e-01 7.657177281653360978e+00
1.687663932695820379e-01 7.907960758714711602e+00
1.697280251397370598e-01 8.250823673510282674e+00
1.706896570098921095e-01 8.217413445332024224e+00
1.716512888800471037e-01 8.291749815047460004e+00
1.726129207502021534e-01 8.458636634477077365e+00
1.735745526203571754e-01 8.233311481540042109e+00
1.745361844905121973e-01 8.187922572292002599e+00
1.754978163606672192e-01 8.319970634271133036e+00
1.764594482308222689e-01 8.237579533979136670e+00
1.774210801009772631e-01 8.030113346110507422e+00
1.783827119711323128e-01 7.749223062003871121e+00
1.793443438412873348e-01 7.821185760144540922e+00
1.803059757114423567e-01 8.103445775407841722e+00
1.812676075815973786e-01 7.894831722417123387e+00
1.822292394517524006e-01 7.752334037859387905e+00
1.831908713219074225e-01 7.523552739544715706e+00
1.841525031920624444e-01 7.612514372779671135e+00
1.851141350622174664e-01 7.453118895347593309e+00
1.860757669323724883e-01 7.117832767862186216e+00
1.870373988025275380e-01 6.981637265331972486e+00
1.879990306726825322e-01 7.012540936555701876e+00
1.889606625428375819e-01 6.988593287583817926e+00
1.899222944129926038e-01 6.490702168482599177e+00
1.908839262831476258e-01 6.211046581726360927e+00
1.918455581533026477e-01 6.025010527330277199e+00
1.928071900234576974e-01 5.981722045569572543e+00
1.937688218936126916e-01 5.844983479140292815e+00
1.947304537637677413e-01 5.498995586733325780e+00
1.956920856339227632e-01 5.308684321337331369e+00
1.966537175040777852e-01 5.147584803188212987e+00
1.976153493742328071e-01 4.780842313449216618e+00
1.985769812443878291e-01 4.613341785670115769e+00
1.995386131145428510e-01 4.406411948831355119e+00
2.005002449846978729e-01 3.895290430492618583e+00
2.014618768548528949e-01 3.675852886703069089e+00
2.024235087250079168e-01 3.649537047776242105e+00
2.033851405951629665e-01 3.617676986086824087e+00
2.043467724653179884e-01 3.387308463683872617e+00
2.053084043354730381e-01 3.276029730008136909e+00
2.062700362056280046e-01 3.201458705471633692e+00
2.072316680757830543e-01 2.855272996178403133e+00
2.081932999459380762e-01 2.488273183943043421e+00
2.091549318160931259e-01 2.496645572019364323e+00
2.101165636862481478e-01 2.637815013513783668e+00
2.110781955564031698e-01 2.290637867797862270e+00
2.120398274265581640e-01 2.143133989371502679e+00
2.130014592967132137e-01 1.882000363152975808e+00
2.139630911668682356e-01 1.613662495721094103e+00
2.149247230370232575e-01 1.548795300711944378e+00
2.158863549071783072e-01 1.637815094878881439e+00
2.168479867773333014e-01 1.452201814811076019e+00
2.178096186474883234e-01 1.285518081051876038e+00
2.187712505176433453e-01 1.073241770838041731e+00
2.197328823877983950e-01 1.023335466108928671e+00
2.206945142579534169e-01 9.630440928030203906e-01
2.216561461281084666e-01 6.701058779333024518e-01
2.226177779982634330e-01 6.975109803975598766e-01
2.235794098684184827e-01 6.297863610120586486e-01
2.245410417385735047e-01 4.130303200778513428e-01
2.255026736087285544e-01 5.474911887576325853e-01
2.264643054788835763e-01 6.876944887650253690e-01
2.274259373490385983e-01 5.397049295262696944e-01
2.283875692191935924e-01 3.718888339892707506e-01
2.293492010893486421e-01 5.380252141694548129e-01
2.303108329595036641e-01 5.208368027075636064e-01
2.312724648296586860e-01 3.043158300305250918e-01
2.322340966998137357e-01 2.031342156931543741e-01
2.331957285699687299e-01 6.271520598524453760e-01
2.341573604401237518e-01 6.462769686910441180e-01
2.351189923102787738e-01 6.442120123059957848e-01
2.360806241804338235e-01 6.879930696981624294e-01
2.370422560505888454e-01 6.270684364570726643e-01
2.380038879207438951e-01 5.761744687376371132e-01
2.389655197908988615e-01 4.514132595673849835e-01
2.399271516610539112e-01 4.351283232267668666e-01
2.408887835312089332e-01 4.467399917215431060e-01
2.418504154013639829e-01 6.412864991017919181e-01
2.428120472715190048e-01 7.924767100309075829e-01
2.437736791416740267e-01 6.052366503747137472e-01
2.447353110118290209e-01 6.817303972837969184e-01
2.456969428819840706e-01 5.844578498723436155e-01
2.466585747521390926e-01 5.332484403964308228e-01
2.476202066222941145e-01 5.815640135501318753e-01
2.485818384924491642e-01 7.771622441833336836e-01
2.495434703626041584e-01 1.047604894243139739e+00
2.505051022327591803e-01 1.002827754306121477e+00
2.514667341029142023e-01 1.074072100064572766e+00
2.524283659730692242e-01 9.861883247675606867e-01
2.533899978432243016e-01 9.065920293425371312e-01
2.543516297133793236e-01 9.620780769931407406e-01
2.553132615835342900e-01 1.051647196995826761e+00
2.562748934536893120e-01 1.048886193942955458e+00
2.572365253238443894e-01 1.069269812766595606e+00
2.581981571939994113e-01 1.044873443722412532e+00
2.591597890641544333e-01 8.120875140362748823e-01
2.601214209343094552e-01 9.632574783055893874e-01
2.610830528044644772e-01 1.319083388126358614e+00
2.620446846746194991e-01 1.478815202238742188e+00
2.630063165447745210e-01 1.371731879705386348e+00
2.639679484149295430e-01 1.334433612256152202e+00
2.649295802850845649e-01 1.372910166538915178e+00
2.658912121552395869e-01 1.448109815727473659e+00
2.668528440253946088e-01 1.131369456820490171e+00
2.678144758955496307e-01 1.088348432620005468e+00
2.687761077657046527e-01 1.433916236028302649e+00
2.697377396358597301e-01 1.437550914316005901e+00
2.706993715060147521e-01 1.507384626287826990e+00
2.716610033761697185e-01 1.353723813131196607e+00
2.726226352463247404e-01 1.294020270372840287e+00
2.735842671164798179e-01 1.196399598462068781e+00
2.745458989866348398e-01 1.188170185150841718e+00
2.755075308567898618e-01 1.123750301560789921e+00
2.764691627269448837e-01 1.227667077732313317e+00
2.774307945970999056e-01 1.160620658701489560e+00
2.783924264672549276e-01 1.337621861627788178e+00
2.793540583374099495e-01 1.210543529292198883e+00
2.803156902075649715e-01 1.179578109984920076e+00
2.812773220777199934e-01 1.398599224614027747e+00
2.822389539478750153e-01 1.374270406501945985e+00
2.832005858180300373e-01 1.338085357780869344e+00
2.841622176881850592e-01 1.408185663424056600e+00
2.851238495583400812e-01 1.384135357928830246e+00
2.860854814284951586e-01 1.186915206099204312e+00
2.870471132986501805e-01 1.167854868754940156e+00
2.880087451688051470e-01 1.131673239356668859e+00
2.889703770389601689e-01 1.026358373024283566e+00
2.899320089091152464e-01 1.032884688076592283e+00
2.908936407792702683e-01 9.537792549209740400e-01
2.918552726494252902e-01 1.009005229586009023e+00
2.928169045195803122e-01 8.975383033094317398e-01
2.937785363897353341e-01 9.597360066260094413e-01
2.947401682598903561e-01 9.355246593125663424e-01
2.957018001300453780e-01 8.505491398639222211e-01
2.966634320002003999e-01 7.031195502816878218e-01
2.976250638703554219e-01 6.659464314668284146e-01
2.985866957405104993e-01 6.907959087106689822e-01
2.995483276106654658e-01 7.515988779651756602e-01
3.005099594808204877e-01 7.332842673347030882e-01
3.014715913509755651e-01 5.627463589324328552e-01
3.024332232211305871e-01 6.464142370632046664e-01
3.033948550912856090e-01 6.272461243174696222e-01
3.043564869614405755e-01 5.685286401627003272e-01
3.053181188315956529e-01 5.796355925664222752e-01
3.062797507017506748e-01 5.344918964857860999e-01
3.072413825719056968e-01 4.751729717461508073e-01
3.082030144420607187e-01 6.417857595984166608e-01
3.091646463122157407e-01 6.830648452137104698e-01
3.101262781823707626e-01 5.701635815523999895e-01
3.110879100525257845e-01 5.515473839498561404e-01
3.120495419226808065e-01 6.242769486373802579e-01
3.130111737928358284e-01 4.557561735791821889e-01
3.139728056629909059e-01 4.053621488644658655e-01
3.149344375331459278e-01 5.156346784074585798e-01
3.158960694033008942e-01 4.178965337161564264e-01
3.168577012734559162e-01 3.719283608798455987e-01
3.178193331436109936e-01 3.521626962665003191e-01
3.187809650137660156e-01 4.741171475655931999e-01
3.197425968839210375e-01 4.022839389133991972e-01
3.207042287540760039e-01 3.117290668290664257e-01
3.216658606242310814e-01 2.909838203067494078e-01
3.226274924943861033e-01 4.180066428092175101e-01
3.235891243645411253e-01 2.472621307942652891e-01
3.245507562346961472e-01 0.000000000000000000e+00
3.255123881048511691e-01 4.178256381694396282e-01
3.264740199750061911e-01 4.587427256088574268e-01
3.274356518451612130e-01 4.130534477047760333e-01
3.283972837153162350e-01 4.720073988639050810e-01
3.293589155854712569e-01 3.274179485033457127e-01
3.303205474556263344e-01 4.754811052640377511e-01
3.312821793257813563e-01 5.384853463558307851e-01
3.322438111959363227e-01 5.156754395516713885e-01
3.332054430660913447e-01 3.565187668421856415e-01
3.341670749362464221e-01 3.445706015473568584e-01
3.351287068064014441e-01 5.319106382667477817e-01
3.360903386765564660e-01 4.645177495959735836e-01
3.370519705467114324e-01 3.806186391729795560e-01
3.380136024168665099e-01 1.571571449447866087e-01
3.389752342870215318e-01 2.762286678018028852e-01
3.399368661571765537e-01 3.215456370573548384e-01
3.408984980273315757e-01 2.559541433433096813e-01
3.418601298974865976e-01 2.997255977442172536e-01
3.428217617676416196e-01 3.675277392639273444e-01
3.437833936377966415e-01 3.228757053068385119e-01
3.447450255079516634e-01 3.935808245075556044e-01
3.457066573781066854e-01 4.561370920035656695e-01
3.466682892482617628e-01 4.077616197214339877e-01
3.476299211184167848e-01 4.418798939814756466e-01
3.485915529885717512e-01 6.486411774003215669e-01
3.495531848587267731e-01 5.664177008247399669e-01
3.505148167288818506e-01 5.303848147299241589e-01
3.514764485990368725e-01 5.617630379144387121e-01
3.524380804691918945e-01 4.688500533230595124e-01
3.533997123393468609e-01 3.254197713755786481e-01
3.543613442095019384e-01 4.671591001987671632e-01
3.553229760796569603e-01 6.089429144493188062e-01
3.562846079498119822e-01 5.297120763023137613e-01
3.572462398199670042e-01 5.531380341072065221e-01
3.582078716901220261e-01 5.550260938174815806e-01
3.591695035602770480e-01 4.098776338205922798e-01
3.601311354304320700e-01 4.540579244183859942e-01
3.610927673005870919e-01 6.036368528004949496e-01
3.620543991707421139e-01 5.966103996683926880e-01
3.630160310408971913e-01 5.945844093926915264e-01
3.639776629110522133e-01 5.721633980851095203e-01
3.649392947812071797e-01 6.932056116760385578e-01
3.659009266513622016e-01 6.003594305807382625e-01
3.668625585215172791e-01 4.874801837036777385e-01
3.678241903916723010e-01 5.578095532220253006e-01
3.687858222618273230e-01 4.993791722303910774e-01
3.697474541319822894e-01 5.167197595066213012e-01
3.707090860021373668e-01 5.901647881747784652e-01
3.716707178722923888e-01 7.246802167124002381e-01
3.726323497424474107e-01 5.259678971514993862e-01
3.735939816126024327e-01 4.136777662463657634e-01
3.745556134827574546e-01 3.137173975319882402e-01
3.755172453529124765e-01 5.577435675127375703e-01
3.764788772230674985e-01 4.846658451041996329e-01
3.774405090932225204e-01 2.751246377950451460e-01
3.784021409633775423e-01 3.752077166622562743e-01
3.793637728335326198e-01 4.660042404503883517e-01
3.803254047036876417e-01 5.802950559359665306e-01
3.812870365738426082e-01 5.975742325893484974e-01
3.822486684439976301e-01 5.227883992796442669e-01
3.832103003141527076e-01 5.728196651050296850e-01
3.841719321843077295e-01 5.847202847949475313e-01
3.851335640544627514e-01 5.605443897049653401e-01
3.860951959246177734e-01 4.565671113563283257e-01
3.870568277947727953e-01 4.821766700874903222e-01
3.880184596649278173e-01 5.223218734741514879e-01
3.889800915350828392e-01 5.615886165294270427e-01
3.899417234052378611e-01 5.801559661295527803e-01
3.909033552753928831e-01 5.959428826192763040e-01
3.918649871455479050e-01 4.554383691576653348e-01
3.928266190157029270e-01 3.493419040729897063e-01
3.937882508858579489e-01 4.147556845198998587e-01
3.947498827560129708e-01 4.645708869243385664e-01
3.957115146261680483e-01 6.115315860310879259e-01
3.966731464963230702e-01 5.072225206023972532e-01
3.976347783664780366e-01 4.361386865647887134e-01
3.985964102366330586e-01 4.712967068083209199e-01
3.995580421067881360e-01 4.685778888419100952e-01
4.005196739769430470e-01 3.925444260105379612e-01
4.014813058470981244e-01 3.768971611375029340e-01
4.024429377172531463e-01 3.280372853877473460e-01
4.034045695874082238e-01 3.151118768119687275e-01
