# q (1/Angstrom), Intensity (arb)
2.067508526570814575e-02 7.537642163751316957e+02
2.163671713586316769e-02 7.838163890017173117e+02
2.259834900601819310e-02 8.152720714477397905e+02
2.355998087617321851e-02 8.272089956544640472e+02
2.452161274632824739e-02 8.289310812290398189e+02
2.548324461648326933e-02 8.353233022318246412e+02
2.644487648663829821e-02 8.364607515899268719e+02
2.740650835679332709e-02 8.340002611774579009e+02
2.836814022694834903e-02 8.262492541538065325e+02
2.932977209710337443e-02 8.243843082758693299e+02
3.029140396725839637e-02 8.224004671478629689e+02
3.125303583741342178e-02 8.152711214659244661e+02
3.221466770756845066e-02 8.084312136714439703e+02
3.317629957772347260e-02 7.995374355726967224e+02
3.413793144787850148e-02 7.953547828113078140e+02
3.509956331803352342e-02 7.860511254491351565e+02
3.606119518818855230e-02 7.832941656592189474e+02
3.702282705834358117e-02 7.738921666319987480e+02
3.798445892849860311e-02 7.645291139406097045e+02
3.894609079865363199e-02 7.547028474554830382e+02
3.990772266880865393e-02 7.470268054878415569e+02
4.086935453896367587e-02 7.389776789059154680e+02
4.183098640911870475e-02 7.274204545612393531e+02
4.279261827927372669e-02 7.207428123653788816e+02
4.375425014942875557e-02 7.091638735102402507e+02
4.471588201958377751e-02 6.959559575221759360e+02
4.567751388973880639e-02 6.829786120168203070e+02
4.663914575989382832e-02 6.736618961724086603e+02
4.760077763004885720e-02 6.629580737635423020e+02
4.856240950020387914e-02 6.507070125355401160e+02
4.952404137035890108e-02 6.374144107820178533e+02
5.048567324051392302e-02 6.233539644983734433e+02
5.144730511066895190e-02 6.112417471139704048e+02
5.240893698082397384e-02 5.994070050890728680e+02
5.337056885097899578e-02 5.845790902768778778e+02
5.433220072113403160e-02 5.700990933424453715e+02
5.529383259128905354e-02 5.572526443395199749e+02
5.625546446144407547e-02 5.438647480358417852e+02
5.721709633159910435e-02 5.277964262588897100e+02
5.817872820175412629e-02 5.125839140960634950e+02
5.914036007190914823e-02 4.987666513028743793e+02
6.010199194206417017e-02 4.846886089542809373e+02
6.106362381221920599e-02 4.724248060332228079e+02
6.202525568237422793e-02 4.585796766388004357e+02
6.298688755252924987e-02 4.435042147187090222e+02
6.394851942268428568e-02 4.298400536922281390e+02
6.491015129283930762e-02 4.160712008730652656e+02
6.587178316299432956e-02 4.038419040745347388e+02
6.683341503314935150e-02 3.907463400721228481e+02
6.779504690330438732e-02 3.779027525787400918e+02
6.875667877345940926e-02 3.661020044256479764e+02
6.971831064361443120e-02 3.527878455887108657e+02
7.067994251376945314e-02 3.411936366813446284e+02
7.164157438392447508e-02 3.300331292574164763e+02
7.260320625407949702e-02 3.168761174991797702e+02
7.356483812423453283e-02 3.042661602387162247e+02
7.452646999438955477e-02 2.935780071252913217e+02
7.548810186454457671e-02 2.820495533667782979e+02
7.644973373469959865e-02 2.712928035984363078e+02
7.741136560485463447e-02 2.597894225834820077e+02
7.837299747500965641e-02 2.493502268175482754e+02
7.933462934516467835e-02 2.385683842438525915e+02
8.029626121531971417e-02 2.297440296819256105e+02
8.125789308547473611e-02 2.200638173480242585e+02
8.221952495562975805e-02 2.089467143114011662e+02
8.318115682578479386e-02 1.993943611189205569e+02
8.414278869593981580e-02 1.914476798901544043e+02
8.510442056609483774e-02 1.825489506710703722e+02
8.606605243624985968e-02 1.727578327232771755e+02
8.702768430640489550e-02 1.653961820947862407e+02
8.798931617655991744e-02 1.579343829162835959e+02
8.895094804671493938e-02 1.492853575026320243e+02
8.991257991686996132e-02 1.411458890730524729e+02
9.087421178702498326e-02 1.331841532330473115e+02
9.183584365718000520e-02 1.261231167992598188e+02
9.279747552733502713e-02 1.198195647860966488e+02
9.375910739749006295e-02 1.131713806109283667e+02
9.472073926764508489e-02 1.067389770528213404e+02
9.568237113780010683e-02 1.012598517114463448e+02
9.664400300795514265e-02 9.599789093642380067e+01
9.760563487811016459e-02 8.980965755235237680e+01
9.856726674826518653e-02 8.367431944951317746e+01
9.952889861842022234e-02 7.787412366205336411e+01
1.004905304885752443e-01 7.314364025916785295e+01
1.014521623587302801e-01 6.835169035888723954e+01
1.024137942288853020e-01 6.361879208398988794e+01
1.033754260990403240e-01 5.927612012417115039e+01
1.043370579691953459e-01 5.570303781427571010e+01
1.052986898393503817e-01 5.165969441759891367e+01
1.062603217095053898e-01 4.745105420368993521e+01
1.072219535796604256e-01 4.380263128751028745e+01
1.081835854498154614e-01 4.094668842052442415e+01
1.091452173199704695e-01 3.740957229236646953e+01
1.101068491901255053e-01 3.413255236747359334e+01
1.110684810602805411e-01 3.125348854980151359e+01
1.120301129304355492e-01 2.875577524198287094e+01
1.129917448005905850e-01 2.629888856043776713e+01
1.139533766707456208e-01 2.360447524742158620e+01
1.149150085409006289e-01 2.107077983279765476e+01
1.158766404110556647e-01 1.901305331097401208e+01
1.168382722812106728e-01 1.749094331353610343e+01
1.177999041513657086e-01 1.536562121743029152e+01
1.187615360215207305e-01 1.397030742508063739e+01
1.197231678916757525e-01 1.273602632039319360e+01
1.206847997618307744e-01 1.131153167425692274e+01
1.216464316319858102e-01 1.004721873998877157e+01
1.226080635021408183e-01 8.543019672095201855e+00
1.235696953722958541e-01 7.901592934673136170e+00
1.245313272424508899e-01 6.619529656167568277e+00
1.254929591126059119e-01 5.600720017178222321e+00
1.264545909827609338e-01 5.259313970838444874e+00
1.274162228529159557e-01 4.373567954686564008e+00
1.283778547230709777e-01 3.614231945052804207e+00
1.293394865932259996e-01 3.279541507199326134e+00
1.303011184633810493e-01 2.949692849975036779e+00
1.312627503335360435e-01 2.729863074232000031e+00
1.322243822036910932e-01 2.064211102811043475e+00
1.331860140738460874e-01 1.839615400894331287e+00
1.341476459440011371e-01 2.072175531378707802e+00
1.351092778141561590e-01 2.006331779946656013e+00
1.360709096843111809e-01 1.482411750955204610e+00
1.370325415544662029e-01 1.428645910203492519e+00
1.379941734246212526e-01 1.464898956804891128e+00
1.389558052947762468e-01 1.415971975004044481e+00
1.399174371649312965e-01 1.421008512545881786e+00
1.408790690350863184e-01 1.851793928059876748e+00
1.418407009052413403e-01 2.131389444587636461e+00
1.428023327753963623e-01 1.976279274589135326e+00
1.437639646455513842e-01 2.170676214194710241e+00
1.447255965157064062e-01 2.270920867961365275e+00
1.456872283858614281e-01 2.454287958600744446e+00
1.466488602560164778e-01 2.759950531780830829e+00
1.476104921261714720e-01 2.841327172928014733e+00
1.485721239963265217e-01 3.258419769019468504e+00
1.495337558664815436e-01 3.698750569495707907e+00
1.504953877366365655e-01 4.045120151198016600e+00
1.514570196067915875e-01 4.493330022029105919e+00
1.524186514769466094e-01 4.703959638243993879e+00
1.533802833471016314e-01 4.850369231614216403e+00
1.543419152172566811e-01 4.928936541646510960e+00
1.553035470874116752e-01 5.122106043238545681e+00
1.562651789575667249e-01 5.285416147644461660e+00
1.572268108277217469e-01 5.447524581459855852e+00
1.581884426978767688e-01 5.780547891481091938e+00
1.591500745680317908e-01 6.015991242112860959e+00
1.601117064381868405e-01 6.074326468054181305e+00
1.610733383083418346e-01 6.428950225567827914e+00
1.620349701784968843e-01 6.856890033811122720e+00
1.629966020486519063e-01 6.531887140548931825e+00
1.639582339188069282e-01 6.551689515589760759e+00
1.649198657889619501e-01 7.010454707004175390e+00
1.658814976591169721e-01 7.304167177232116615e+00
1.668431295292719940e-01 7.372055636615023388e+00
1.678047613994270160e-01 7.353250342917263538e+00
1.687663932695820379e-01 7.783992626392588932e+00
1.697280251397370598e-01 7.760374121894589194e+00
1.706896570098921095e-01 7.680892953798622358e+00
1.716512888800471037e-01 7.601889606599886662e+00
1.726129207502021534e-01 7.667715769238142798e+00
1.735745526203571754e-01 7.596953921535618548e+00
1.745361844905121973e-01 7.384174288957932930e+00
1.754978163606672192e-01 7.313480308522972706e+00
1.764594482308222689e-01 7.351222943399697840e+00
1.774210801009772631e-01 7.379356193343088677e+00
1.783827119711323128e-01 7.387119448278365752e+00
1.793443438412873348e-01 7.584996515786468052e+00
1.803059757114423567e-01 7.512760830370279308e+00
1.812676075815973786e-01 7.029127198540042087e+00
1.822292394517524006e-01 6.952753650730631563e+00
1.831908713219074225e-01 6.711843757047542880e+00
1.841525031920624444e-01 6.763607919522847567e+00
1.851141350622174664e-01 6.695969369972722518e+00
1.860757669323724883e-01 6.218623563468820947e+00
1.870373988025275380e-01 5.881079225622325879e+00
1.879990306726825322e-01 5.784396374101717697e+00
1.889606625428375819e-01 5.989311695293508819e+00
1.899222944129926038e-01 5.956113607924713449e+00
1.908839262831476258e-01 5.782993244454537773e+00
1.918455581533026477e-01 5.508912519206624836e+00
1.928071900234576974e-01 5.385371783257035361e+00
1.937688218936126916e-01 5.284298951541025247e+00
1.947304537637677413e-01 4.673271247297847708e+00
1.956920856339227632e-01 4.856528438420561145e+00
1.966537175040777852e-01 4.852446339778101247e+00
1.976153493742328071e-01 4.404911976190053480e+00
1.985769812443878291e-01 4.380800850244416011e+00
1.995386131145428510e-01 4.173961908145024324e+00
2.005002449846978729e-01 3.899507581718925309e+00
2.014618768548528949e-01 3.738509886328944987e+00
2.024235087250079168e-01 3.460069195217094773e+00
2.033851405951629665e-01 3.127114601573747876e+00
2.043467724653179884e-01 2.834114324929966955e+00
2.053084043354730381e-01 2.752544287842628279e+00
2.062700362056280046e-01 2.768026375543669815e+00
2.072316680757830543e-01 2.419994435161452628e+00
2.081932999459380762e-01 2.379870478220230012e+00
2.091549318160931259e-01 2.454259663743705744e+00
2.101165636862481478e-01 2.278132718086652631e+00
2.110781955564031698e-01 1.895344819602055253e+00
2.120398274265581640e-01 1.458508702861170292e+00
2.130014592967132137e-01 1.709821344093299444e+00
2.139630911668682356e-01 1.916146232548303630e+00
2.149247230370232575e-01 1.482868846947869912e+00
2.158863549071783072e-01 1.350458648840735520e+00
2.168479867773333014e-01 1.127794833924443907e+00
2.178096186474883234e-01 1.140316770531565993e+00
2.187712505176433453e-01 9.468633788947897756e-01
2.197328823877983950e-01 9.235036617961078775e-01
2.206945142579534169e-01 9.857439515733830149e-01
2.216561461281084666e-01 9.805385883358219701e-01
2.226177779982634330e-01 7.299042003456754912e-01
2.235794098684184827e-01 5.092709535885084904e-01
2.245410417385735047e-01 4.577264886435870039e-01
2.255026736087285544e-01 6.050168829681119576e-01
2.264643054788835763e-01 4.857680341488723741e-01
2.274259373490385983e-01 3.125169753773491266e-01
2.283875692191935924e-01 2.084044110143032924e-01
2.293492010893486421e-01 1.195193928576543385e-01
2.303108329595036641e-01 5.876710127414952467e-02
2.312724648296586860e-01 9.210323456679248011e-02
2.322340966998137357e-01 1.052304985765530887e-01
2.331957285699687299e-01 0.000000000000000000e+00
2.341573604401237518e-01 1.380015693078640027e-01
2.351189923102787738e-01 5.235332388362969880e-01
2.360806241804338235e-01 6.747608971697260927e-01
2.370422560505888454e-01 5.203100183218438701e-01
2.380038879207438951e-01 5.506134610205144497e-01
2.389655197908988615e-01 5.455131414525631328e-01
2.399271516610539112e-01 4.843686610122688307e-01
2.408887835312089332e-01 6.111628501744164055e-01
2.418504154013639829e-01 5.628558192282291373e-01
2.428120472715190048e-01 3.991661029039974551e-01
2.437736791416740267e-01 5.284338835852544491e-01
2.447353110118290209e-01 5.870063381986625473e-01
2.456969428819840706e-01 7.534580018181351591e-01
2.466585747521390926e-01 7.808461173560310442e-01
2.476202066222941145e-01 7.974302865725384493e-01
2.485818384924491642e-01 8.186389950591532738e-01
2.495434703626041584e-01 7.130315161531051160e-01
2.505051022327591803e-01 6.517116527814579285e-01
2.514667341029142023e-01 7.610340274833546914e-01
2.524283659730692242e-01 8.370230697466780612e-01
2.533899978432243016e-01 9.024900605161434441e-01
2.543516297133793236e-01 8.457714551342085940e-01
2.553132615835342900e-01 8.191694614056537205e-01
2.562748934536893120e-01 8.687950558053962880e-01
2.572365253238443894e-01 1.057234711916759551e+00
2.581981571939994113e-01 1.093664852290505252e+00
2.591597890641544333e-01 7.543634654788036187e-01
2.601214209343094552e-01 8.285546583666985043e-01
2.610830528044644772e-01 9.888939457060210714e-01
2.620446846746194991e-01 1.215278652965569250e+00
2.630063165447745210e-01 1.558297031946676015e+00
2.639679484149295430e-01 1.579800179645374669e+00
2.649295802850845649e-01 1.268689795317413882e+00
2.658912121552395869e-01 1.242662267744648830e+00
2.668528440253946088e-01 1.169439140283380141e+00
2.678144758955496307e-01 1.098734092823228536e+00
2.687761077657046527e-01 1.135990057397012976e+00
2.697377396358597301e-01 1.461846240315523460e+00
2.706993715060147521e-01 1.330163137557075714e+00
2.716610033761697185e-01 1.046965876071308088e+00
2.726226352463247404e-01 1.126684258806452732e+00
2.735842671164798179e-01 1.225347088656285166e+00
2.745458989866348398e-01 1.234730830430162740e+00
2.755075308567898618e-01 1.352714604972057089e+00
2.764691627269448837e-01 1.226887303381857919e+00
2.774307945970999056e-01 1.106889811545524793e+00
2.783924264672549276e-01 1.188069987565949504e+00
2.793540583374099495e-01 1.129181977650414836e+00
2.803156902075649715e-01 1.215325612002210676e+00
2.812773220777199934e-01 1.305061568318571119e+00
2.822389539478750153e-01 1.300070938475691662e+00
2.832005858180300373e-01 1.286181574476273681e+00
2.841622176881850592e-01 8.642665638595126154e-01
2.851238495583400812e-01 9.137904352924053342e-01
2.860854814284951586e-01 1.109850455337522135e+00
2.870471132986501805e-01 1.059857884855741617e+00
2.880087451688051470e-01 1.024069926800422081e+00
2.889703770389601689e-01 9.062027851022200764e-01
2.899320089091152464e-01 8.487581656940932362e-01
2.908936407792702683e-01 9.619647383070706326e-01
2.918552726494252902e-01 8.985236181921543164e-01
2.928169045195803122e-01 8.340239444871535568e-01
2.937785363897353341e-01 7.702085245969030325e-01
2.947401682598903561e-01 7.161304797921914655e-01
2.957018001300453780e-01 6.493247892608273730e-01
2.966634320002003999e-01 6.172746596211204917e-01
2.976250638703554219e-01 6.487529376258791558e-01
2.985866957405104993e-01 6.555367396640754407e-01
2.995483276106654658e-01 5.710094434246997253e-01
3.005099594808204877e-01 4.947136808508325601e-01
3.014715913509755651e-01 3.654701399374467030e-01
3.024332232211305871e-01 5.824085986445304286e-01
3.033948550912856090e-01 7.599818740828396813e-01
3.043564869614405755e-01 8.124286825051925121e-01
3.053181188315956529e-01 6.534091598304243576e-01
3.062797507017506748e-01 4.530362249372892336e-01
3.072413825719056968e-01 4.627134685939289227e-01
3.082030144420607187e-01 6.606018092271774833e-01
3.091646463122157407e-01 5.686301856733777527e-01
3.101262781823707626e-01 4.771959039655051527e-01
3.110879100525257845e-01 5.778723892924304550e-01
3.120495419226808065e-01 5.670008045744303615e-01
3.130111737928358284e-01 7.052013740284586163e-01
3.139728056629909059e-01 6.533553195675878555e-01
3.149344375331459278e-01 4.989773937603807497e-01
3.158960694033008942e-01 2.686300895937812072e-01
3.168577012734559162e-01 2.713782845424006496e-01
3.178193331436109936e-01 2.314970546236736482e-01
3.187809650137660156e-01 2.136894261704114228e-01
3.197425968839210375e-01 3.451269014304862992e-01
3.207042287540760039e-01 3.757449399194960904e-01
3.216658606242310814e-01 3.793997628235601383e-01
3.226274924943861033e-01 1.997595573216131015e-01
3.235891243645411253e-01 2.163061445511758052e-01
3.245507562346961472e-01 3.314662517846791445e-01
3.255123881048511691e-01 3.166045984015291026e-01
3.264740199750061911e-01 2.627703841480197866e-01
3.274356518451612130e-01 1.571535053192327780e-01
3.283972837153162350e-01 2.035034699696467442e-01
3.293589155854712569e-01 2.850963021997614533e-01
3.303205474556263344e-01 2.307993652769084747e-01
3.312821793257813563e-01 1.314358179918784231e-01
3.322438111959363227e-01 3.294106590997998296e-01
3.332054430660913447e-01 2.933533173127145233e-01
3.341670749362464221e-01 2.405614977057695114e-01
3.351287068064014441e-01 2.993839363348271831e-01
3.360903386765564660e-01 4.094322609723342055e-01
3.370519705467114324e-01 3.329529196100935451e-01
3.380136024168665099e-01 2.549403667568341803e-01
3.389752342870215318e-01 2.679802124771093474e-01
3.399368661571765537e-01 2.951633139165181774e-01
3.408984980273315757e-01 1.800755646408589428e-01
3.418601298974865976e-01 2.635055222752669124e-01
3.428217617676416196e-01 3.353635591443193675e-01
3.437833936377966415e-01 4.530197567266966985e-01
3.447450255079516634e-01 4.341868740400123272e-01
3.457066573781066854e-01 4.110247311874957177e-01
3.466682892482617628e-01 4.531939387056951318e-01
3.476299211184167848e-01 4.026487607255369028e-01
3.485915529885717512e-01 3.547801032831401358e-01
3.495531848587267731e-01 3.977200312609454613e-01
3.505148167288818506e-01 4.006313743943934469e-01
3.514764485990368725e-01 3.896882648699353524e-01
3.524380804691918945e-01 4.275542227975606124e-01
3.533997123393468609e-01 4.409252880713445677e-01
3.543613442095019384e-01 5.583923958362255746e-01
3.553229760796569603e-01 4.525016391350824563e-01
3.562846079498119822e-01 4.501953674340413158e-01
3.572462398199670042e-01 4.812104986770258108e-01
3.582078716901220261e-01 5.310893611035822914e-01
3.591695035602770480e-01 5.048391582418005896e-01
3.601311354304320700e-01 4.073107097772741270e-01
3.610927673005870919e-01 4.293564549218302773e-01
3.620543991707421139e-01 2.853008713813913744e-01
3.630160310408971913e-01 5.311360566737910460e-01
3.639776629110522133e-01 5.587376892431556996e-01
3.649392947812071797e-01 3.465679354596495898e-01
3.659009266513622016e-01 2.930558954829436402e-01
3.668625585215172791e-01 5.164982293485387288e-01
3.678241903916723010e-01 5.773946661147242310e-01
3.687858222618273230e-01 4.709474036911380779e-01
3.697474541319822894e-01 2.915321238832788708e-01
3.707090860021373668e-01 3.784164085447656589e-01
3.716707178722923888e-01 5.070751664768060607e-01
3.726323497424474107e-01 5.027007361637352290e-01
3.735939816126024327e-01 5.140730275808387262e-01
3.745556134827574546e-01 3.547267011180572638e-01
3.755172453529124765e-01 3.872160386310739000e-01
3.764788772230674985e-01 5.683586558813402689e-01
3.774405090932225204e-01 4.155470083656567226e-01
3.784021409633775423e-01 3.294630467651167294e-01
3.793637728335326198e-01 3.804727443175153212e-01
3.803254047036876417e-01 4.366658783174166558e-01
3.812870365738426082e-01 4.990243535967024968e-01
3.822486684439976301e-01 4.834867792463235503e-01
3.832103003141527076e-01 3.815969173937538983e-01
3.841719321843077295e-01 4.279909015925973392e-01
3.851335640544627514e-01 3.399447589081212584e-01
3.860951959246177734e-01 2.822241564954630633e-01
3.870568277947727953e-01 3.406967380728431749e-01
3.880184596649278173e-01 2.902717441806927923e-01
3.889800915350828392e-01 3.786694690968914756e-01
3.899417234052378611e-01 5.304840281442579908e-01
3.909033552753928831e-01 4.905118668941206295e-01
3.918649871455479050e-01 4.003753942363097451e-01
3.928266190157029270e-01 4.256469941347660324e-01
3.937882508858579489e-01 4.291706103040411335e-01
3.947498827560129708e-01 2.778609752978766778e-01
3.957115146261680483e-01 4.320406861930301545e-01
3.966731464963230702e-01 4.257448295724657328e-01
3.976347783664780366e-01 4.187865203292524541e-01
3.985964102366330586e-01 3.679192324350033516e-01
3.995580421067881360e-01 4.734760220151379428e-01
4.005196739769430470e-01 4.426088692514085210e-01
4.014813058470981244e-01 3.953566011974380956e-01
4.024429377172531463e-01 2.699603121408173934e-01
4.034045695874082238e-01 2.175863917873606113e-01
