# q (1/Angstrom), Intensity (arb)
2.067508526570814575e-02 7.258393584366476716e+02
2.163671713586316769e-02 7.612880725182917558e+02
2.259834900601819310e-02 7.904228696010725344e+02
2.355998087617321851e-02 8.009245314974347139e+02
2.452161274632824739e-02 8.033956263277651715e+02
2.548324461648326933e-02 8.075982046718287393e+02
2.644487648663829821e-02 8.069413118290541433e+02
2.740650835679332709e-02 8.009784300149926821e+02
2.836814022694834903e-02 7.990420250241128315e+02
2.932977209710337443e-02 7.987788861841746666e+02
3.029140396725839637e-02 7.911623810025429293e+02
3.125303583741342178e-02 7.843246526991842984e+02
3.221466770756845066e-02 7.799539644853440450e+02
3.317629957772347260e-02 7.743042127774754135e+02
3.413793144787850148e-02 7.702755049470456470e+02
3.509956331803352342e-02 7.640801951342822349e+02
3.606119518818855230e-02 7.568115821386770676e+02
3.702282705834358117e-02 7.481697071845670735e+02
3.798445892849860311e-02 7.381347821061855257e+02
3.894609079865363199e-02 7.269963737870677960e+02
3.990772266880865393e-02 7.213825744414796191e+02
4.086935453896367587e-02 7.128696755737194053e+02
4.183098640911870475e-02 7.012230540639255878e+02
4.279261827927372669e-02 6.914074924556933865e+02
4.375425014942875557e-02 6.796274442068826147e+02
4.471588201958377751e-02 6.673794139885241066e+02
4.567751388973880639e-02 6.564807717455015563e+02
4.663914575989382832e-02 6.475415900715487396e+02
4.760077763004885720e-02 6.366530955450705278e+02
4.856240950020387914e-02 6.266910857806203694e+02
4.952404137035890108e-02 6.112378686418757070e+02
5.048567324051392302e-02 5.984922486232510437e+02
5.144730511066895190e-02 5.883611067591195933e+02
5.240893698082397384e-02 5.768446633914745689e+02
5.337056885097899578e-02 5.623713971301954189e+02
5.433220072113403160e-02 5.479743054894588568e+02
5.529383259128905354e-02 5.356659708830055706e+02
5.625546446144407547e-02 5.220424271554902589e+02
5.721709633159910435e-02 5.074172757681994312e+02
5.817872820175412629e-02 4.918114050071795873e+02
5.914036007190914823e-02 4.778835129574551956e+02
6.010199194206417017e-02 4.654316288460312308e+02
6.106362381221920599e-02 4.516711657246364666e+02
6.202525568237422793e-02 4.381504054975019926e+02
6.298688755252924987e-02 4.238454703080465151e+02
6.394851942268428568e-02 4.118847968812121394e+02
6.491015129283930762e-02 3.993605666473035853e+02
6.587178316299432956e-02 3.861330985061828756e+02
6.683341503314935150e-02 3.731661438636102730e+02
6.779504690330438732e-02 3.631126990002430830e+02
6.875667877345940926e-02 3.502158594324989735e+02
6.971831064361443120e-02 3.375971164421571871e+02
7.067994251376945314e-02 3.257038343876173485e+02
7.164157438392447508e-02 3.143386203309992197e+02
7.260320625407949702e-02 3.023876028762040278e+02
7.356483812423453283e-02 2.906330416459337016e+02
7.452646999438955477e-02 2.801484880483744178e+02
7.548810186454457671e-02 2.690087421095742570e+02
7.644973373469959865e-02 2.602624623956529604e+02
7.741136560485463447e-02 2.499752264009410396e+02
7.837299747500965641e-02 2.400445258180264716e+02
7.933462934516467835e-02 2.286314842476436695e+02
8.029626121531971417e-02 2.186257432097146705e+02
8.125789308547473611e-02 2.087544589592193063e+02
8.221952495562975805e-02 1.994909680185914453e+02
8.318115682578479386e-02 1.902105622415824087e+02
8.414278869593981580e-02 1.814265854576966603e+02
8.510442056609483774e-02 1.733921043605438683e+02
8.606605243624985968e-02 1.648785568770330485e+02
8.702768430640489550e-02 1.568563101714462960e+02
8.798931617655991744e-02 1.492019512821048295e+02
8.895094804671493938e-02 1.413987842255672831e+02
8.991257991686996132e-02 1.344633618049017230e+02
9.087421178702498326e-02 1.267269299598949175e+02
9.183584365718000520e-02 1.198332391466795599e+02
9.279747552733502713e-02 1.136820431060504575e+02
9.375910739749006295e-02 1.072842807532070140e+02
9.472073926764508489e-02 1.012391650533178336e+02
9.568237113780010683e-02 9.495378509683595780e+01
9.664400300795514265e-02 8.965808106307633807e+01
9.760563487811016459e-02 8.328166040488395083e+01
9.856726674826518653e-02 7.927961713216510020e+01
9.952889861842022234e-02 7.412935314114636753e+01
1.004905304885752443e-01 6.885055372180080724e+01
1.014521623587302801e-01 6.472076331964855456e+01
1.024137942288853020e-01 6.017443092566676910e+01
1.033754260990403240e-01 5.606095507036211245e+01
1.043370579691953459e-01 5.254808359864006206e+01
1.052986898393503817e-01 4.796336045582638974e+01
1.062603217095053898e-01 4.420924157335420546e+01
1.072219535796604256e-01 4.095194978307340250e+01
1.081835854498154614e-01 3.792279329293087642e+01
1.091452173199704695e-01 3.499201408773222965e+01
1.101068491901255053e-01 3.126226780761742319e+01
1.110684810602805411e-01 2.853447663064409667e+01
1.120301129304355492e-01 2.662651431756764353e+01
1.129917448005905850e-01 2.448705647912021277e+01
1.139533766707456208e-01 2.183591068124928114e+01
1.149150085409006289e-01 1.971007690911905286e+01
1.158766404110556647e-01 1.754860122834689662e+01
1.168382722812106728e-01 1.607189087993705812e+01
1.177999041513657086e-01 1.395958114709329934e+01
1.187615360215207305e-01 1.244018336581274298e+01
1.197231678916757525e-01 1.127025684998873345e+01
1.206847997618307744e-01 9.807505792321506988e+00
1.216464316319858102e-01 8.730729374305006729e+00
1.226080635021408183e-01 7.674825974893153102e+00
1.235696953722958541e-01 6.758985507256710434e+00
1.245313272424508899e-01 6.098204361520309646e+00
1.254929591126059119e-01 5.497787468477827844e+00
1.264545909827609338e-01 4.529950758301701796e+00
1.274162228529159557e-01 3.440681153828300864e+00
1.283778547230709777e-01 2.903221075399425644e+00
1.293394865932259996e-01 2.712116281564217246e+00
1.303011184633810493e-01 2.525780343113925852e+00
1.312627503335360435e-01 1.995478992119736006e+00
1.322243822036910932e-01 1.548692385281416506e+00
1.331860140738460874e-01 1.302315317871936884e+00
1.341476459440011371e-01 1.241240158069484067e+00
1.351092778141561590e-01 1.283030848401544688e+00
1.360709096843111809e-01 1.284865704964019528e+00
1.370325415544662029e-01 1.326367741732685346e+00
1.379941734246212526e-01 1.463127341424719674e+00
1.389558052947762468e-01 1.338115184162784743e+00
1.399174371649312965e-01 1.440664370835804675e+00
1.408790690350863184e-01 1.146846525496197700e+00
1.418407009052413403e-01 1.101963963705188121e+00
1.428023327753963623e-01 1.721257260255661947e+00
1.437639646455513842e-01 2.242753616084677049e+00
1.447255965157064062e-01 2.453054401821013641e+00
1.456872283858614281e-01 2.476488876065062072e+00
1.466488602560164778e-01 2.449438508266524650e+00
1.476104921261714720e-01 2.766872371128311414e+00
1.485721239963265217e-01 3.159930273290271430e+00
1.495337558664815436e-01 3.433431232465682825e+00
1.504953877366365655e-01 3.684103440283074349e+00
1.514570196067915875e-01 3.988308121672137219e+00
1.524186514769466094e-01 4.320714063885219502e+00
1.533802833471016314e-01 4.565188194047518522e+00
1.543419152172566811e-01 4.602407398483951084e+00
1.553035470874116752e-01 4.752176483713352440e+00
1.562651789575667249e-01 5.123353964093997348e+00
1.572268108277217469e-01 5.347293418773723772e+00
1.581884426978767688e-01 5.275566806573248613e+00
1.591500745680317908e-01 5.491593795928288557e+00
1.601117064381868405e-01 5.928657508368051055e+00
1.610733383083418346e-01 6.057212343849187164e+00
1.620349701784968843e-01 5.960752265130007999e+00
1.629966020486519063e-01 6.146919946713559568e+00
1.639582339188069282e-01 6.651355643571722709e+00
1.649198657889619501e-01 6.574393338739412229e+00
1.658814976591169721e-01 6.772530708539310496e+00
1.668431295292719940e-01 7.228747049763622812e+00
1.678047613994270160e-01 7.083988231413979264e+00
1.687663932695820379e-01 6.974831403759708337e+00
1.697280251397370598e-01 7.218112123984553818e+00
1.706896570098921095e-01 7.233609771121130905e+00
1.716512888800471037e-01 7.200772005230412276e+00
1.726129207502021534e-01 7.257674510886289454e+00
1.735745526203571754e-01 7.084720930606152933e+00
1.745361844905121973e-01 7.215741110323197205e+00
1.754978163606672192e-01 7.322508659708763190e+00
1.764594482308222689e-01 7.190001987228423985e+00
1.774210801009772631e-01 6.864347498900269073e+00
1.783827119711323128e-01 6.572873322682315944e+00
1.793443438412873348e-01 7.047804027004694660e+00
1.803059757114423567e-01 6.837296101384392699e+00
1.812676075815973786e-01 6.814412171267488105e+00
1.822292394517524006e-01 6.584882145528535347e+00
1.831908713219074225e-01 6.390056394618355284e+00
1.841525031920624444e-01 6.213826399578159965e+00
1.851141350622174664e-01 6.115462695476505672e+00
1.860757669323724883e-01 5.895757297441036826e+00
1.870373988025275380e-01 5.459602609961883957e+00
1.879990306726825322e-01 5.354220167349055259e+00
1.889606625428375819e-01 5.474289175907358640e+00
1.899222944129926038e-01 5.285954677624172149e+00
1.908839262831476258e-01 4.903738501683299944e+00
1.918455581533026477e-01 4.809296355682334934e+00
1.928071900234576974e-01 4.670217086321841293e+00
1.937688218936126916e-01 4.493640443360600756e+00
1.947304537637677413e-01 4.648188338789744023e+00
1.956920856339227632e-01 4.462838735374226928e+00
1.966537175040777852e-01 4.102947314816400848e+00
1.976153493742328071e-01 4.028985272940172280e+00
1.985769812443878291e-01 3.896829934213965174e+00
1.995386131145428510e-01 3.648113502678459241e+00
2.005002449846978729e-01 3.470515689277263505e+00
2.014618768548528949e-01 3.285674679727737413e+00
2.024235087250079168e-01 3.039162245640770976e+00
2.033851405951629665e-01 3.153775666145708811e+00
2.043467724653179884e-01 2.944180974607203183e+00
2.053084043354730381e-01 2.559143368420965459e+00
2.062700362056280046e-01 2.317870424569765220e+00
2.072316680757830543e-01 2.254376923200883454e+00
2.081932999459380762e-01 2.288470219042096687e+00
2.091549318160931259e-01 2.020028193006037753e+00
2.101165636862481478e-01 1.723260620528495934e+00
2.110781955564031698e-01 1.487709244503136574e+00
2.120398274265581640e-01 1.262101379273371293e+00
2.130014592967132137e-01 1.129474524518517597e+00
2.139630911668682356e-01 1.306772591239184322e+00
2.149247230370232575e-01 1.283815172838401963e+00
2.158863549071783072e-01 1.140619960188420379e+00
2.168479867773333014e-01 1.007674904822394524e+00
2.178096186474883234e-01 8.778842031472038343e-01
2.187712505176433453e-01 7.447984134702601011e-01
2.197328823877983950e-01 6.645858893772107479e-01
2.206945142579534169e-01 7.893330181290423297e-01
2.216561461281084666e-01 6.258286952266871594e-01
2.226177779982634330e-01 4.823681145413445392e-01
2.235794098684184827e-01 2.615046728880727755e-01
2.245410417385735047e-01 1.809828030890834327e-01
2.255026736087285544e-01 2.319475702366382563e-01
2.264643054788835763e-01 9.385218689754282195e-02
2.274259373490385983e-01 1.046368216695015008e-02
2.283875692191935924e-01 1.143268541283823936e-01
2.293492010893486421e-01 3.302780040655761695e-01
2.303108329595036641e-01 3.051490945916377484e-01
2.312724648296586860e-01 1.510999605415470626e-01
2.322340966998137357e-01 1.737494775926720081e-01
2.331957285699687299e-01 2.814538131194126436e-01
2.341573604401237518e-01 5.170753022680187883e-01
2.351189923102787738e-01 5.133160910347207562e-01
2.360806241804338235e-01 2.155929962071354566e-01
2.370422560505888454e-01 1.507016691046665358e-01
2.380038879207438951e-01 2.689870044246127634e-01
2.389655197908988615e-01 2.869959007773381643e-01
2.399271516610539112e-01 1.250489791241413684e-01
2.408887835312089332e-01 1.926546669836746162e-01
2.418504154013639829e-01 3.970540703388181214e-01
2.428120472715190048e-01 5.957330878696112109e-01
2.437736791416740267e-01 5.881708328585553147e-01
2.447353110118290209e-01 2.581613809433065398e-01
2.456969428819840706e-01 4.488935072148656502e-01
2.466585747521390926e-01 3.952490946800395477e-01
2.476202066222941145e-01 6.247029365300846848e-01
2.485818384924491642e-01 5.285241549456287657e-01
2.495434703626041584e-01 6.482762256081890939e-01
2.505051022327591803e-01 6.472334797535062023e-01
2.514667341029142023e-01 6.693323297408788619e-01
2.524283659730692242e-01 6.806890672606584758e-01
2.533899978432243016e-01 9.304348003367657327e-01
2.543516297133793236e-01 6.668288228098262493e-01
2.553132615835342900e-01 6.476257975714645454e-01
2.562748934536893120e-01 6.635540188244242188e-01
2.572365253238443894e-01 5.452575603000155979e-01
2.581981571939994113e-01 7.238950087987028326e-01
2.591597890641544333e-01 6.360883964596020235e-01
2.601214209343094552e-01 6.625812067212599743e-01
2.610830528044644772e-01 9.257244874595471629e-01
2.620446846746194991e-01 1.041307617134112462e+00
2.630063165447745210e-01 9.955512210435486509e-01
2.639679484149295430e-01 1.074009934832673707e+00
2.649295802850845649e-01 1.306967057326826165e+00
2.658912121552395869e-01 1.231242608173801045e+00
2.668528440253946088e-01 1.000452463846770002e+00
2.678144758955496307e-01 1.052914574654721491e+00
2.687761077657046527e-01 1.201212838220779844e+00
2.697377396358597301e-01 1.089067094506717126e+00
2.706993715060147521e-01 9.902674751015858590e-01
2.716610033761697185e-01 1.154569717916231752e+00
2.726226352463247404e-01 1.033742064156260909e+00
2.735842671164798179e-01 1.135248966618448208e+00
2.745458989866348398e-01 8.623616669970353144e-01
2.755075308567898618e-01 6.621443002699329838e-01
2.764691627269448837e-01 1.079757344447564549e+00
2.774307945970999056e-01 1.044646932245463233e+00
2.783924264672549276e-01 1.020693951454884285e+00
2.793540583374099495e-01 1.060908334975810163e+00
2.803156902075649715e-01 8.544488800807954476e-01
2.812773220777199934e-01 8.450170396576943688e-01
2.822389539478750153e-01 1.070213770160933109e+00
2.832005858180300373e-01 8.780616517687569456e-01
2.841622176881850592e-01 8.707918735665565180e-01
2.851238495583400812e-01 1.016889795011273634e+00
2.860854814284951586e-01 7.479173323928876016e-01
2.870471132986501805e-01 6.846451013371428473e-01
2.880087451688051470e-01 7.875218839250877068e-01
2.889703770389601689e-01 8.652128488308612475e-01
2.899320089091152464e-01 7.418011285325505355e-01
2.908936407792702683e-01 5.542843282719651654e-01
2.918552726494252902e-01 8.088467905708043304e-01
2.928169045195803122e-01 7.971291489686542775e-01
2.937785363897353341e-01 7.902763240352399521e-01
2.947401682598903561e-01 5.537365461822467694e-01
2.957018001300453780e-01 3.834966577613805327e-01
2.966634320002003999e-01 6.182652855485883947e-01
2.976250638703554219e-01 6.769184620997457102e-01
2.985866957405104993e-01 6.758471946232553762e-01
2.995483276106654658e-01 5.592152211381637983e-01
3.005099594808204877e-01 4.581422822782101889e-01
3.014715913509755651e-01 4.213735680365431335e-01
3.024332232211305871e-01 4.705755512494462778e-01
3.033948550912856090e-01 5.722676680750176104e-01
3.043564869614405755e-01 4.896272742419078838e-01
3.053181188315956529e-01 3.991310137579020534e-01
3.062797507017506748e-01 4.741514804947151163e-01
3.072413825719056968e-01 3.387970078640911709e-01
3.082030144420607187e-01 3.225170340577498962e-01
3.091646463122157407e-01 3.170756471349669425e-01
3.101262781823707626e-01 2.865436842233997083e-01
3.110879100525257845e-01 2.456132245687179250e-01
3.120495419226808065e-01 4.182076209024678803e-01
3.130111737928358284e-01 3.642133109978047401e-01
3.139728056629909059e-01 2.491892388548464510e-01
3.149344375331459278e-01 1.513858528692715311e-01
3.158960694033008942e-01 3.100861362668432264e-01
3.168577012734559162e-01 3.563085757832453737e-01
3.178193331436109936e-01 3.262388372641780165e-01
3.187809650137660156e-01 3.655565818388701871e-01
3.197425968839210375e-01 1.649940050190217278e-01
3.207042287540760039e-01 2.176846753854242422e-01
3.216658606242310814e-01 1.826025982885681742e-01
3.226274924943861033e-01 3.721980105204210076e-01
3.235891243645411253e-01 3.288374257828401426e-01
3.245507562346961472e-01 2.971757657857736490e-01
3.255123881048511691e-01 1.211575679056586807e-01
3.264740199750061911e-01 2.699482089777447413e-01
3.274356518451612130e-01 4.373664498674862955e-01
3.283972837153162350e-01 3.360585341027402251e-01
3.293589155854712569e-01 2.109075841332668233e-01
3.303205474556263344e-01 2.228473814770843831e-01
3.312821793257813563e-01 9.415319660235610399e-02
3.322438111959363227e-01 1.208068694286872358e-01
3.332054430660913447e-01 2.268440207513684470e-01
3.341670749362464221e-01 2.064513180803402292e-01
3.351287068064014441e-01 2.883092018794286560e-02
3.360903386765564660e-01 9.821337300599708442e-02
3.370519705467114324e-01 3.951363061557593426e-01
3.380136024168665099e-01 4.529537145126738551e-01
3.389752342870215318e-01 5.152695985742461460e-01
3.399368661571765537e-01 3.219787744865563184e-01
3.408984980273315757e-01 2.212967763447863945e-01
3.418601298974865976e-01 3.803490845705859158e-01
3.428217617676416196e-01 3.245612537709803291e-01
3.437833936377966415e-01 3.314766174455634484e-01
3.447450255079516634e-01 3.444480367170932311e-01
3.457066573781066854e-01 2.147350011086679444e-01
3.466682892482617628e-01 2.445632431347064539e-01
3.476299211184167848e-01 1.770037732621965176e-01
3.485915529885717512e-01 1.255432020145512695e-01
3.495531848587267731e-01 9.984566968245545127e-02
3.505148167288818506e-01 4.404276379244365103e-02
3.514764485990368725e-01 0.000000000000000000e+00
3.524380804691918945e-01 1.584654022513909410e-01
3.533997123393468609e-01 4.389232051390017375e-01
3.543613442095019384e-01 3.398248294553170012e-01
3.553229760796569603e-01 4.084743794479308576e-01
3.562846079498119822e-01 3.211049801649359381e-01
3.572462398199670042e-01 1.206627785310523393e-01
3.582078716901220261e-01 4.017200305703596541e-01
3.591695035602770480e-01 4.000524797626177076e-01
3.601311354304320700e-01 3.090291464481467187e-01
3.610927673005870919e-01 3.901655219397071050e-01
3.620543991707421139e-01 3.407132944735771218e-01
3.630160310408971913e-01 3.249102321465144882e-01
3.639776629110522133e-01 2.879332059882173667e-01
3.649392947812071797e-01 5.328331787367623917e-01
3.659009266513622016e-01 4.268015507857292334e-01
3.668625585215172791e-01 3.501750607413889327e-01
3.678241903916723010e-01 2.305425112913965791e-01
3.687858222618273230e-01 2.146067656793206879e-01
3.697474541319822894e-01 3.605288502008114904e-01
3.707090860021373668e-01 3.706994219716186478e-01
3.716707178722923888e-01 4.279975255567762815e-01
3.726323497424474107e-01 4.345650535825953398e-01
3.735939816126024327e-01 5.341007559181889519e-01
3.745556134827574546e-01 4.282301013066778239e-01
3.755172453529124765e-01 4.161527669071993785e-01
3.764788772230674985e-01 4.641194906990655511e-01
3.774405090932225204e-01 4.359038894339768433e-01
3.784021409633775423e-01 2.476346897903063393e-01
3.793637728335326198e-01 1.315831934777769163e-01
3.803254047036876417e-01 1.177877838814964662e-01
3.812870365738426082e-01 3.799151452898357206e-01
3.822486684439976301e-01 4.108455389873775232e-01
3.832103003141527076e-01 4.303317758549454197e-01
3.841719321843077295e-01 5.800697074425436028e-01
3.851335640544627514e-01 5.553860113061688253e-01
3.860951959246177734e-01 4.310252224792741060e-01
3.870568277947727953e-01 4.040729727674516880e-01
3.880184596649278173e-01 2.499442645896081672e-01
3.889800915350828392e-01 2.248589468546455805e-01
3.899417234052378611e-01 2.525628520152878309e-01
3.909033552753928831e-01 2.696650974696410685e-01
3.918649871455479050e-01 2.622001772885589332e-01
3.928266190157029270e-01 2.134413299991209101e-01
3.937882508858579489e-01 2.664699519344040368e-01
3.947498827560129708e-01 3.199873946636344613e-01
3.957115146261680483e-01 2.640152078172235406e-01
3.966731464963230702e-01 2.633971218196968778e-01
3.976347783664780366e-01 2.392736730725886218e-01
3.985964102366330586e-01 3.435985205681859611e-01
3.995580421067881360e-01 4.119565677769898571e-01
4.005196739769430470e-01 4.285014479575686153e-01
4.014813058470981244e-01 3.172920480900920381e-01
4.024429377172531463e-01 3.129036083461826934e-01
4.034045695874082238e-01 2.729640988721726558e-01
