# q (1/Angstrom), Intensity (arb)
2.067508526570814575e-02 7.423361196387633072e+02
2.163671713586316769e-02 7.740746585524651664e+02
2.259834900601819310e-02 8.033559416940531719e+02
2.355998087617321851e-02 8.097091477026823441e+02
2.452161274632824739e-02 8.119824260675530923e+02
2.548324461648326933e-02 8.143110483184358372e+02
2.644487648663829821e-02 8.139842149090404746e+02
2.740650835679332709e-02 8.127381489145099067e+02
2.836814022694834903e-02 8.101426786459188634e+02
2.932977209710337443e-02 8.050333628702104534e+02
3.029140396725839637e-02 8.006617113298975710e+02
3.125303583741342178e-02 7.959715304901610580e+02
3.221466770756845066e-02 7.893261358289455529e+02
3.317629957772347260e-02 7.825022529417555006e+02
3.413793144787850148e-02 7.745860763639255993e+02
3.509956331803352342e-02 7.666484777032626425e+02
3.606119518818855230e-02 7.624341240120828616e+02
3.702282705834358117e-02 7.542940835521359304e+02
3.798445892849860311e-02 7.450483007061277476e+02
3.894609079865363199e-02 7.384088015908556599e+02
3.990772266880865393e-02 7.276161350279234057e+02
4.086935453896367587e-02 7.203563370004665103e+02
4.183098640911870475e-02 7.124552612275583670e+02
4.279261827927372669e-02 7.036162068326555072e+02
4.375425014942875557e-02 6.907413967782956661e+02
4.471588201958377751e-02 6.735475892015639374e+02
4.567751388973880639e-02 6.635391864524933681e+02
4.663914575989382832e-02 6.565597368781214982e+02
4.760077763004885720e-02 6.438217519277677638e+02
4.856240950020387914e-02 6.329189320093598781e+02
4.952404137035890108e-02 6.227840395485987983e+02
5.048567324051392302e-02 6.084916839809199018e+02
5.144730511066895190e-02 5.950694287887260998e+02
5.240893698082397384e-02 5.815781051105084316e+02
5.337056885097899578e-02 5.686820144067461342e+02
5.433220072113403160e-02 5.552663147062513644e+02
5.529383259128905354e-02 5.403483027221325301e+02
5.625546446144407547e-02 5.272459396652765236e+02
5.721709633159910435e-02 5.123855083259140883e+02
5.817872820175412629e-02 4.985874363083182175e+02
5.914036007190914823e-02 4.852025056927164997e+02
6.010199194206417017e-02 4.707495671934771622e+02
6.106362381221920599e-02 4.576699821776941235e+02
6.202525568237422793e-02 4.449501640403740339e+02
6.298688755252924987e-02 4.302125640286969315e+02
6.394851942268428568e-02 4.165293437395004048e+02
6.491015129283930762e-02 4.032630715770009715e+02
6.587178316299432956e-02 3.901128273753157600e+02
6.683341503314935150e-02 3.793282338492865051e+02
6.779504690330438732e-02 3.666441352560914879e+02
6.875667877345940926e-02 3.550040679451641381e+02
6.971831064361443120e-02 3.440118751854130323e+02
7.067994251376945314e-02 3.306409856350912264e+02
7.164157438392447508e-02 3.191151582674831957e+02
7.260320625407949702e-02 3.064709886250868749e+02
7.356483812423453283e-02 2.950923740749553303e+02
7.452646999438955477e-02 2.855246212457261095e+02
7.548810186454457671e-02 2.735717340673616604e+02
7.644973373469959865e-02 2.624619613198167372e+02
7.741136560485463447e-02 2.535912300091217730e+02
7.837299747500965641e-02 2.438216562572832800e+02
7.933462934516467835e-02 2.325262208536210267e+02
8.029626121531971417e-02 2.219152807258280689e+02
8.125789308547473611e-02 2.123986455488705474e+02
8.221952495562975805e-02 2.038516734771565382e+02
8.318115682578479386e-02 1.943739027211302073e+02
8.414278869593981580e-02 1.850289246262240965e+02
8.510442056609483774e-02 1.766573917794465842e+02
8.606605243624985968e-02 1.682896262424044096e+02
8.702768430640489550e-02 1.595584865247550965e+02
8.798931617655991744e-02 1.525626991321053083e+02
8.895094804671493938e-02 1.443114443063705608e+02
8.991257991686996132e-02 1.368931755194710149e+02
9.087421178702498326e-02 1.297796061609857361e+02
9.183584365718000520e-02 1.229350175338969962e+02
9.279747552733502713e-02 1.161669684750196438e+02
9.375910739749006295e-02 1.094921443068682549e+02
9.472073926764508489e-02 1.035339931228127455e+02
9.568237113780010683e-02 9.842499327042244772e+01
9.664400300795514265e-02 9.246846074056743703e+01
9.760563487811016459e-02 8.627976820282486869e+01
9.856726674826518653e-02 8.040764464976709291e+01
9.952889861842022234e-02 7.538605086405604538e+01
1.004905304885752443e-01 7.046309577987591410e+01
1.014521623587302801e-01 6.614706718805732066e+01
1.024137942288853020e-01 6.150668442879646847e+01
1.033754260990403240e-01 5.743847173150422236e+01
1.043370579691953459e-01 5.298670304170668999e+01
1.052986898393503817e-01 4.949095429496633614e+01
1.062603217095053898e-01 4.579358622299851334e+01
1.072219535796604256e-01 4.214820726148880681e+01
1.081835854498154614e-01 3.892915189867976267e+01
1.091452173199704695e-01 3.521768861211188550e+01
1.101068491901255053e-01 3.287266551543022075e+01
1.110684810602805411e-01 3.016132807740551769e+01
1.120301129304355492e-01 2.701668706107347973e+01
1.129917448005905850e-01 2.409685885192522647e+01
1.139533766707456208e-01 2.232647603745451903e+01
1.149150085409006289e-01 2.047312886455955194e+01
1.158766404110556647e-01 1.838909946141722784e+01
1.168382722812106728e-01 1.649611658298081807e+01
1.177999041513657086e-01 1.524653038559564067e+01
1.187615360215207305e-01 1.355259274471702824e+01
1.197231678916757525e-01 1.202119405680342368e+01
1.206847997618307744e-01 1.039951902920169502e+01
1.216464316319858102e-01 9.297924883820751774e+00
1.226080635021408183e-01 8.112819394391166838e+00
1.235696953722958541e-01 7.655271983410887771e+00
1.245313272424508899e-01 6.920440421444634893e+00
1.254929591126059119e-01 5.952167809611125904e+00
1.264545909827609338e-01 5.378014976730238317e+00
1.274162228529159557e-01 4.803305592596576190e+00
1.283778547230709777e-01 4.064240675084619170e+00
1.293394865932259996e-01 3.480132682662691934e+00
1.303011184633810493e-01 2.875153870475013917e+00
1.312627503335360435e-01 2.482814662249822391e+00
1.322243822036910932e-01 2.194123209694151200e+00
1.331860140738460874e-01 1.947138943693147439e+00
1.341476459440011371e-01 1.985933904906762137e+00
1.351092778141561590e-01 1.915202958915816822e+00
1.360709096843111809e-01 1.901647395429268528e+00
1.370325415544662029e-01 1.601467386297887430e+00
1.379941734246212526e-01 1.350324429942361348e+00
1.389558052947762468e-01 1.407766190627206981e+00
1.399174371649312965e-01 1.950557038334725490e+00
1.408790690350863184e-01 2.343591214070734452e+00
1.418407009052413403e-01 1.893239673230521447e+00
1.428023327753963623e-01 1.891793028762776885e+00
1.437639646455513842e-01 2.530749423083204164e+00
1.447255965157064062e-01 3.021332803550865975e+00
1.456872283858614281e-01 2.809215032020322411e+00
1.466488602560164778e-01 2.868798806170801186e+00
1.476104921261714720e-01 3.184264462768346959e+00
1.485721239963265217e-01 3.985261595464770323e+00
1.495337558664815436e-01 4.302385875369811430e+00
1.504953877366365655e-01 4.351766774370158686e+00
1.514570196067915875e-01 4.374567831718099598e+00
1.524186514769466094e-01 4.339126259083851522e+00
1.533802833471016314e-01 4.646658252981339388e+00
1.543419152172566811e-01 5.057322020563695730e+00
1.553035470874116752e-01 5.648578545086689218e+00
1.562651789575667249e-01 5.910623943541278180e+00
1.572268108277217469e-01 5.973612830605688373e+00
1.581884426978767688e-01 6.011838767211013845e+00
1.591500745680317908e-01 6.501435586448259585e+00
1.601117064381868405e-01 6.375163875103314837e+00
1.610733383083418346e-01 6.575734396065215037e+00
1.620349701784968843e-01 6.623732938136466686e+00
1.629966020486519063e-01 6.939745682688176487e+00
1.639582339188069282e-01 6.806916958468001155e+00
1.649198657889619501e-01 7.068322849804015817e+00
1.658814976591169721e-01 7.427254427229936340e+00
1.668431295292719940e-01 7.348715818785812814e+00
1.678047613994270160e-01 7.514127816412702998e+00
1.687663932695820379e-01 7.945347077513304157e+00
1.697280251397370598e-01 7.952410619320183116e+00
1.706896570098921095e-01 7.748424091558014482e+00
1.716512888800471037e-01 7.706881628145399787e+00
1.726129207502021534e-01 7.701912633089559534e+00
1.735745526203571754e-01 7.429687396170638891e+00
1.745361844905121973e-01 7.562463779446620293e+00
1.754978163606672192e-01 7.562100190215996776e+00
1.764594482308222689e-01 7.762711776812444953e+00
1.774210801009772631e-01 7.657301714893947064e+00
1.783827119711323128e-01 7.457346959569129297e+00
1.793443438412873348e-01 7.280737197864631582e+00
1.803059757114423567e-01 7.208848436067015086e+00
1.812676075815973786e-01 6.942874976789319419e+00
1.822292394517524006e-01 6.989372684189159912e+00
1.831908713219074225e-01 6.711599277356032900e+00
1.841525031920624444e-01 6.465062543305013065e+00
1.851141350622174664e-01 6.175057808065687937e+00
1.860757669323724883e-01 6.188407604279621665e+00
1.870373988025275380e-01 6.146006341885726698e+00
1.879990306726825322e-01 6.150370253133935705e+00
1.889606625428375819e-01 6.095797290289937109e+00
1.899222944129926038e-01 5.957563486536372466e+00
1.908839262831476258e-01 5.694266667063093479e+00
1.918455581533026477e-01 5.429210730913364813e+00
1.928071900234576974e-01 5.236225586769283069e+00
1.937688218936126916e-01 5.356549200786485443e+00
1.947304537637677413e-01 5.004045344638740289e+00
1.956920856339227632e-01 4.463209364684889380e+00
1.966537175040777852e-01 4.659952070660949630e+00
1.976153493742328071e-01 4.504220406981829683e+00
1.985769812443878291e-01 4.333403877461549314e+00
1.995386131145428510e-01 4.327064387769564036e+00
2.005002449846978729e-01 3.966840793717267388e+00
2.014618768548528949e-01 3.370031255228926881e+00
2.024235087250079168e-01 3.304029349163343454e+00
2.033851405951629665e-01 3.359452685644264136e+00
2.043467724653179884e-01 3.159425213884109240e+00
2.053084043354730381e-01 2.849489772637770812e+00
2.062700362056280046e-01 2.822358168973895687e+00
2.072316680757830543e-01 2.726489414505181230e+00
2.081932999459380762e-01 2.780338863326615950e+00
2.091549318160931259e-01 2.412348971314074220e+00
2.101165636862481478e-01 2.358446629254380866e+00
2.110781955564031698e-01 2.000925062819582934e+00
2.120398274265581640e-01 1.670837916617340824e+00
2.130014592967132137e-01 1.903918276225088135e+00
2.139630911668682356e-01 1.763613700728924982e+00
2.149247230370232575e-01 1.633660243695228331e+00
2.158863549071783072e-01 1.567623781258340898e+00
2.168479867773333014e-01 1.405266878770149219e+00
2.178096186474883234e-01 1.360968543447825141e+00
2.187712505176433453e-01 1.214260814556268997e+00
2.197328823877983950e-01 1.102978938615759574e+00
2.206945142579534169e-01 1.011393340275859032e+00
2.216561461281084666e-01 1.026527208859270957e+00
2.226177779982634330e-01 1.089206403564418224e+00
2.235794098684184827e-01 9.666984060966576919e-01
2.245410417385735047e-01 8.427785543428356618e-01
2.255026736087285544e-01 8.469544009649645488e-01
2.264643054788835763e-01 8.254039516568347779e-01
2.274259373490385983e-01 5.972465486362175113e-01
2.283875692191935924e-01 7.699938658502638589e-01
2.293492010893486421e-01 8.662907304478117965e-01
2.303108329595036641e-01 8.209418240467805106e-01
2.312724648296586860e-01 6.311743242299492351e-01
2.322340966998137357e-01 6.310052200392952670e-01
2.331957285699687299e-01 5.937705474265975170e-01
2.341573604401237518e-01 3.810837869107643883e-01
2.351189923102787738e-01 5.239199788056048135e-01
2.360806241804338235e-01 6.754291038223740884e-01
2.370422560505888454e-01 7.669628653783320260e-01
2.380038879207438951e-01 8.186494365937591056e-01
2.389655197908988615e-01 8.056143193933600344e-01
2.399271516610539112e-01 8.036377300006947166e-01
2.408887835312089332e-01 9.083422487154564351e-01
2.418504154013639829e-01 1.052004360520786719e+00
2.428120472715190048e-01 1.020608988412142537e+00
2.437736791416740267e-01 1.051223791681636044e+00
2.447353110118290209e-01 1.071933562270714901e+00
2.456969428819840706e-01 9.823973933060301533e-01
2.466585747521390926e-01 9.016574238281052089e-01
2.476202066222941145e-01 9.715132726814665887e-01
2.485818384924491642e-01 1.203425321238707824e+00
2.495434703626041584e-01 1.273011215563936815e+00
2.505051022327591803e-01 9.780814115168183775e-01
2.514667341029142023e-01 7.675273269459133019e-01
2.524283659730692242e-01 1.078921910073791679e+00
2.533899978432243016e-01 1.193434469892778793e+00
2.543516297133793236e-01 1.327881621813947532e+00
2.553132615835342900e-01 1.409334572265109387e+00
2.562748934536893120e-01 1.285027483687930072e+00
2.572365253238443894e-01 1.273389570414980909e+00
2.581981571939994113e-01 1.716236274471270917e+00
2.591597890641544333e-01 1.463309494968875413e+00
2.601214209343094552e-01 1.416527617462879363e+00
2.610830528044644772e-01 1.067930335174189338e+00
2.620446846746194991e-01 1.312319611048291534e+00
2.630063165447745210e-01 1.653560727130081176e+00
2.639679484149295430e-01 1.546351050013988981e+00
2.649295802850845649e-01 1.419072878229158619e+00
2.658912121552395869e-01 1.354510151319203715e+00
2.668528440253946088e-01 1.425343205112913125e+00
2.678144758955496307e-01 1.361366445868313235e+00
2.687761077657046527e-01 1.472886900978561897e+00
2.697377396358597301e-01 1.370480639200234663e+00
2.706993715060147521e-01 1.579809984821018531e+00
2.716610033761697185e-01 1.678611191361593313e+00
2.726226352463247404e-01 1.510775292488549582e+00
2.735842671164798179e-01 1.582997760613611860e+00
2.745458989866348398e-01 1.569393533173151667e+00
2.755075308567898618e-01 1.517960876238973356e+00
2.764691627269448837e-01 1.319431032612929044e+00
2.774307945970999056e-01 1.293316678816118781e+00
2.783924264672549276e-01 1.531491448139011169e+00
2.793540583374099495e-01 1.592771418607334510e+00
2.803156902075649715e-01 1.589926150948251404e+00
2.812773220777199934e-01 1.396800298236733795e+00
2.822389539478750153e-01 1.349940175204793036e+00
2.832005858180300373e-01 1.400601013046738785e+00
2.841622176881850592e-01 1.386468580811538232e+00
2.851238495583400812e-01 1.070220080971424181e+00
2.860854814284951586e-01 1.261379680441720552e+00
2.870471132986501805e-01 1.391794508696154509e+00
2.880087451688051470e-01 1.437292561138178826e+00
2.889703770389601689e-01 1.468558433908473404e+00
2.899320089091152464e-01 1.225828540222384078e+00
2.908936407792702683e-01 1.219405480474623715e+00
2.918552726494252902e-01 1.293132325046933317e+00
2.928169045195803122e-01 1.210606628324402578e+00
2.937785363897353341e-01 9.981580142690695823e-01
2.947401682598903561e-01 1.085806389167483843e+00
2.957018001300453780e-01 1.083316937152964954e+00
2.966634320002003999e-01 1.253809888718897980e+00
2.976250638703554219e-01 1.010971047349006113e+00
2.985866957405104993e-01 1.142365428998200372e+00
2.995483276106654658e-01 1.048278550905418882e+00
3.005099594808204877e-01 8.637001030658453260e-01
3.014715913509755651e-01 8.781921608492453402e-01
3.024332232211305871e-01 8.554644257226371451e-01
3.033948550912856090e-01 8.228860109368874021e-01
3.043564869614405755e-01 7.443200975881758552e-01
3.053181188315956529e-01 8.766490134347506569e-01
3.062797507017506748e-01 1.016620042088653975e+00
3.072413825719056968e-01 1.088827859244947405e+00
3.082030144420607187e-01 8.706592796708925164e-01
3.091646463122157407e-01 7.409319803512204317e-01
3.101262781823707626e-01 8.880221148852704971e-01
3.110879100525257845e-01 9.313275376761893654e-01
3.120495419226808065e-01 9.356956264682843027e-01
3.130111737928358284e-01 9.392429808301123728e-01
3.139728056629909059e-01 9.214096724855309617e-01
3.149344375331459278e-01 7.577659225052038039e-01
3.158960694033008942e-01 8.406080072024089134e-01
3.168577012734559162e-01 7.840207026683039260e-01
3.178193331436109936e-01 5.866520306455917932e-01
3.187809650137660156e-01 6.352718990804540056e-01
3.197425968839210375e-01 4.875247434468903407e-01
3.207042287540760039e-01 3.285218284751536544e-01
3.216658606242310814e-01 5.858167777053964187e-01
3.226274924943861033e-01 6.301681651656991789e-01
3.235891243645411253e-01 5.438163785964853503e-01
3.245507562346961472e-01 5.006946954453326271e-01
3.255123881048511691e-01 4.005002108221020762e-01
3.264740199750061911e-01 4.054365920286429059e-01
3.274356518451612130e-01 5.248283604622372422e-01
3.283972837153162350e-01 5.198519014121920634e-01
3.293589155854712569e-01 5.114361482416747151e-01
3.303205474556263344e-01 6.369202702379226366e-01
3.312821793257813563e-01 5.462173512584911350e-01
3.322438111959363227e-01 6.072023419011820522e-01
3.332054430660913447e-01 5.580277275930463077e-01
3.341670749362464221e-01 5.248511063453271674e-01
3.351287068064014441e-01 4.695903541151906779e-01
3.360903386765564660e-01 4.210316277265491181e-01
3.370519705467114324e-01 4.891594034817643433e-01
3.380136024168665099e-01 5.313144133943694669e-01
3.389752342870215318e-01 5.172878798467088757e-01
3.399368661571765537e-01 5.821338001449234412e-01
3.408984980273315757e-01 4.829274978384283656e-01
3.418601298974865976e-01 4.873116355926363497e-01
3.428217617676416196e-01 5.758036781520878833e-01
3.437833936377966415e-01 7.308169135627835544e-01
3.447450255079516634e-01 7.619707626266709610e-01
3.457066573781066854e-01 7.002114995742374504e-01
3.466682892482617628e-01 8.092803335131151243e-01
3.476299211184167848e-01 7.071339311302153874e-01
3.485915529885717512e-01 6.052365646723423254e-01
3.495531848587267731e-01 7.546996136093717666e-01
3.505148167288818506e-01 5.473425134044909157e-01
3.514764485990368725e-01 7.746723237989776578e-01
3.524380804691918945e-01 7.534508762305129892e-01
3.533997123393468609e-01 7.248750684645877129e-01
3.543613442095019384e-01 6.369365213374393875e-01
3.553229760796569603e-01 5.072125860874763248e-01
3.562846079498119822e-01 7.162877281027562049e-01
3.572462398199670042e-01 7.818786230245073909e-01
3.582078716901220261e-01 9.158099612688559432e-01
3.591695035602770480e-01 8.908654047143222954e-01
3.601311354304320700e-01 7.807979567485752170e-01
3.610927673005870919e-01 8.201810605432200418e-01
3.620543991707421139e-01 7.296344212553940167e-01
3.630160310408971913e-01 6.741790393145343785e-01
3.639776629110522133e-01 8.735546647911185403e-01
3.649392947812071797e-01 1.006472397818711784e+00
3.659009266513622016e-01 9.946765860232318346e-01
3.668625585215172791e-01 9.767992497887902914e-01
3.678241903916723010e-01 8.456168804655312954e-01
3.687858222618273230e-01 8.741526187635138001e-01
3.697474541319822894e-01 7.287398685078585459e-01
3.707090860021373668e-01 6.717710062537918247e-01
3.716707178722923888e-01 6.054101404716440982e-01
3.726323497424474107e-01 7.204624963244050662e-01
3.735939816126024327e-01 7.075752472184575481e-01
3.745556134827574546e-01 7.578272175397167132e-01
3.755172453529124765e-01 8.762906749448262644e-01
3.764788772230674985e-01 7.318321037759787373e-01
3.774405090932225204e-01 8.610653374777363922e-01
3.784021409633775423e-01 9.114623336972833556e-01
3.793637728335326198e-01 8.020255677836836128e-01
3.803254047036876417e-01 6.888550037066423215e-01
3.812870365738426082e-01 8.897041852884228774e-01
3.822486684439976301e-01 7.900961546342166741e-01
3.832103003141527076e-01 7.520803498275121513e-01
3.841719321843077295e-01 7.669821495851820714e-01
3.851335640544627514e-01 8.284755324441341884e-01
3.860951959246177734e-01 8.221917973079442277e-01
3.870568277947727953e-01 7.497783920636145183e-01
3.880184596649278173e-01 8.318650824093474228e-01
3.889800915350828392e-01 7.477704285081721025e-01
3.899417234052378611e-01 7.538797987404173284e-01
3.909033552753928831e-01 8.164962890246876270e-01
3.918649871455479050e-01 6.560057051701093656e-01
3.928266190157029270e-01 5.354026876786193156e-01
3.937882508858579489e-01 6.119608457949290425e-01
3.947498827560129708e-01 6.017059270854545616e-01
3.957115146261680483e-01 5.599736792619900427e-01
3.966731464963230702e-01 6.216907618622009579e-01
3.976347783664780366e-01 6.931867001927649596e-01
3.985964102366330586e-01 7.723142664398459090e-01
3.995580421067881360e-01 7.505234728113379106e-01
4.005196739769430470e-01 6.332023026223794204e-01
4.014813058470981244e-01 6.172396544524545448e-01
4.024429377172531463e-01 6.342725795044543702e-01
4.034045695874082238e-01 5.867109854295655680e-01
