# q (1/Angstrom), Intensity (arb)
2.067508526570814575e-02 7.500153636082579851e+02
2.163671713586316769e-02 7.847059062312440574e+02
2.259834900601819310e-02 8.148719631663940390e+02
2.355998087617321851e-02 8.276949511727862046e+02
2.452161274632824739e-02 8.313800976126128717e+02
2.548324461648326933e-02 8.327270041331177026e+02
2.644487648663829821e-02 8.267680241094292342e+02
2.740650835679332709e-02 8.237194884478597032e+02
2.836814022694834903e-02 8.242936993961160397e+02
2.932977209710337443e-02 8.221139948325763953e+02
3.029140396725839637e-02 8.186981640995459202e+02
3.125303583741342178e-02 8.078940655059017217e+02
3.221466770756845066e-02 7.979832762113499030e+02
3.317629957772347260e-02 7.892032458850729881e+02
3.413793144787850148e-02 7.864361442970176768e+02
3.509956331803352342e-02 7.837120120987929113e+02
3.606119518818855230e-02 7.766705286476926631e+02
3.702282705834358117e-02 7.659599978846359818e+02
3.798445892849860311e-02 7.608204917554288613e+02
3.894609079865363199e-02 7.493074726105819536e+02
3.990772266880865393e-02 7.403186783869448391e+02
4.086935453896367587e-02 7.324934386009387026e+02
4.183098640911870475e-02 7.228932543841568759e+02
4.279261827927372669e-02 7.143442059005129749e+02
4.375425014942875557e-02 7.021998277883662922e+02
4.471588201958377751e-02 6.885986113437578524e+02
4.567751388973880639e-02 6.782071476654108437e+02
4.663914575989382832e-02 6.691133798555948715e+02
4.760077763004885720e-02 6.557122171259749166e+02
4.856240950020387914e-02 6.422812027370732721e+02
4.952404137035890108e-02 6.325041195047626843e+02
5.048567324051392302e-02 6.206630938341434103e+02
5.144730511066895190e-02 6.072450377738020961e+02
5.240893698082397384e-02 5.940030074419734092e+02
5.337056885097899578e-02 5.785002748744319661e+02
5.433220072113403160e-02 5.646100917170397224e+02
5.529383259128905354e-02 5.506416667284295272e+02
5.625546446144407547e-02 5.363850101332724307e+02
5.721709633159910435e-02 5.227536883286300053e+02
5.817872820175412629e-02 5.081024582830236227e+02
5.914036007190914823e-02 4.949314884932635437e+02
6.010199194206417017e-02 4.807445337664848921e+02
6.106362381221920599e-02 4.662887095920416414e+02
6.202525568237422793e-02 4.521945672677488801e+02
6.298688755252924987e-02 4.401005960830277672e+02
6.394851942268428568e-02 4.265075947603767759e+02
6.491015129283930762e-02 4.119936003473684991e+02
6.587178316299432956e-02 3.996467607071728594e+02
6.683341503314935150e-02 3.861175638574541722e+02
6.779504690330438732e-02 3.742571675234386817e+02
6.875667877345940926e-02 3.630076044094998338e+02
6.971831064361443120e-02 3.499184650345837895e+02
7.067994251376945314e-02 3.361695955553252020e+02
7.164157438392447508e-02 3.242271497556552049e+02
7.260320625407949702e-02 3.142468907436136192e+02
7.356483812423453283e-02 3.015882003786213659e+02
7.452646999438955477e-02 2.895162130401207605e+02
7.548810186454457671e-02 2.795094928423247325e+02
7.644973373469959865e-02 2.691952434693679379e+02
7.741136560485463447e-02 2.577669640509384408e+02
7.837299747500965641e-02 2.467390774160475360e+02
7.933462934516467835e-02 2.371852808425219621e+02
8.029626121531971417e-02 2.277069937245809115e+02
8.125789308547473611e-02 2.180303906778215151e+02
8.221952495562975805e-02 2.082479111328170802e+02
8.318115682578479386e-02 1.980248053247554196e+02
8.414278869593981580e-02 1.890110209050199614e+02
8.510442056609483774e-02 1.815629781238855287e+02
8.606605243624985968e-02 1.730325712817395925e+02
8.702768430640489550e-02 1.646495255713262225e+02
8.798931617655991744e-02 1.554963517322833013e+02
8.895094804671493938e-02 1.478303316465986086e+02
8.991257991686996132e-02 1.398846568398164720e+02
9.087421178702498326e-02 1.322903202671405722e+02
9.183584365718000520e-02 1.246872929622632995e+02
9.279747552733502713e-02 1.188342271469059597e+02
9.375910739749006295e-02 1.125348977517069500e+02
9.472073926764508489e-02 1.054611308486644816e+02
9.568237113780010683e-02 9.952280293399653033e+01
9.664400300795514265e-02 9.392582737416726957e+01
9.760563487811016459e-02 8.742992769488421345e+01
9.856726674826518653e-02 8.296671890353728429e+01
9.952889861842022234e-02 7.732551884435268619e+01
1.004905304885752443e-01 7.207405506166900011e+01
1.014521623587302801e-01 6.739022869616046307e+01
1.024137942288853020e-01 6.296514472870114787e+01
1.033754260990403240e-01 5.816874074058921451e+01
1.043370579691953459e-01 5.437020832262747660e+01
1.052986898393503817e-01 5.044026772707716333e+01
1.062603217095053898e-01 4.639431358475834344e+01
1.072219535796604256e-01 4.324476905281648698e+01
1.081835854498154614e-01 4.020650555239343760e+01
1.091452173199704695e-01 3.647341650559511095e+01
1.101068491901255053e-01 3.357505849907845885e+01
1.110684810602805411e-01 3.073311736586073906e+01
1.120301129304355492e-01 2.806894908562961533e+01
1.129917448005905850e-01 2.556394428143478947e+01
1.139533766707456208e-01 2.307948011039885827e+01
1.149150085409006289e-01 2.119729210446396195e+01
1.158766404110556647e-01 1.914376103884702118e+01
1.168382722812106728e-01 1.703632739933168949e+01
1.177999041513657086e-01 1.553802823943477662e+01
1.187615360215207305e-01 1.375639020224389597e+01
1.197231678916757525e-01 1.164317104692337068e+01
1.206847997618307744e-01 1.069419258248947457e+01
1.216464316319858102e-01 9.770061484129374918e+00
1.226080635021408183e-01 8.344313228061313481e+00
1.235696953722958541e-01 7.065670180474860729e+00
1.245313272424508899e-01 6.290379848073477831e+00
1.254929591126059119e-01 5.421202754459038431e+00
1.264545909827609338e-01 4.902063485104395824e+00
1.274162228529159557e-01 4.134983826032911480e+00
1.283778547230709777e-01 3.554275950083393809e+00
1.293394865932259996e-01 3.250235190335715174e+00
1.303011184633810493e-01 2.758176808374219746e+00
1.312627503335360435e-01 2.262232362474343006e+00
1.322243822036910932e-01 1.880885563001935878e+00
1.331860140738460874e-01 1.664393129269654992e+00
1.341476459440011371e-01 1.572211307817504178e+00
1.351092778141561590e-01 1.495601857712149041e+00
1.360709096843111809e-01 1.467547021238434724e+00
1.370325415544662029e-01 1.324867537810938245e+00
1.379941734246212526e-01 1.231971415955879223e+00
1.389558052947762468e-01 1.716323091235487652e+00
1.399174371649312965e-01 1.761717322712936351e+00
1.408790690350863184e-01 1.817923032113021975e+00
1.418407009052413403e-01 2.018328502049030249e+00
1.428023327753963623e-01 2.151284756047807889e+00
1.437639646455513842e-01 2.412405323831499970e+00
1.447255965157064062e-01 2.267468108198748666e+00
1.456872283858614281e-01 2.460815551346577479e+00
1.466488602560164778e-01 2.644295938056927753e+00
1.476104921261714720e-01 2.782167675830759634e+00
1.485721239963265217e-01 3.013106172605478861e+00
1.495337558664815436e-01 3.237029686476418533e+00
1.504953877366365655e-01 3.820642301423703202e+00
1.514570196067915875e-01 4.149916480010062969e+00
1.524186514769466094e-01 3.914449962250110104e+00
1.533802833471016314e-01 4.345952626989799228e+00
1.543419152172566811e-01 4.653729226691073251e+00
1.553035470874116752e-01 5.353751722059804763e+00
1.562651789575667249e-01 5.611435495754090397e+00
1.572268108277217469e-01 5.650550721111294195e+00
1.581884426978767688e-01 5.658992387830430459e+00
1.591500745680317908e-01 5.803276008626216509e+00
1.601117064381868405e-01 6.276629033285441750e+00
1.610733383083418346e-01 6.428921200024760196e+00
1.620349701784968843e-01 6.706636648228087694e+00
1.629966020486519063e-01 7.049403685470071679e+00
1.639582339188069282e-01 6.938225540429506566e+00
1.649198657889619501e-01 6.613943906179528653e+00
1.658814976591169721e-01 6.580676930798475155e+00
1.668431295292719940e-01 6.959435697284074962e+00
1.678047613994270160e-01 7.371162144055581678e+00
1.687663932695820379e-01 7.240036180027590973e+00
1.697280251397370598e-01 7.153363357121151012e+00
1.706896570098921095e-01 7.255507071448828782e+00
1.716512888800471037e-01 7.320764932658651247e+00
1.726129207502021534e-01 7.509631956697134569e+00
1.735745526203571754e-01 7.261413986543370669e+00
1.745361844905121973e-01 7.137865978773898945e+00
1.754978163606672192e-01 7.499482178909968155e+00
1.764594482308222689e-01 7.496685875068155980e+00
1.774210801009772631e-01 7.352426908688215690e+00
1.783827119711323128e-01 7.092238065654857593e+00
1.793443438412873348e-01 7.107616279578753193e+00
1.803059757114423567e-01 7.165470024362598167e+00
1.812676075815973786e-01 7.065287162423764755e+00
1.822292394517524006e-01 6.878631370854396465e+00
1.831908713219074225e-01 6.764251207604996097e+00
1.841525031920624444e-01 6.283664896326392579e+00
1.851141350622174664e-01 6.161887837386828437e+00
1.860757669323724883e-01 6.255534439777779454e+00
1.870373988025275380e-01 6.216729224921824226e+00
1.879990306726825322e-01 5.913100014719756103e+00
1.889606625428375819e-01 5.856417467607286653e+00
1.899222944129926038e-01 5.680208436091426449e+00
1.908839262831476258e-01 5.344028707547764157e+00
1.918455581533026477e-01 5.084512182417263659e+00
1.928071900234576974e-01 5.005767090007608999e+00
1.937688218936126916e-01 4.915274929870811604e+00
1.947304537637677413e-01 4.810151841364266545e+00
1.956920856339227632e-01 4.662985499943914647e+00
1.966537175040777852e-01 4.384095252971217604e+00
1.976153493742328071e-01 4.077891649546597108e+00
1.985769812443878291e-01 3.990077555065063564e+00
1.995386131145428510e-01 3.718568036068660376e+00
2.005002449846978729e-01 3.495193348770651909e+00
2.014618768548528949e-01 3.319632728842314862e+00
2.024235087250079168e-01 3.284038697807247331e+00
2.033851405951629665e-01 2.969333205953713417e+00
2.043467724653179884e-01 2.916364210414734259e+00
2.053084043354730381e-01 2.879920091444880370e+00
2.062700362056280046e-01 2.364808563035602162e+00
2.072316680757830543e-01 2.159032662021239446e+00
2.081932999459380762e-01 2.530772903936370000e+00
2.091549318160931259e-01 2.271537562092923679e+00
2.101165636862481478e-01 1.810166456975007776e+00
2.110781955564031698e-01 1.727950354031186464e+00
2.120398274265581640e-01 1.759948733052773662e+00
2.130014592967132137e-01 1.692644766967443815e+00
2.139630911668682356e-01 1.422499978497622664e+00
2.149247230370232575e-01 1.152623999712577785e+00
2.158863549071783072e-01 9.092481308201278978e-01
2.168479867773333014e-01 8.299611631095551445e-01
2.178096186474883234e-01 9.736351959511928555e-01
2.187712505176433453e-01 8.450009297875809011e-01
2.197328823877983950e-01 7.714138091186839574e-01
2.206945142579534169e-01 9.406111515818054158e-01
2.216561461281084666e-01 8.114356602588834733e-01
2.226177779982634330e-01 5.180563614003119710e-01
2.235794098684184827e-01 3.644377911885428034e-01
2.245410417385735047e-01 3.048172028834130742e-01
2.255026736087285544e-01 4.678956386349604202e-01
2.264643054788835763e-01 4.440745394701366422e-01
2.274259373490385983e-01 4.643870058674828272e-01
2.283875692191935924e-01 6.195209397930518946e-01
2.293492010893486421e-01 6.139766772579875465e-01
2.303108329595036641e-01 6.452967542462424433e-01
2.312724648296586860e-01 5.213899471205998282e-01
2.322340966998137357e-01 3.876984081429242224e-01
2.331957285699687299e-01 3.119836056052882611e-01
2.341573604401237518e-01 3.103601866528791220e-01
2.351189923102787738e-01 6.999351042098922449e-02
2.360806241804338235e-01 7.724652047526703313e-02
2.370422560505888454e-01 3.375930544198872951e-01
2.380038879207438951e-01 4.963788787741449937e-01
2.389655197908988615e-01 3.375739232383772048e-01
2.399271516610539112e-01 3.215370641721264633e-01
2.408887835312089332e-01 3.279201919467773507e-01
2.418504154013639829e-01 2.548505475502516049e-01
2.428120472715190048e-01 5.722880659834252981e-01
2.437736791416740267e-01 6.199354066356299597e-01
2.447353110118290209e-01 3.085997950208181351e-01
2.456969428819840706e-01 2.719420335704967329e-01
2.466585747521390926e-01 6.160881346031317207e-01
2.476202066222941145e-01 6.184807590538596855e-01
2.485818384924491642e-01 7.577501005735456374e-01
2.495434703626041584e-01 7.327007941581413775e-01
2.505051022327591803e-01 7.161280368276230490e-01
2.514667341029142023e-01 7.818613483453340507e-01
2.524283659730692242e-01 5.976408511869095719e-01
2.533899978432243016e-01 5.966342608469723530e-01
2.543516297133793236e-01 8.151204084233398817e-01
2.553132615835342900e-01 8.855997769280570253e-01
2.562748934536893120e-01 8.086956905661502049e-01
2.572365253238443894e-01 8.581683584751615967e-01
2.581981571939994113e-01 1.056251072204364760e+00
2.591597890641544333e-01 1.234270749395335542e+00
2.601214209343094552e-01 1.248215577498235973e+00
2.610830528044644772e-01 9.984367638304512127e-01
2.620446846746194991e-01 8.744335009676262871e-01
2.630063165447745210e-01 9.619018287453329208e-01
2.639679484149295430e-01 1.341961705013424933e+00
2.649295802850845649e-01 1.306849792162950052e+00
2.658912121552395869e-01 9.940043258323889575e-01
2.668528440253946088e-01 1.072700916751898603e+00
2.678144758955496307e-01 1.010125996281740157e+00
2.687761077657046527e-01 1.166180065940395139e+00
2.697377396358597301e-01 1.091735447429005745e+00
2.706993715060147521e-01 1.121823968342717137e+00
2.716610033761697185e-01 1.280368905748886732e+00
2.726226352463247404e-01 1.097410626084542429e+00
2.735842671164798179e-01 9.809962863423287160e-01
2.745458989866348398e-01 9.091817946872744471e-01
2.755075308567898618e-01 1.032942302221243835e+00
2.764691627269448837e-01 1.182172006740000114e+00
2.774307945970999056e-01 1.179431529983837379e+00
2.783924264672549276e-01 1.209347893283709396e+00
2.793540583374099495e-01 1.149708711789347859e+00
2.803156902075649715e-01 9.338221179286776419e-01
2.812773220777199934e-01 9.171524000552189193e-01
2.822389539478750153e-01 9.638650147333898133e-01
2.832005858180300373e-01 9.182179923171425173e-01
2.841622176881850592e-01 1.139463498752313342e+00
2.851238495583400812e-01 1.020047346920740949e+00
2.860854814284951586e-01 1.005729134640926503e+00
2.870471132986501805e-01 9.102285404372985056e-01
2.880087451688051470e-01 1.088547232017742061e+00
2.889703770389601689e-01 1.115296046765060112e+00
2.899320089091152464e-01 9.471921118977846277e-01
2.908936407792702683e-01 7.514895864176551754e-01
2.918552726494252902e-01 7.339147956330975830e-01
2.928169045195803122e-01 7.511576135022650647e-01
2.937785363897353341e-01 7.725627936206436175e-01
2.947401682598903561e-01 7.667927361522082208e-01
2.957018001300453780e-01 7.414240419638673529e-01
2.966634320002003999e-01 6.862348148381975932e-01
2.976250638703554219e-01 8.080672881616379755e-01
2.985866957405104993e-01 6.519641086293965770e-01
2.995483276106654658e-01 4.507425729564076278e-01
3.005099594808204877e-01 5.906831631458580034e-01
3.014715913509755651e-01 7.817079522978929162e-01
3.024332232211305871e-01 6.064623575472687378e-01
3.033948550912856090e-01 6.821588245135465911e-01
3.043564869614405755e-01 6.868751608367524852e-01
3.053181188315956529e-01 4.538365821862804239e-01
3.062797507017506748e-01 3.397776642911338740e-01
3.072413825719056968e-01 4.531728574562237100e-01
3.082030144420607187e-01 5.503775770749754770e-01
3.091646463122157407e-01 5.293778312561663313e-01
3.101262781823707626e-01 3.713722465805489037e-01
3.110879100525257845e-01 2.402466775728768766e-01
3.120495419226808065e-01 3.302750071708544510e-01
3.130111737928358284e-01 3.215204823787303212e-01
3.139728056629909059e-01 2.592910476185394941e-01
3.149344375331459278e-01 1.784367324797351273e-01
3.158960694033008942e-01 2.781393078663789709e-01
3.168577012734559162e-01 1.011207328828369612e-01
3.178193331436109936e-01 3.051629473085384348e-01
3.187809650137660156e-01 4.734950626819696140e-01
3.197425968839210375e-01 3.956123480840005868e-01
3.207042287540760039e-01 2.725749815365254847e-01
3.216658606242310814e-01 2.047687259114141511e-01
3.226274924943861033e-01 2.600721879982437201e-01
3.235891243645411253e-01 1.923739183726631552e-01
3.245507562346961472e-01 2.594755384160656320e-01
3.255123881048511691e-01 3.408286872346053542e-01
3.264740199750061911e-01 3.204451058704975708e-01
3.274356518451612130e-01 1.495677820571472694e-01
3.283972837153162350e-01 1.427632242351570824e-01
3.293589155854712569e-01 2.080727023727817482e-01
3.303205474556263344e-01 1.587900828530202091e-01
3.312821793257813563e-01 9.840260894511843048e-02
3.322438111959363227e-01 0.000000000000000000e+00
3.332054430660913447e-01 7.601498669758299798e-02
3.341670749362464221e-01 4.111672893529352280e-01
3.351287068064014441e-01 2.605033952550250831e-01
3.360903386765564660e-01 1.421073178680138938e-01
3.370519705467114324e-01 2.851972114856451412e-01
3.380136024168665099e-01 2.060752348683259072e-01
3.389752342870215318e-01 4.333969451127828165e-01
3.399368661571765537e-01 6.022906225389377255e-01
3.408984980273315757e-01 3.624390198932090357e-01
3.418601298974865976e-01 3.718477334139009827e-01
3.428217617676416196e-01 3.760770595040199282e-01
3.437833936377966415e-01 3.902224396745879176e-01
3.447450255079516634e-01 3.177796897418332378e-01
3.457066573781066854e-01 4.710678226445992323e-01
3.466682892482617628e-01 6.186480375756495675e-01
3.476299211184167848e-01 2.648067680492900422e-01
3.485915529885717512e-01 2.035520643358808002e-01
3.495531848587267731e-01 4.649447038681806532e-01
3.505148167288818506e-01 3.838171813149067191e-01
3.514764485990368725e-01 3.631706471115521140e-01
3.524380804691918945e-01 4.115961869052569000e-01
3.533997123393468609e-01 3.236666450727803124e-01
3.543613442095019384e-01 3.773985402546671253e-01
3.553229760796569603e-01 4.113939918228908255e-01
3.562846079498119822e-01 4.500465869357377358e-01
3.572462398199670042e-01 4.510768280162125166e-01
3.582078716901220261e-01 2.874460848799884616e-01
3.591695035602770480e-01 1.741169574630809791e-01
3.601311354304320700e-01 4.334127470643274194e-01
3.610927673005870919e-01 4.348210808192618515e-01
3.620543991707421139e-01 4.050615971223905376e-01
3.630160310408971913e-01 5.090699198835899608e-01
3.639776629110522133e-01 5.492486118408876905e-01
3.649392947812071797e-01 4.856134018945006403e-01
3.659009266513622016e-01 4.910459002853251320e-01
3.668625585215172791e-01 3.732816102717180229e-01
3.678241903916723010e-01 3.318973718327384859e-01
3.687858222618273230e-01 3.888205241904003628e-01
3.697474541319822894e-01 3.242540988557323089e-01
3.707090860021373668e-01 1.400720416750758091e-01
3.716707178722923888e-01 3.625230903182696807e-01
3.726323497424474107e-01 3.860925799239431910e-01
3.735939816126024327e-01 4.970628938574783717e-01
3.745556134827574546e-01 3.755832247755535036e-01
3.755172453529124765e-01 2.624200150553939181e-01
3.764788772230674985e-01 3.721988362719024224e-01
3.774405090932225204e-01 4.153581722812056398e-01
3.784021409633775423e-01 5.101267774514717246e-01
3.793637728335326198e-01 3.331197913872756544e-01
3.803254047036876417e-01 3.427277211752581820e-01
3.812870365738426082e-01 4.179843686096411659e-01
3.822486684439976301e-01 5.406076458082615943e-01
3.832103003141527076e-01 5.234699211718698564e-01
3.841719321843077295e-01 4.799393680577459520e-01
3.851335640544627514e-01 3.004788446235373556e-01
3.860951959246177734e-01 2.583040300935302014e-01
3.870568277947727953e-01 3.074497489901162339e-01
3.880184596649278173e-01 2.996591586917816130e-01
3.889800915350828392e-01 2.345396170197524555e-01
3.899417234052378611e-01 3.545178979015481957e-01
3.909033552753928831e-01 3.439347579460871884e-01
3.918649871455479050e-01 3.589411027707392066e-01
3.928266190157029270e-01 3.869803304099512786e-01
3.937882508858579489e-01 3.328719082166244903e-01
3.947498827560129708e-01 2.917342427732556587e-01
3.957115146261680483e-01 2.654743814511704159e-01
3.966731464963230702e-01 3.187587730135703623e-01
3.976347783664780366e-01 3.066315760088969000e-01
3.985964102366330586e-01 3.530712284555725944e-01
3.995580421067881360e-01 2.944523615081386936e-01
4.005196739769430470e-01 3.859009210190293970e-01
4.014813058470981244e-01 1.372240441350562890e-01
4.024429377172531463e-01 1.576433587660339697e-01
4.034045695874082238e-01 2.815869154972006072e-01
