# q (1/Angstrom), Intensity (arb)
2.067508526570814575e-02 7.587309090775306686e+02
2.163671713586316769e-02 7.965671575319878457e+02
2.259834900601819310e-02 8.275007332860216138e+02
2.355998087617321851e-02 8.337191345550255619e+02
2.452161274632824739e-02 8.344449529495163915e+02
2.548324461648326933e-02 8.404809837794568921e+02
2.644487648663829821e-02 8.397363301433879315e+02
2.740650835679332709e-02 8.386260969198991688e+02
2.836814022694834903e-02 8.380247076353781495e+02
2.932977209710337443e-02 8.306701306472425586e+02
3.029140396725839637e-02 8.243586883916315173e+02
3.125303583741342178e-02 8.200020517555392416e+02
3.221466770756845066e-02 8.162812496552921857e+02
3.317629957772347260e-02 8.045145394930356133e+02
3.413793144787850148e-02 7.972896111944268114e+02
3.509956331803352342e-02 7.936839842523456809e+02
3.606119518818855230e-02 7.887369977786405570e+02
3.702282705834358117e-02 7.812973818799656556e+02
3.798445892849860311e-02 7.717539789699355879e+02
3.894609079865363199e-02 7.636945680204751170e+02
3.990772266880865393e-02 7.541234168208270603e+02
4.086935453896367587e-02 7.428717109384352852e+02
4.183098640911870475e-02 7.319334687107536865e+02
4.279261827927372669e-02 7.239383802725138821e+02
4.375425014942875557e-02 7.125246239908401549e+02
4.471588201958377751e-02 7.014350796358970683e+02
4.567751388973880639e-02 6.896710854969386446e+02
4.663914575989382832e-02 6.774543172786850391e+02
4.760077763004885720e-02 6.637208523245411698e+02
4.856240950020387914e-02 6.516590218320268377e+02
4.952404137035890108e-02 6.386198768778200474e+02
5.048567324051392302e-02 6.287909726197343616e+02
5.144730511066895190e-02 6.154628224563073218e+02
5.240893698082397384e-02 6.035154931090088439e+02
5.337056885097899578e-02 5.898143404942900361e+02
5.433220072113403160e-02 5.740567653980937166e+02
5.529383259128905354e-02 5.578048735966759750e+02
5.625546446144407547e-02 5.451345888340229067e+02
5.721709633159910435e-02 5.315649770039113946e+02
5.817872820175412629e-02 5.177833728030906286e+02
5.914036007190914823e-02 5.018084646155742803e+02
6.010199194206417017e-02 4.874429509357064489e+02
6.106362381221920599e-02 4.745284169808768411e+02
6.202525568237422793e-02 4.617727881659002946e+02
6.298688755252924987e-02 4.488519951258097649e+02
6.394851942268428568e-02 4.358248062154536342e+02
6.491015129283930762e-02 4.211921376065673144e+02
6.587178316299432956e-02 4.084816956019895997e+02
6.683341503314935150e-02 3.958369729277637816e+02
6.779504690330438732e-02 3.814298233422576914e+02
6.875667877345940926e-02 3.688794056725745918e+02
6.971831064361443120e-02 3.571862670918141021e+02
7.067994251376945314e-02 3.435612014068101985e+02
7.164157438392447508e-02 3.316959967251873991e+02
7.260320625407949702e-02 3.203764441848160232e+02
7.356483812423453283e-02 3.066112251107387010e+02
7.452646999438955477e-02 2.939313993876280051e+02
7.548810186454457671e-02 2.825790839619478447e+02
7.644973373469959865e-02 2.732224417367469869e+02
7.741136560485463447e-02 2.625677784282648872e+02
7.837299747500965641e-02 2.525584395362412806e+02
7.933462934516467835e-02 2.419510138086994573e+02
8.029626121531971417e-02 2.317532649783817646e+02
8.125789308547473611e-02 2.217340431384071735e+02
8.221952495562975805e-02 2.119360927355098170e+02
8.318115682578479386e-02 2.029419470487597152e+02
8.414278869593981580e-02 1.933814991531998544e+02
8.510442056609483774e-02 1.836158958897182742e+02
8.606605243624985968e-02 1.742764759175336167e+02
8.702768430640489550e-02 1.662516130752841832e+02
8.798931617655991744e-02 1.590888613281982202e+02
8.895094804671493938e-02 1.513210188726200727e+02
8.991257991686996132e-02 1.431206624944368571e+02
9.087421178702498326e-02 1.358758129386970950e+02
9.183584365718000520e-02 1.286850724464472364e+02
9.279747552733502713e-02 1.216350442504631246e+02
9.375910739749006295e-02 1.147805589277242717e+02
9.472073926764508489e-02 1.091785081509191713e+02
9.568237113780010683e-02 1.020424899491485178e+02
9.664400300795514265e-02 9.530677260044481613e+01
9.760563487811016459e-02 8.923167712548325881e+01
9.856726674826518653e-02 8.405524514484346810e+01
9.952889861842022234e-02 7.879823444341141681e+01
1.004905304885752443e-01 7.354211204088770160e+01
1.014521623587302801e-01 6.873612226751311027e+01
1.024137942288853020e-01 6.425761320995837877e+01
1.033754260990403240e-01 6.014729416551423213e+01
1.043370579691953459e-01 5.579197040247837691e+01
1.052986898393503817e-01 5.125602742794573174e+01
1.062603217095053898e-01 4.754950100941812252e+01
1.072219535796604256e-01 4.338013715803068493e+01
1.081835854498154614e-01 3.979590869136986697e+01
1.091452173199704695e-01 3.718663169959059900e+01
1.101068491901255053e-01 3.454441677289239010e+01
1.110684810602805411e-01 3.148721015505605791e+01
1.120301129304355492e-01 2.902560099558122886e+01
1.129917448005905850e-01 2.631033859746996129e+01
1.139533766707456208e-01 2.370421330966225071e+01
1.149150085409006289e-01 2.117511345120566801e+01
1.158766404110556647e-01 1.944768612345455594e+01
1.168382722812106728e-01 1.751384823826077763e+01
1.177999041513657086e-01 1.553617185158894998e+01
1.187615360215207305e-01 1.388830226120868261e+01
1.197231678916757525e-01 1.243961632779271653e+01
1.206847997618307744e-01 1.102685613978906431e+01
1.216464316319858102e-01 9.810628606457811429e+00
1.226080635021408183e-01 8.620352214908400867e+00
1.235696953722958541e-01 7.631237638102366105e+00
1.245313272424508899e-01 6.658127606180595848e+00
1.254929591126059119e-01 5.925168469886880729e+00
1.264545909827609338e-01 5.212150561632064694e+00
1.274162228529159557e-01 4.598441115015855729e+00
1.283778547230709777e-01 3.588553454391906428e+00
1.293394865932259996e-01 3.105827761155790512e+00
1.303011184633810493e-01 2.625985302819287881e+00
1.312627503335360435e-01 2.389805178370291827e+00
1.322243822036910932e-01 1.992771724142436085e+00
1.331860140738460874e-01 1.612046011678227586e+00
1.341476459440011371e-01 1.556955203447643044e+00
1.351092778141561590e-01 1.522245580132739917e+00
1.360709096843111809e-01 1.394803088184133344e+00
1.370325415544662029e-01 1.358610722622710654e+00
1.379941734246212526e-01 1.580698126861658892e+00
1.389558052947762468e-01 1.579965681489948537e+00
1.399174371649312965e-01 1.508568286594492491e+00
1.408790690350863184e-01 1.596062042948027226e+00
1.418407009052413403e-01 1.640883826738591011e+00
1.428023327753963623e-01 1.854040388561511321e+00
1.437639646455513842e-01 2.255020024585430605e+00
1.447255965157064062e-01 2.684865559248251543e+00
1.456872283858614281e-01 2.678379354924249611e+00
1.466488602560164778e-01 2.789960979387345219e+00
1.476104921261714720e-01 3.134548270620012289e+00
1.485721239963265217e-01 3.379573985111598233e+00
1.495337558664815436e-01 3.479837170166032223e+00
1.504953877366365655e-01 3.557750644627802217e+00
1.514570196067915875e-01 4.050312138580796528e+00
1.524186514769466094e-01 4.491221735181316177e+00
1.533802833471016314e-01 5.064456091806341931e+00
1.543419152172566811e-01 5.405396171669707428e+00
1.553035470874116752e-01 5.452485820424808338e+00
1.562651789575667249e-01 5.462548885830695866e+00
1.572268108277217469e-01 5.835350565621354235e+00
1.581884426978767688e-01 5.899848772549173503e+00
1.591500745680317908e-01 6.125103496682932303e+00
1.601117064381868405e-01 6.018461861067599727e+00
1.610733383083418346e-01 6.342277612364348727e+00
1.620349701784968843e-01 6.691424108585106723e+00
1.629966020486519063e-01 6.765689922077640972e+00
1.639582339188069282e-01 6.867852385972973650e+00
1.649198657889619501e-01 7.187532756771204845e+00
1.658814976591169721e-01 7.352170786385876511e+00
1.668431295292719940e-01 7.326308218309623754e+00
1.678047613994270160e-01 7.532536566947257484e+00
1.687663932695820379e-01 7.533349231352101327e+00
1.697280251397370598e-01 7.604660144886771889e+00
1.706896570098921095e-01 7.728785174146057813e+00
1.716512888800471037e-01 7.572168260337392098e+00
1.726129207502021534e-01 7.414591589088821877e+00
1.735745526203571754e-01 7.416857769744396478e+00
1.745361844905121973e-01 7.530738338052593406e+00
1.754978163606672192e-01 7.403733212436421240e+00
1.764594482308222689e-01 7.416598597970335049e+00
1.774210801009772631e-01 7.468465101521069016e+00
1.783827119711323128e-01 7.446052336673748329e+00
1.793443438412873348e-01 7.618706015725432934e+00
1.803059757114423567e-01 7.324334134500208648e+00
1.812676075815973786e-01 7.139349866473811090e+00
1.822292394517524006e-01 6.806795965572050022e+00
1.831908713219074225e-01 6.742492412273097813e+00
1.841525031920624444e-01 6.852136748276794975e+00
1.851141350622174664e-01 6.785522646111409983e+00
1.860757669323724883e-01 6.400010050003441364e+00
1.870373988025275380e-01 6.284040302646371146e+00
1.879990306726825322e-01 6.085568541699561962e+00
1.889606625428375819e-01 5.990235744683577224e+00
1.899222944129926038e-01 5.964933133504192853e+00
1.908839262831476258e-01 6.823534567172725218e+00
1.918455581533026477e-01 6.148133187952876000e+00
1.928071900234576974e-01 5.278034692089768498e+00
1.937688218936126916e-01 4.899496534769632206e+00
1.947304537637677413e-01 4.947054637298119673e+00
1.956920856339227632e-01 5.035645109825988897e+00
1.966537175040777852e-01 4.712085230851453588e+00
1.976153493742328071e-01 4.367673888398226012e+00
1.985769812443878291e-01 4.282652188143686089e+00
1.995386131145428510e-01 4.112604490588225303e+00
2.005002449846978729e-01 3.653622833562575778e+00
2.014618768548528949e-01 3.314549126295933235e+00
2.024235087250079168e-01 3.326006255144619672e+00
2.033851405951629665e-01 3.495548665349009099e+00
2.043467724653179884e-01 3.060836592737022244e+00
2.053084043354730381e-01 2.961932254658680819e+00
2.062700362056280046e-01 2.699692113348728384e+00
2.072316680757830543e-01 2.289172590068417890e+00
2.081932999459380762e-01 2.346600210713898349e+00
2.091549318160931259e-01 2.182633716649888811e+00
2.101165636862481478e-01 1.958545563971409109e+00
2.110781955564031698e-01 2.125680549950857312e+00
2.120398274265581640e-01 1.903050058950693568e+00
2.130014592967132137e-01 1.564715356481844566e+00
2.139630911668682356e-01 1.222069400662821437e+00
2.149247230370232575e-01 1.328709394923897946e+00
2.158863549071783072e-01 1.315005064054957984e+00
2.168479867773333014e-01 1.155967825813888794e+00
2.178096186474883234e-01 9.974707209883035830e-01
2.187712505176433453e-01 9.783139986769171514e-01
2.197328823877983950e-01 1.024277900708671751e+00
2.206945142579534169e-01 8.701193362230625894e-01
2.216561461281084666e-01 7.257656283705813394e-01
2.226177779982634330e-01 9.616676645184583094e-01
2.235794098684184827e-01 8.083085921662487294e-01
2.245410417385735047e-01 5.680024343385383645e-01
2.255026736087285544e-01 6.627615565000901654e-01
2.264643054788835763e-01 5.768797781394532365e-01
2.274259373490385983e-01 3.845447195076765468e-01
2.283875692191935924e-01 3.428634175114275706e-01
2.293492010893486421e-01 4.344274757800121733e-01
2.303108329595036641e-01 4.391076034541399054e-01
2.312724648296586860e-01 3.241859708027234888e-01
2.322340966998137357e-01 4.580445251503242332e-01
2.331957285699687299e-01 4.509002723604353946e-01
2.341573604401237518e-01 3.939198944458297547e-01
2.351189923102787738e-01 3.623882650529353100e-01
2.360806241804338235e-01 4.300170947315038461e-01
2.370422560505888454e-01 5.580743742077309832e-01
2.380038879207438951e-01 4.730832665949300520e-01
2.389655197908988615e-01 3.259857423256811160e-01
2.399271516610539112e-01 4.284158394005856962e-01
2.408887835312089332e-01 3.892562800673964318e-01
2.418504154013639829e-01 3.396568122283696312e-01
2.428120472715190048e-01 5.069467915781622480e-01
2.437736791416740267e-01 4.571944960840426120e-01
2.447353110118290209e-01 5.208013295482949445e-01
2.456969428819840706e-01 5.204606460022489500e-01
2.466585747521390926e-01 5.711997822574197414e-01
2.476202066222941145e-01 6.430385203741302291e-01
2.485818384924491642e-01 7.497747343750305049e-01
2.495434703626041584e-01 6.450824428747203854e-01
2.505051022327591803e-01 2.785244902313195325e-01
2.514667341029142023e-01 5.901178734146128591e-01
2.524283659730692242e-01 8.215514281614595404e-01
2.533899978432243016e-01 8.494089221418619218e-01
2.543516297133793236e-01 9.505931491293111435e-01
2.553132615835342900e-01 6.909875631716744238e-01
2.562748934536893120e-01 7.834790767895079000e-01
2.572365253238443894e-01 9.835548503618625205e-01
2.581981571939994113e-01 7.549686508079176406e-01
2.591597890641544333e-01 6.331055084711572079e-01
2.601214209343094552e-01 6.955942029974302443e-01
2.610830528044644772e-01 9.377636002521043679e-01
2.620446846746194991e-01 1.038104807164117460e+00
2.630063165447745210e-01 9.592752279780683011e-01
2.639679484149295430e-01 1.162289536654963484e+00
2.649295802850845649e-01 1.362397751047993211e+00
2.658912121552395869e-01 1.231042718477652897e+00
2.668528440253946088e-01 1.145821644793151961e+00
2.678144758955496307e-01 1.157781266622581740e+00
2.687761077657046527e-01 1.147786196623496124e+00
2.697377396358597301e-01 1.232335750099839089e+00
2.706993715060147521e-01 1.341457228229984366e+00
2.716610033761697185e-01 1.284040520570250976e+00
2.726226352463247404e-01 1.042645038341113661e+00
2.735842671164798179e-01 1.109096657476491998e+00
2.745458989866348398e-01 1.247332769829601062e+00
2.755075308567898618e-01 1.209718912890483722e+00
2.764691627269448837e-01 1.068499430644621384e+00
2.774307945970999056e-01 1.270401288805874884e+00
2.783924264672549276e-01 1.265218314156189905e+00
2.793540583374099495e-01 1.098694512666209988e+00
2.803156902075649715e-01 9.204030941091438933e-01
2.812773220777199934e-01 9.369532128856903341e-01
2.822389539478750153e-01 1.054709401772573329e+00
2.832005858180300373e-01 1.127189079008346084e+00
2.841622176881850592e-01 1.104573675516213882e+00
2.851238495583400812e-01 9.348622436173670280e-01
2.860854814284951586e-01 9.838264032850219110e-01
2.870471132986501805e-01 9.483272480887094957e-01
2.880087451688051470e-01 7.647945657702521771e-01
2.889703770389601689e-01 8.569236616135817997e-01
2.899320089091152464e-01 9.649190316152633784e-01
2.908936407792702683e-01 8.518011232322031390e-01
2.918552726494252902e-01 9.247161948943478649e-01
2.928169045195803122e-01 8.615270904894174464e-01
2.937785363897353341e-01 8.137524358524217405e-01
2.947401682598903561e-01 6.136419387806100190e-01
2.957018001300453780e-01 6.632207856085621245e-01
2.966634320002003999e-01 6.617060764632398673e-01
2.976250638703554219e-01 6.552775706227151886e-01
2.985866957405104993e-01 6.276986597093632270e-01
2.995483276106654658e-01 7.404709770242376976e-01
3.005099594808204877e-01 8.375414547345236826e-01
3.014715913509755651e-01 7.762869013400077733e-01
3.024332232211305871e-01 5.802706783620621422e-01
3.033948550912856090e-01 6.894648046954010567e-01
3.043564869614405755e-01 6.863611858960894097e-01
3.053181188315956529e-01 6.695701152366311248e-01
3.062797507017506748e-01 3.876579613721773399e-01
3.072413825719056968e-01 4.313065503891948538e-01
3.082030144420607187e-01 5.725018482790069640e-01
3.091646463122157407e-01 4.277283873575861151e-01
3.101262781823707626e-01 3.251515834734952648e-01
3.110879100525257845e-01 2.860574805261677511e-01
3.120495419226808065e-01 2.936595487288009565e-01
3.130111737928358284e-01 3.218517323091241167e-01
3.139728056629909059e-01 3.175641270386790893e-01
3.149344375331459278e-01 3.301833136140004399e-01
3.158960694033008942e-01 3.575702797035731351e-01
3.168577012734559162e-01 2.480086426027767743e-01
3.178193331436109936e-01 1.526951839174124359e-01
3.187809650137660156e-01 2.162226371813495973e-01
3.197425968839210375e-01 2.954756112081931008e-01
3.207042287540760039e-01 2.352808740080618577e-01
3.216658606242310814e-01 4.819696665950345960e-02
3.226274924943861033e-01 2.052033628830116641e-01
3.235891243645411253e-01 2.526535685540309828e-01
3.245507562346961472e-01 1.113513156364689394e-01
3.255123881048511691e-01 2.207236769735807513e-01
3.264740199750061911e-01 3.599805827185598162e-01
3.274356518451612130e-01 2.614057520346406704e-01
3.283972837153162350e-01 1.793363487665935452e-01
3.293589155854712569e-01 0.000000000000000000e+00
3.303205474556263344e-01 7.086930415528414073e-02
3.312821793257813563e-01 2.901440894220428390e-01
3.322438111959363227e-01 2.325986271381985659e-01
3.332054430660913447e-01 1.561775386952923839e-01
3.341670749362464221e-01 2.817256294192134192e-01
3.351287068064014441e-01 2.717682137012396026e-01
3.360903386765564660e-01 3.378198111811805404e-01
3.370519705467114324e-01 3.087108760792283135e-01
3.380136024168665099e-01 1.730416343675784674e-01
3.389752342870215318e-01 2.715702201297531815e-01
3.399368661571765537e-01 2.078989516798763759e-01
3.408984980273315757e-01 2.598311435209730291e-01
3.418601298974865976e-01 2.141109923760815548e-01
3.428217617676416196e-01 2.758881514008457714e-01
3.437833936377966415e-01 4.491466531111925065e-01
3.447450255079516634e-01 4.529648636324985489e-01
3.457066573781066854e-01 3.670234940383494404e-01
3.466682892482617628e-01 3.423621776947456397e-01
3.476299211184167848e-01 1.903869275027929575e-01
3.485915529885717512e-01 2.583376042205429712e-01
3.495531848587267731e-01 5.093555617502190103e-01
3.505148167288818506e-01 6.393655850940689334e-01
3.514764485990368725e-01 4.892901697031106778e-01
3.524380804691918945e-01 3.676922164962626027e-01
3.533997123393468609e-01 4.126929622968766864e-01
3.543613442095019384e-01 3.641807219992401201e-01
3.553229760796569603e-01 3.355949655399435017e-01
3.562846079498119822e-01 3.427486718884651395e-01
3.572462398199670042e-01 4.247348277926867866e-01
3.582078716901220261e-01 4.914730075470643555e-01
3.591695035602770480e-01 5.554736579007233388e-01
3.601311354304320700e-01 3.975935752435546533e-01
3.610927673005870919e-01 3.130050524607561613e-01
3.620543991707421139e-01 3.602971509978551978e-01
3.630160310408971913e-01 4.432007274723837043e-01
3.639776629110522133e-01 4.242735590026960324e-01
3.649392947812071797e-01 3.934755499342621476e-01
3.659009266513622016e-01 5.043944445698436141e-01
3.668625585215172791e-01 5.890827352068903622e-01
3.678241903916723010e-01 5.489033162008283284e-01
3.687858222618273230e-01 4.162142961120913753e-01
3.697474541319822894e-01 4.357238548735082873e-01
3.707090860021373668e-01 4.897174268665480668e-01
3.716707178722923888e-01 4.976910070613804749e-01
3.726323497424474107e-01 3.426263842617451871e-01
3.735939816126024327e-01 3.444635222198577651e-01
3.745556134827574546e-01 3.861257403438571600e-01
3.755172453529124765e-01 3.494336774941864121e-01
3.764788772230674985e-01 4.125279571613376106e-01
3.774405090932225204e-01 5.134378909065375751e-01
3.784021409633775423e-01 3.942868614710803854e-01
3.793637728335326198e-01 4.315125521004432585e-01
3.803254047036876417e-01 4.620852703854225751e-01
3.812870365738426082e-01 3.663518071317213298e-01
3.822486684439976301e-01 3.194927559753928392e-01
3.832103003141527076e-01 3.403550723624704233e-01
3.841719321843077295e-01 4.240040736656069953e-01
3.851335640544627514e-01 6.263122702386354490e-01
3.860951959246177734e-01 5.727848470223051436e-01
3.870568277947727953e-01 3.737112035027791990e-01
3.880184596649278173e-01 4.913829694577707130e-01
3.889800915350828392e-01 2.715821904579982515e-01
3.899417234052378611e-01 2.359410867966929004e-01
3.909033552753928831e-01 3.603610451919259106e-01
3.918649871455479050e-01 2.203222995531675110e-01
3.928266190157029270e-01 3.312462347589502087e-01
3.937882508858579489e-01 4.132454338382949288e-01
3.947498827560129708e-01 4.846876454027757575e-01
3.957115146261680483e-01 4.730160098071749530e-01
3.966731464963230702e-01 4.464066912236646090e-01
3.976347783664780366e-01 4.031472079774971462e-01
3.985964102366330586e-01 2.091944217548622476e-01
3.995580421067881360e-01 5.548627765589131400e-02
4.005196739769430470e-01 1.471360286434766351e-01
4.014813058470981244e-01 2.426707632151483551e-01
4.024429377172531463e-01 2.304148763572904102e-01
4.034045695874082238e-01 2.289197649723035966e-01
