# q (1/Angstrom), Intensity (arb)
2.078726924066784734e-02 1.006546535135934960e+03
2.212838338006469993e-02 1.519643166993128034e+03
2.346949751946154905e-02 2.097052190419322415e+03
2.481061165885840164e-02 3.033652221738629578e+03
2.615172579825525423e-02 3.517574381317434927e+03
2.749283993765210335e-02 3.706447896526532986e+03
2.883395407704895941e-02 3.859989745683266392e+03
3.017506821644580506e-02 3.944274370878515583e+03
3.151618235584265765e-02 3.948375479384427763e+03
3.285729649523951718e-02 3.926997583616142037e+03
3.419841063463636283e-02 3.891360117042994716e+03
3.553952477403321542e-02 3.854746837722137116e+03
3.688063891343006800e-02 3.811953703283848427e+03
3.822175305282692059e-02 3.767030052173811782e+03
3.956286719222376624e-02 3.714515266500559392e+03
4.090398133162062577e-02 3.663329002287806816e+03
4.224509547101747142e-02 3.605997190941389363e+03
4.358620961041432401e-02 3.532866130958473150e+03
4.492732374981117660e-02 3.466767161556113933e+03
4.626843788920802919e-02 3.406562398318117630e+03
4.760955202860488178e-02 3.361585526285011838e+03
4.895066616800172743e-02 3.303133467467524952e+03
5.029178030739858696e-02 3.229839603621015158e+03
5.163289444679544649e-02 3.157979354631826936e+03
5.297400858619229214e-02 3.083769176094184786e+03
5.431512272558913779e-02 3.010696439454787196e+03
5.565623686498599731e-02 2.930876915207553793e+03
5.699735100438284990e-02 2.853257807173657056e+03
5.833846514377969555e-02 2.773256968093197884e+03
5.967957928317654814e-02 2.696432891740581454e+03
6.102069342257340767e-02 2.616967459146859255e+03
6.236180756197025332e-02 2.536777132393573538e+03
6.370292170136709897e-02 2.456973313460594454e+03
6.504403584076395850e-02 2.379697662403350932e+03
6.638514998016080415e-02 2.299341797959390533e+03
6.772626411955766368e-02 2.215812157118009964e+03
6.906737825895450933e-02 2.133694612859196241e+03
7.040849239835136886e-02 2.049902972110320206e+03
7.174960653774821451e-02 1.965765955696225092e+03
7.309072067714506016e-02 1.885704662381034495e+03
7.443183481654190581e-02 1.809397185886833540e+03
7.577294895593877921e-02 1.726855004671711868e+03
7.711406309533562486e-02 1.651074342354630971e+03
7.845517723473247051e-02 1.576173722275800628e+03
7.979629137412933004e-02 1.503296865583677345e+03
8.113740551352617569e-02 1.432239430180625959e+03
8.247851965292302134e-02 1.362939148585023759e+03
8.381963379231988087e-02 1.294424053621953362e+03
8.516074793171674040e-02 1.233046797790011169e+03
8.650186207111358605e-02 1.170914046284177175e+03
8.784297621051043170e-02 1.105494551680180848e+03
8.918409034990729123e-02 1.047172107197571222e+03
9.052520448930413688e-02 9.961911848055419796e+02
9.186631862870098253e-02 9.421213667066451762e+02
9.320743276809784206e-02 8.899298703048657444e+02
9.454854690749470159e-02 8.397981412291475181e+02
9.588966104689154724e-02 7.917426611561293157e+02
9.723077518628839289e-02 7.423380104479853117e+02
9.857188932568525241e-02 6.963225542944574045e+02
9.991300346508209806e-02 6.519847180498665011e+02
1.012541176044789437e-01 6.132537774661711865e+02
1.025952317438758032e-01 5.739653774240821349e+02
1.039363458832726350e-01 5.359346309809477589e+02
1.052774600226694945e-01 4.996067935911460154e+02
1.066185741620663541e-01 4.672850638518567621e+02
1.079596883014631858e-01 4.359304984938412417e+02
1.093008024408600454e-01 4.058397368997482886e+02
1.106419165802569049e-01 3.790036441271448666e+02
1.119830307196537506e-01 3.516045116287406813e+02
1.133241448590506101e-01 3.236309374784700594e+02
1.146652589984474419e-01 3.008480861622218185e+02
1.160063731378443014e-01 2.782055333855469144e+02
1.173474872772411609e-01 2.562491415079231274e+02
1.186886014166380066e-01 2.375213715350288624e+02
1.200297155560348661e-01 2.204418024883072462e+02
1.213708296954317256e-01 2.036976642231946926e+02
1.227119438348285574e-01 1.865021948955718472e+02
1.240530579742254169e-01 1.714706356913117418e+02
1.253941721136222764e-01 1.585140815921403714e+02
1.267352862530191082e-01 1.462714336092419103e+02
1.280764003924159677e-01 1.342326974811526554e+02
1.294175145318128273e-01 1.246109053944995253e+02
1.307586286712096590e-01 1.156312337944550563e+02
1.320997428106065186e-01 1.062077396189086045e+02
1.334408569500033781e-01 9.825517268568930263e+01
1.347819710894002376e-01 9.002734300199182371e+01
1.361230852287970972e-01 8.312450010633385489e+01
1.374641993681939289e-01 7.699101300268603154e+01
1.388053135075907885e-01 7.110663298342541339e+01
1.401464276469876480e-01 6.605185624129950384e+01
1.414875417863844798e-01 6.148584703423090758e+01
1.428286559257813393e-01 5.808377353951525635e+01
1.441697700651781988e-01 5.463275305220794564e+01
1.455108842045750306e-01 5.234036061635060122e+01
1.468519983439718901e-01 4.926855604764717356e+01
1.481931124833687219e-01 4.692634380817855089e+01
1.495342266227655814e-01 4.476759213155649775e+01
1.508753407621624687e-01 4.243400916315605542e+01
1.522164549015593005e-01 4.191507347654416549e+01
1.535575690409561600e-01 4.123412718582692804e+01
1.548986831803530195e-01 4.021387785086535160e+01
1.562397973197498513e-01 3.890350262421771532e+01
1.575809114591467108e-01 3.805884551483726597e+01
1.589220255985435704e-01 3.768300316528893745e+01
1.602631397379404021e-01 3.773449373056355682e+01
1.616042538773372617e-01 3.714819730625919192e+01
1.629453680167341212e-01 3.623917261369776810e+01
1.642864821561309530e-01 3.646094662778861561e+01
1.656275962955278125e-01 3.627563551629432936e+01
1.669687104349246720e-01 3.630509135693847611e+01
1.683098245743215315e-01 3.599935948337726188e+01
1.696509387137183911e-01 3.598725253937829649e+01
1.709920528531152228e-01 3.563404364763525223e+01
1.723331669925120824e-01 3.596257435306895900e+01
1.736742811319089419e-01 3.602403556636858184e+01
1.750153952713057737e-01 3.563526463386275367e+01
1.763565094107026332e-01 3.530913488427510316e+01
1.776976235500994927e-01 3.533536572186822156e+01
1.790387376894963245e-01 3.550302060636447266e+01
1.803798518288931840e-01 3.543286287364772136e+01
1.817209659682900158e-01 3.527443813258460636e+01
1.830620801076868753e-01 3.445683916314548867e+01
1.844031942470837349e-01 3.427773238263355893e+01
1.857443083864805944e-01 3.391324135174694021e+01
1.870854225258774539e-01 3.280963982661369016e+01
1.884265366652743134e-01 3.278162596040795052e+01
1.897676508046711452e-01 3.236214002072657081e+01
1.911087649440680047e-01 3.186019719560972163e+01
1.924498790834648643e-01 3.189068408533861287e+01
1.937909932228616960e-01 3.131456470957429161e+01
1.951321073622585556e-01 3.056834292639729256e+01
1.964732215016554151e-01 3.004574657846652030e+01
1.978143356410522469e-01 2.999741286424659847e+01
1.991554497804491064e-01 2.885623067336579339e+01
2.004965639198459382e-01 2.789193813726064519e+01
2.018376780592427977e-01 2.726445277617390417e+01
2.031787921986396572e-01 2.703384239908515241e+01
2.045199063380365168e-01 2.640586818440268502e+01
2.058610204774333763e-01 2.635576162475383200e+01
2.072021346168302081e-01 2.506563060635492235e+01
2.085432487562270676e-01 2.418806620877967362e+01
2.098843628956239271e-01 2.326871717269804662e+01
2.112254770350207866e-01 2.253761705528173565e+01
2.125665911744176462e-01 2.218232544687700170e+01
2.139077053138144502e-01 2.126692460406016494e+01
2.152488194532113097e-01 2.100066029319881267e+01
2.165899335926081692e-01 2.055874412925049199e+01
2.179310477320050288e-01 1.998422449350316299e+01
2.192721618714018883e-01 1.909895022227596684e+01
2.206132760107987478e-01 1.804202929920518983e+01
2.219543901501955796e-01 1.711726167756260963e+01
2.232955042895924391e-01 1.651025682353288460e+01
2.246366184289892987e-01 1.604471585648543197e+01
2.259777325683861582e-01 1.515906509278449477e+01
2.273188467077830177e-01 1.520545021973448030e+01
2.286599608471798217e-01 1.496291785688617892e+01
2.300010749865766813e-01 1.441138038667643428e+01
2.313421891259735408e-01 1.372697516321214550e+01
2.326833032653704003e-01 1.344503957047394493e+01
2.340244174047672598e-01 1.289113607437274567e+01
2.353655315441641194e-01 1.255444323650954885e+01
2.367066456835609234e-01 1.220321931755992040e+01
2.380477598229577829e-01 1.134974083346922669e+01
2.393888739623546424e-01 1.137250451410539398e+01
2.407299881017515020e-01 1.135916870915555421e+01
2.420711022411483615e-01 1.060849621209933247e+01
2.434122163805451933e-01 9.997450762571240546e+00
2.447533305199420528e-01 1.060502162878537291e+01
2.460944446593389123e-01 9.807435275259635432e+00
2.474355587987357719e-01 9.228723194038842337e+00
2.487766729381326314e-01 9.243947419545513355e+00
2.501177870775294632e-01 9.257899543322466229e+00
2.514589012169263227e-01 8.840894835410466612e+00
2.528000153563231822e-01 8.569276813708292195e+00
2.541411294957200417e-01 8.452654079602574200e+00
2.554822436351169013e-01 8.320978713756069567e+00
2.568233577745137608e-01 8.168606547258832506e+00
2.581644719139106203e-01 7.627658067108662010e+00
2.595055860533074243e-01 7.271336179462046800e+00
2.608467001927042839e-01 6.942479649055698587e+00
2.621878143321011434e-01 7.269755353647305185e+00
2.635289284714980029e-01 7.387119745747590116e+00
2.648700426108948625e-01 7.656418780559384629e+00
2.662111567502916665e-01 6.996946580280031469e+00
2.675522708896885260e-01 6.800609956253254040e+00
2.688933850290853855e-01 7.122451466000427445e+00
2.702344991684822451e-01 6.655897928876981950e+00
2.715756133078791046e-01 6.353129277429950150e+00
2.729167274472759641e-01 6.544985557111303365e+00
2.742578415866727681e-01 7.315161158712712108e+00
2.755989557260696277e-01 7.022401160506660744e+00
2.769400698654664872e-01 6.604080319075883665e+00
2.782811840048633467e-01 6.214853462146635366e+00
2.796222981442602062e-01 6.374073891266192504e+00
2.809634122836570103e-01 6.270128439632166817e+00
2.823045264230538698e-01 5.648222012856187746e+00
2.836456405624507293e-01 5.769632647997283925e+00
2.849867547018475888e-01 6.010983993953310289e+00
2.863278688412444484e-01 5.911367278669629854e+00
2.876689829806413079e-01 6.034428328697678978e+00
2.890100971200381674e-01 6.351806280469659782e+00
2.903512112594350270e-01 6.108261357105774891e+00
2.916923253988318865e-01 5.149986525840382967e+00
2.930334395382287460e-01 5.387616597636288418e+00
2.943745536776256055e-01 5.787669187720439368e+00
2.957156678170224096e-01 5.536549533309425897e+00
2.970567819564192691e-01 5.268385364772292689e+00
2.983978960958161286e-01 5.567725569561360999e+00
2.997390102352129881e-01 5.267062332230985078e+00
3.010801243746098477e-01 4.687383026287761822e+00
3.024212385140067072e-01 4.840376072191915569e+00
3.037623526534035112e-01 4.266615220003892262e+00
3.051034667928003707e-01 4.760254700185576837e+00
3.064445809321972303e-01 4.621535278789238532e+00
3.077856950715940898e-01 4.662359228894011665e+00
3.091268092109909493e-01 4.549621314893514068e+00
3.104679233503877533e-01 4.475691791436609890e+00
3.118090374897846129e-01 4.494035921897747698e+00
3.131501516291814724e-01 4.575376106294172018e+00
3.144912657685783319e-01 4.369026575451222527e+00
3.158323799079751915e-01 4.274488227429650067e+00
3.171734940473720510e-01 4.079462442095909580e+00
3.185146081867689105e-01 3.962157717307931648e+00
3.198557223261657700e-01 4.094555085771375502e+00
3.211968364655626296e-01 3.748822265253103581e+00
3.225379506049594891e-01 4.218714583569770582e+00
3.238790647443563486e-01 3.968340581775841258e+00
3.252201788837532082e-01 3.900056057197524240e+00
3.265612930231500122e-01 3.800394348005461609e+00
3.279024071625468717e-01 3.511164899036749887e+00
3.292435213019437312e-01 3.480388894143004563e+00
3.305846354413405908e-01 3.418196252123593126e+00
3.319257495807374503e-01 3.597205121574383213e+00
3.332668637201342543e-01 3.277760872365732325e+00
3.346079778595311138e-01 2.996427298614023016e+00
3.359490919989279734e-01 3.144431270050048965e+00
3.372902061383248329e-01 2.950682423945323762e+00
3.386313202777216924e-01 2.676192701287519071e+00
3.399724344171185519e-01 2.781125170597320562e+00
3.413135485565153560e-01 2.970592966164865345e+00
3.426546626959122155e-01 3.405625456306616172e+00
3.439957768353090750e-01 2.991516096500276944e+00
3.453368909747059345e-01 3.033855092446252399e+00
3.466780051141027941e-01 2.589431785954793952e+00
3.480191192534995981e-01 2.416181734616529297e+00
3.493602333928964576e-01 2.321504496435970566e+00
3.507013475322933171e-01 2.624618107681051526e+00
3.520424616716901767e-01 3.022720525991068996e+00
3.533835758110870362e-01 2.936910871904714782e+00
3.547246899504838957e-01 2.447846719704088514e+00
3.560658040898807553e-01 2.417590950964260799e+00
3.574069182292776148e-01 2.538067896040509197e+00
3.587480323686744743e-01 2.552161389180589879e+00
3.600891465080713338e-01 2.593184288227448064e+00
3.614302606474681934e-01 2.383966939424325915e+00
3.627713747868649974e-01 2.433731492602603907e+00
3.641124889262618569e-01 2.820545665072771158e+00
3.654536030656587164e-01 2.591461478704744081e+00
3.667947172050555760e-01 2.381109899066096602e+00
3.681358313444524355e-01 2.201575296212205046e+00
3.694769454838492950e-01 2.336364099369532710e+00
3.708180596232460990e-01 2.147858521011805522e+00
3.721591737626429586e-01 2.157372094672666663e+00
3.735002879020398181e-01 2.255497918031544202e+00
3.748414020414366776e-01 2.033707447717027605e+00
3.761825161808335372e-01 1.827937144744268494e+00
3.775236303202303967e-01 1.803136872699774074e+00
3.788647444596272007e-01 1.475698762849305012e+00
3.802058585990240602e-01 1.795668174372053727e+00
3.815469727384209198e-01 2.060622134946086703e+00
3.828880868778177793e-01 2.186119966454050711e+00
3.842292010172146388e-01 1.538304056089437211e+00
3.855703151566114428e-01 1.532598545413534907e+00
3.869114292960083024e-01 2.107384902262893434e+00
3.882525434354051619e-01 1.944123211798846285e+00
3.895936575748020214e-01 1.809518923251367539e+00
3.909347717141988809e-01 1.458482835466959671e+00
3.922758858535957405e-01 1.266110532362858976e+00
3.936169999929926000e-01 1.439154267636340023e+00
3.949581141323894595e-01 1.553980906948183360e+00
3.962992282717863191e-01 1.614960620355262222e+00
3.976403424111831786e-01 1.831949639417871367e+00
3.989814565505800381e-01 2.117352065734991129e+00
4.003225706899768976e-01 1.893466594173439432e+00
4.016636848293737572e-01 2.108484430476181615e+00
4.030047989687706167e-01 1.537115216136015761e+00
4.043459131081674207e-01 1.717478564846921074e+00
4.056870272475643358e-01 1.669017679653016728e+00
4.070281413869611398e-01 1.460244559040766887e+00
4.083692555263580548e-01 1.751163729032406025e+00
4.097103696657548588e-01 1.418173989729751838e+00
4.110514838051517739e-01 1.756800369547271146e+00
4.123925979445485779e-01 1.739327884130510427e+00
4.137337120839453819e-01 1.653332534898204642e+00
4.150748262233422969e-01 1.209581405652919273e+00
4.164159403627391010e-01 1.072714352811679817e+00
4.177570545021360160e-01 1.455213381643673642e+00
4.190981686415328200e-01 1.395963353493776538e+00
4.204392827809296240e-01 1.507157398643549584e+00
4.217803969203265391e-01 1.614244283553532000e+00
4.231215110597233431e-01 1.534843240953463805e+00
4.244626251991202581e-01 1.436105607451061417e+00
4.258037393385170621e-01 1.697687410434561173e+00
4.271448534779138662e-01 1.461950574767257649e+00
4.284859676173107812e-01 1.483647631364540587e+00
4.298270817567075852e-01 1.490427864685713644e+00
4.311681958961045003e-01 1.267650503525977967e+00
4.325093100355013043e-01 1.399510026631517690e+00
4.338504241748981638e-01 1.436413637636555052e+00
4.351915383142950233e-01 1.106576317497484752e+00
4.365326524536918829e-01 8.197969483036189331e-01
4.378737665930887424e-01 9.459101951099668781e-01
4.392148807324856019e-01 1.025763947133384590e+00
4.405559948718824614e-01 1.056128558454666688e+00
4.418971090112793210e-01 1.096504682800620856e+00
4.432382231506761250e-01 1.105757662565629573e+00
4.445793372900730400e-01 1.037954134869863765e+00
4.459204514294698440e-01 1.174375988131615145e+00
4.472615655688667591e-01 1.080053567932800718e+00
4.486026797082635631e-01 1.017509340825490938e+00
4.499437938476603671e-01 1.076500884726669938e+00
4.512849079870572822e-01 1.035413963280419125e+00
4.526260221264540862e-01 1.042643571796055824e+00
4.539671362658510012e-01 8.722848205540358890e-01
4.553082504052478052e-01 6.963108254199994462e-01
4.566493645446446092e-01 9.391804511189718596e-01
4.579904786840415243e-01 1.153693286316780586e+00
4.593315928234383283e-01 7.623984242549468604e-01
4.606727069628352433e-01 8.271625338213937084e-01
4.620138211022320474e-01 1.062090586306133844e+00
4.633549352416289624e-01 7.180406925303515209e-01
4.646960493810257664e-01 6.487110718248843000e-01
4.660371635204225704e-01 6.442964054890580883e-01
4.673782776598194855e-01 7.130205392921880048e-01
4.687193917992162895e-01 8.210783738789402264e-01
4.700605059386132045e-01 1.085240868015816318e+00
4.714016200780100085e-01 1.178985511119392982e+00
4.727427342174068681e-01 9.052667501976898734e-01
4.740838483568037276e-01 8.027786022385754450e-01
4.754249624962005871e-01 4.406571124213627400e-01
4.767660766355974467e-01 6.220209737075776957e-01
4.781071907749943062e-01 8.115220055388192577e-01
4.794483049143911102e-01 9.108039219576440360e-01
4.807894190537880252e-01 1.011609922547883400e+00
4.821305331931848293e-01 6.742906101577261779e-01
4.834716473325817443e-01 4.188064570602421099e-01
4.848127614719785483e-01 8.260387824575659010e-01
4.861538756113753523e-01 7.154052062969284975e-01
4.874949897507722674e-01 7.828257240552858320e-01
4.888361038901690714e-01 7.132371042501830516e-01
4.901772180295659864e-01 8.427230231178910458e-01
4.915183321689627904e-01 8.996244006107119162e-01
4.928594463083597055e-01 7.056985177840857659e-01
4.942005604477565095e-01 7.500622612138627687e-01
4.955416745871533135e-01 9.638506097510628479e-01
4.968827887265502286e-01 7.997011350656819673e-01
4.982239028659470326e-01 8.453491010977458586e-01
4.995650170053439476e-01 7.025802760119148616e-01
5.009061311447408071e-01 7.214781381800321469e-01
5.022472452841375556e-01 7.546384600224058659e-01
5.035883594235345262e-01 6.386712489306773932e-01
5.049294735629312747e-01 8.141644984748594993e-01
5.062705877023282452e-01 9.267740180884374013e-01
5.076117018417249938e-01 8.124563352386005022e-01
5.089528159811218533e-01 4.416225941442419867e-01
5.102939301205187128e-01 6.273333791493627132e-01
5.116350442599155723e-01 4.983194260111787344e-01
5.129761583993124319e-01 2.376411206456836567e-01
5.143172725387092914e-01 7.594083453849194143e-01
5.156583866781061509e-01 8.879879493465807627e-01
5.169995008175030105e-01 6.688283605521618824e-01
5.183406149568997590e-01 4.131906911104792357e-01
5.196817290962967295e-01 4.269358296732832514e-01
5.210228432356934780e-01 5.936225021975332083e-01
5.223639573750904486e-01 4.528582974332806543e-01
5.237050715144871971e-01 4.188966358110448596e-01
5.250461856538840566e-01 5.248818440038078847e-01
5.263872997932809161e-01 2.926140627957920515e-01
5.277284139326777757e-01 6.926589710196111582e-01
5.290695280720746352e-01 6.592265631090725719e-01
5.304106422114714947e-01 3.297444079957188023e-01
5.317517563508683542e-01 5.272865946661369208e-01
5.330928704902652138e-01 5.660466469265372780e-01
5.344339846296620733e-01 6.366388706050543078e-01
5.357750987690589328e-01 4.311806153768102945e-01
5.371162129084557924e-01 2.708648879076207550e-01
5.384573270478525409e-01 4.164983736675083037e-01
5.397984411872495114e-01 4.584727478884360607e-01
5.411395553266462599e-01 5.640152882161331149e-01
5.424806694660432305e-01 4.610201887148832611e-01
5.438217836054399790e-01 3.507326941220512140e-01
5.451628977448369495e-01 7.304253789401613517e-01
5.465040118842336980e-01 5.194659981941640581e-01
5.478451260236305576e-01 5.142398568006356641e-01
5.491862401630274171e-01 6.520500991653506162e-01
5.505273543024242766e-01 4.278767915775318897e-01
5.518684684418211361e-01 4.125365722382383638e-01
5.532095825812179957e-01 5.130324892476920695e-01
5.545506967206147442e-01 3.394290608352008576e-01
