# q (1/Angstrom), Intensity (arb)
2.078726924066784734e-02 1.125748290536314016e+03
2.212838338006469993e-02 1.685311099100814317e+03
2.346949751946154905e-02 2.324492700455361955e+03
2.481061165885840164e-02 3.339330376748271647e+03
2.615172579825525423e-02 3.866003101226160652e+03
2.749283993765210335e-02 4.068887118998808091e+03
2.883395407704895941e-02 4.233516234710213212e+03
3.017506821644580506e-02 4.322133677599989824e+03
3.151618235584265765e-02 4.323695471516475664e+03
3.285729649523951718e-02 4.298572574674767566e+03
3.419841063463636283e-02 4.264668029093135374e+03
3.553952477403321542e-02 4.204818428575714279e+03
3.688063891343006800e-02 4.147214062252645817e+03
3.822175305282692059e-02 4.092781788056679034e+03
3.956286719222376624e-02 4.035166554888468454e+03
4.090398133162062577e-02 3.975692539946640863e+03
4.224509547101747142e-02 3.900990800933361697e+03
4.358620961041432401e-02 3.825284244298247359e+03
4.492732374981117660e-02 3.751949029226217590e+03
4.626843788920802919e-02 3.688304729299957671e+03
4.760955202860488178e-02 3.635346480767570483e+03
4.895066616800172743e-02 3.559343158350516205e+03
5.029178030739858696e-02 3.480162277117117810e+03
5.163289444679544649e-02 3.406625726130031580e+03
5.297400858619229214e-02 3.330135714709892454e+03
5.431512272558913779e-02 3.247909602252424975e+03
5.565623686498599731e-02 3.159047563610216912e+03
5.699735100438284990e-02 3.069534373880940166e+03
5.833846514377969555e-02 2.980427958548473725e+03
5.967957928317654814e-02 2.902281290445029299e+03
6.102069342257340767e-02 2.816811039277088639e+03
6.236180756197025332e-02 2.724894859608725710e+03
6.370292170136709897e-02 2.637787468884775080e+03
6.504403584076395850e-02 2.551238574260580208e+03
6.638514998016080415e-02 2.467310422668555930e+03
6.772626411955766368e-02 2.382575328633408390e+03
6.906737825895450933e-02 2.289962593139055571e+03
7.040849239835136886e-02 2.196865252022790628e+03
7.174960653774821451e-02 2.107283434826004395e+03
7.309072067714506016e-02 2.017276702220753805e+03
7.443183481654190581e-02 1.935298498165816682e+03
7.577294895593877921e-02 1.852615573156652317e+03
7.711406309533562486e-02 1.774093299318711161e+03
7.845517723473247051e-02 1.691441131679322098e+03
7.979629137412933004e-02 1.609302156966655502e+03
8.113740551352617569e-02 1.532511232785555876e+03
8.247851965292302134e-02 1.461535701395916931e+03
8.381963379231988087e-02 1.388245906858454191e+03
8.516074793171674040e-02 1.316595148032050702e+03
8.650186207111358605e-02 1.248213810291164236e+03
8.784297621051043170e-02 1.185648572919158141e+03
8.918409034990729123e-02 1.122347067216980122e+03
9.052520448930413688e-02 1.058431437676032147e+03
9.186631862870098253e-02 1.000512555473129510e+03
9.320743276809784206e-02 9.444132714386272482e+02
9.454854690749470159e-02 8.889573479489940837e+02
9.588966104689154724e-02 8.377271468286448908e+02
9.723077518628839289e-02 7.891925553725891405e+02
9.857188932568525241e-02 7.407689864733042668e+02
9.991300346508209806e-02 6.933730444320078732e+02
1.012541176044789437e-01 6.490327551934618668e+02
1.025952317438758032e-01 6.061729460413092738e+02
1.039363458832726350e-01 5.672874556132709358e+02
1.052774600226694945e-01 5.308826590578462401e+02
1.066185741620663541e-01 4.935543999731204963e+02
1.079596883014631858e-01 4.585823611959031041e+02
1.093008024408600454e-01 4.251554199188352072e+02
1.106419165802569049e-01 3.940052144126711369e+02
1.119830307196537506e-01 3.663139115362574785e+02
1.133241448590506101e-01 3.410326329497314646e+02
1.146652589984474419e-01 3.163166912580491612e+02
1.160063731378443014e-01 2.918497412154777066e+02
1.173474872772411609e-01 2.684243588320152867e+02
1.186886014166380066e-01 2.477844465142183594e+02
1.200297155560348661e-01 2.293563693382507154e+02
1.213708296954317256e-01 2.107155637946425486e+02
1.227119438348285574e-01 1.940114637210758701e+02
1.240530579742254169e-01 1.783893203938119143e+02
1.253941721136222764e-01 1.637751560853367323e+02
1.267352862530191082e-01 1.501225789560451176e+02
1.280764003924159677e-01 1.373567315249912895e+02
1.294175145318128273e-01 1.260689762979810808e+02
1.307586286712096590e-01 1.158253652388916066e+02
1.320997428106065186e-01 1.066272869864993993e+02
1.334408569500033781e-01 9.868083481062889462e+01
1.347819710894002376e-01 9.107176954273090530e+01
1.361230852287970972e-01 8.431077074920827386e+01
1.374641993681939289e-01 7.698220788795816816e+01
1.388053135075907885e-01 7.148453394563499330e+01
1.401464276469876480e-01 6.717743883393565341e+01
1.414875417863844798e-01 6.298281452304456707e+01
1.428286559257813393e-01 5.871160529506124703e+01
1.441697700651781988e-01 5.488746701166719788e+01
1.455108842045750306e-01 5.193847067962576602e+01
1.468519983439718901e-01 4.905194382222120453e+01
1.481931124833687219e-01 4.680041956044330220e+01
1.495342266227655814e-01 4.482757324872827098e+01
1.508753407621624687e-01 4.355784608572676575e+01
1.522164549015593005e-01 4.223836199015411808e+01
1.535575690409561600e-01 4.107192953185251838e+01
1.548986831803530195e-01 3.987149362076773684e+01
1.562397973197498513e-01 4.012248701205164991e+01
1.575809114591467108e-01 3.849435826574874397e+01
1.589220255985435704e-01 3.825523566368919148e+01
1.602631397379404021e-01 3.761055195020269082e+01
1.616042538773372617e-01 3.727654955370825007e+01
1.629453680167341212e-01 3.756359392148546306e+01
1.642864821561309530e-01 3.716571224960719633e+01
1.656275962955278125e-01 3.653619846668654247e+01
1.669687104349246720e-01 3.713986835669875575e+01
1.683098245743215315e-01 3.673863403671562367e+01
1.696509387137183911e-01 3.750786775217065383e+01
1.709920528531152228e-01 3.729929323809190578e+01
1.723331669925120824e-01 3.691875672473361902e+01
1.736742811319089419e-01 3.774230673872195752e+01
1.750153952713057737e-01 3.769465779749143053e+01
1.763565094107026332e-01 3.742111976001236684e+01
1.776976235500994927e-01 3.617555670011824276e+01
1.790387376894963245e-01 3.641302786901662358e+01
1.803798518288931840e-01 3.682224508565074927e+01
1.817209659682900158e-01 3.613265954759582854e+01
1.830620801076868753e-01 3.631997043568775752e+01
1.844031942470837349e-01 3.661756629584142075e+01
1.857443083864805944e-01 3.558844471428837153e+01
1.870854225258774539e-01 3.582387444857472047e+01
1.884265366652743134e-01 3.521445966783824844e+01
1.897676508046711452e-01 3.442741814907555664e+01
1.911087649440680047e-01 3.402467603584080535e+01
1.924498790834648643e-01 3.423159677333339346e+01
1.937909932228616960e-01 3.359078701201455175e+01
1.951321073622585556e-01 3.219412277654842569e+01
1.964732215016554151e-01 3.169542736435420238e+01
1.978143356410522469e-01 3.180706174548679144e+01
1.991554497804491064e-01 3.086746145454573309e+01
2.004965639198459382e-01 2.996086063356843709e+01
2.018376780592427977e-01 2.903104794170212699e+01
2.031787921986396572e-01 2.843381366208601690e+01
2.045199063380365168e-01 2.741851518542586774e+01
2.058610204774333763e-01 2.751836940071820692e+01
2.072021346168302081e-01 2.671194123426591460e+01
2.085432487562270676e-01 2.618342891831551356e+01
2.098843628956239271e-01 2.507901560718828193e+01
2.112254770350207866e-01 2.432265105439130792e+01
2.125665911744176462e-01 2.421009671161665011e+01
2.139077053138144502e-01 2.288241157888764832e+01
2.152488194532113097e-01 2.205320685378045198e+01
2.165899335926081692e-01 2.069591753231088660e+01
2.179310477320050288e-01 2.039449927754598235e+01
2.192721618714018883e-01 2.011862814218401496e+01
2.206132760107987478e-01 1.905378519137506288e+01
2.219543901501955796e-01 1.767446582512882003e+01
2.232955042895924391e-01 1.772582845670838481e+01
2.246366184289892987e-01 1.742832743575404919e+01
2.259777325683861582e-01 1.662785827031954256e+01
2.273188467077830177e-01 1.571358611933920457e+01
2.286599608471798217e-01 1.512623205427762230e+01
2.300010749865766813e-01 1.458820411650118842e+01
2.313421891259735408e-01 1.382349769699375486e+01
2.326833032653704003e-01 1.293525625709099103e+01
2.340244174047672598e-01 1.333523315724791303e+01
2.353655315441641194e-01 1.336158105147845987e+01
2.367066456835609234e-01 1.214414520683501308e+01
2.380477598229577829e-01 1.197773496771196022e+01
2.393888739623546424e-01 1.162389288328159154e+01
2.407299881017515020e-01 1.161472981865505005e+01
2.420711022411483615e-01 1.088464439033030828e+01
2.434122163805451933e-01 1.033971601198766166e+01
2.447533305199420528e-01 1.017180752696435064e+01
2.460944446593389123e-01 1.004415217599764532e+01
2.474355587987357719e-01 9.343915387069749556e+00
2.487766729381326314e-01 9.271680655609422672e+00
2.501177870775294632e-01 8.811077946185143617e+00
2.514589012169263227e-01 8.989239756861195474e+00
2.528000153563231822e-01 8.132783281980124457e+00
2.541411294957200417e-01 8.000132743170865979e+00
2.554822436351169013e-01 7.990518787997480388e+00
2.568233577745137608e-01 8.226393547729166755e+00
2.581644719139106203e-01 8.055429349877265111e+00
2.595055860533074243e-01 8.019087198072938349e+00
2.608467001927042839e-01 7.872871418258348797e+00
2.621878143321011434e-01 7.650970438263833273e+00
2.635289284714980029e-01 7.237262041070060548e+00
2.648700426108948625e-01 7.193505736366425651e+00
2.662111567502916665e-01 6.861141508062353012e+00
2.675522708896885260e-01 6.595008562187040013e+00
2.688933850290853855e-01 7.017931064649040707e+00
2.702344991684822451e-01 6.818222692992094380e+00
2.715756133078791046e-01 6.748591335136502778e+00
2.729167274472759641e-01 6.735682125154902167e+00
2.742578415866727681e-01 6.809264009972878284e+00
2.755989557260696277e-01 6.628800597825168950e+00
2.769400698654664872e-01 6.319728512663793651e+00
2.782811840048633467e-01 6.400004977563824582e+00
2.796222981442602062e-01 6.502766906281415515e+00
2.809634122836570103e-01 6.128116093769357065e+00
2.823045264230538698e-01 5.890170200867991923e+00
2.836456405624507293e-01 6.429468338810004013e+00
2.849867547018475888e-01 6.862122607474724134e+00
2.863278688412444484e-01 6.077522742188229188e+00
2.876689829806413079e-01 6.247375879963911416e+00
2.890100971200381674e-01 6.037713111121988163e+00
2.903512112594350270e-01 5.468167951696500495e+00
2.916923253988318865e-01 5.093782887509064494e+00
2.930334395382287460e-01 5.382256942979033454e+00
2.943745536776256055e-01 5.390315122991680141e+00
2.957156678170224096e-01 5.473097283479617658e+00
2.970567819564192691e-01 5.201996612476044390e+00
2.983978960958161286e-01 5.167584640478580127e+00
2.997390102352129881e-01 5.170085740209195535e+00
3.010801243746098477e-01 4.806838774677821391e+00
3.024212385140067072e-01 5.077208894168244058e+00
3.037623526534035112e-01 4.724447591207116659e+00
3.051034667928003707e-01 4.796571929340302631e+00
3.064445809321972303e-01 4.707597068095310533e+00
3.077856950715940898e-01 4.883131517372405028e+00
3.091268092109909493e-01 4.674329789901690901e+00
3.104679233503877533e-01 4.329613208577860917e+00
3.118090374897846129e-01 4.562280371557562830e+00
3.131501516291814724e-01 4.463075533703907638e+00
3.144912657685783319e-01 4.162898660202579038e+00
3.158323799079751915e-01 4.173906204683703436e+00
3.171734940473720510e-01 4.037188476741654597e+00
3.185146081867689105e-01 3.933480204466363261e+00
3.198557223261657700e-01 3.874537562802409241e+00
3.211968364655626296e-01 3.513559426547189446e+00
3.225379506049594891e-01 3.492704441539814297e+00
3.238790647443563486e-01 3.292701637923066471e+00
3.252201788837532082e-01 3.272291002792172776e+00
3.265612930231500122e-01 3.334305803356244269e+00
3.279024071625468717e-01 3.288321483754344854e+00
3.292435213019437312e-01 3.206303241755847466e+00
3.305846354413405908e-01 3.533781100403622588e+00
3.319257495807374503e-01 3.376670757149035751e+00
3.332668637201342543e-01 3.409319181473229321e+00
3.346079778595311138e-01 3.162172704397612222e+00
3.359490919989279734e-01 3.313213268738365969e+00
3.372902061383248329e-01 3.095236948856381787e+00
3.386313202777216924e-01 2.928549934795867671e+00
3.399724344171185519e-01 2.514648358225748837e+00
3.413135485565153560e-01 2.489797354411358299e+00
3.426546626959122155e-01 2.373991955525006858e+00
3.439957768353090750e-01 2.487181374557415836e+00
3.453368909747059345e-01 2.436459637188441718e+00
3.466780051141027941e-01 2.110588594836912080e+00
3.480191192534995981e-01 2.026444963895691842e+00
3.493602333928964576e-01 2.241363382872570753e+00
3.507013475322933171e-01 2.098134620078070611e+00
3.520424616716901767e-01 2.207644431993031731e+00
3.533835758110870362e-01 1.871608877028002382e+00
3.547246899504838957e-01 1.470389091840146989e+00
3.560658040898807553e-01 1.778726165775367463e+00
3.574069182292776148e-01 1.828274685329922988e+00
3.587480323686744743e-01 1.565700029357337542e+00
3.600891465080713338e-01 1.983775266618479804e+00
3.614302606474681934e-01 1.914652372829202420e+00
3.627713747868649974e-01 1.392980752570935010e+00
3.641124889262618569e-01 1.610634268196811547e+00
3.654536030656587164e-01 1.394654808660000356e+00
3.667947172050555760e-01 1.691640161268345821e+00
3.681358313444524355e-01 1.662485760323612283e+00
3.694769454838492950e-01 1.646234371435831179e+00
3.708180596232460990e-01 1.771736962027802065e+00
3.721591737626429586e-01 1.573215871147191081e+00
3.735002879020398181e-01 1.518785447922525123e+00
3.748414020414366776e-01 1.758751293674983174e+00
3.761825161808335372e-01 1.258243121829792699e+00
3.775236303202303967e-01 1.421304263323705186e+00
3.788647444596272007e-01 1.089794338290516862e+00
3.802058585990240602e-01 1.154431183253215920e+00
3.815469727384209198e-01 1.251040550415012831e+00
3.828880868778177793e-01 1.183212115911217666e+00
3.842292010172146388e-01 1.350214605309489002e+00
3.855703151566114428e-01 1.427223386260315863e+00
3.869114292960083024e-01 9.802703894476607616e-01
3.882525434354051619e-01 9.616023563328468526e-01
3.895936575748020214e-01 9.499183284636814051e-01
3.909347717141988809e-01 7.141365337947362946e-01
3.922758858535957405e-01 6.998012766723746836e-01
3.936169999929926000e-01 1.169788587482969433e+00
3.949581141323894595e-01 1.540705938410511067e+00
3.962992282717863191e-01 1.262900977810538450e+00
3.976403424111831786e-01 1.295365422202856109e+00
3.989814565505800381e-01 1.002745043090932597e+00
4.003225706899768976e-01 6.144011071426547232e-01
4.016636848293737572e-01 6.169203296438254824e-01
4.030047989687706167e-01 9.748768280944943854e-01
4.043459131081674207e-01 1.014104967838207472e+00
4.056870272475643358e-01 7.946993164491615858e-01
4.070281413869611398e-01 9.365505671025360357e-01
4.083692555263580548e-01 6.555594320110955664e-01
4.097103696657548588e-01 8.255129136656975675e-01
4.110514838051517739e-01 7.354012952232338307e-01
4.123925979445485779e-01 1.008353648402952274e+00
4.137337120839453819e-01 8.968400969088747843e-01
4.150748262233422969e-01 1.376879455008143793e+00
4.164159403627391010e-01 1.252888743635651281e+00
4.177570545021360160e-01 6.965067274210312576e-01
4.190981686415328200e-01 7.635409446138154976e-01
4.204392827809296240e-01 8.100188400112884324e-01
4.217803969203265391e-01 6.272449565665212390e-01
4.231215110597233431e-01 9.336589405556736665e-01
4.244626251991202581e-01 4.448335736142183805e-01
4.258037393385170621e-01 3.750888419637945503e-01
4.271448534779138662e-01 6.153864370086594704e-01
4.284859676173107812e-01 6.095475893645243559e-01
4.298270817567075852e-01 3.992168323535167929e-01
4.311681958961045003e-01 6.504658754516086105e-01
4.325093100355013043e-01 6.642330299606982180e-01
4.338504241748981638e-01 3.330703813347994924e-01
4.351915383142950233e-01 6.603340782304201184e-02
4.365326524536918829e-01 1.806039455806285332e-01
4.378737665930887424e-01 4.189295923101283847e-01
4.392148807324856019e-01 5.665364547486575475e-01
4.405559948718824614e-01 6.401397815403342406e-01
4.418971090112793210e-01 7.860048396642795865e-01
4.432382231506761250e-01 3.726118028965430540e-01
4.445793372900730400e-01 4.815850049828398483e-01
4.459204514294698440e-01 3.949757410338534669e-01
4.472615655688667591e-01 3.831460204853769369e-01
4.486026797082635631e-01 5.176313428792553850e-01
4.499437938476603671e-01 6.156846283560213351e-01
4.512849079870572822e-01 6.519526323116409117e-01
4.526260221264540862e-01 6.426583021339951074e-01
4.539671362658510012e-01 6.779850041497894608e-01
4.553082504052478052e-01 5.231309897488571892e-01
4.566493645446446092e-01 7.205461575890268477e-01
4.579904786840415243e-01 5.211565717326820391e-01
4.593315928234383283e-01 3.276649992626019525e-01
4.606727069628352433e-01 6.171888825824538571e-01
4.620138211022320474e-01 4.140807867188058822e-01
4.633549352416289624e-01 5.498440257653882668e-01
4.646960493810257664e-01 4.225672872480856768e-01
4.660371635204225704e-01 2.747663111411142722e-01
4.673782776598194855e-01 3.822307285098958118e-01
4.687193917992162895e-01 4.926251819123166342e-01
4.700605059386132045e-01 4.458220916299993064e-01
4.714016200780100085e-01 2.517542165800108478e-01
4.727427342174068681e-01 3.161052728819200297e-01
4.740838483568037276e-01 3.816788174972955971e-01
4.754249624962005871e-01 3.740159731267951315e-01
4.767660766355974467e-01 4.351822764997379522e-01
4.781071907749943062e-01 5.524742891468079620e-01
4.794483049143911102e-01 3.832879018898438517e-01
4.807894190537880252e-01 4.558371412977635373e-01
4.821305331931848293e-01 4.702088009155289683e-01
4.834716473325817443e-01 4.321218535991562248e-01
4.848127614719785483e-01 3.558156355727888354e-01
4.861538756113753523e-01 3.165188367841906825e-01
4.874949897507722674e-01 3.798909889938997253e-01
4.888361038901690714e-01 3.730040215582164365e-01
4.901772180295659864e-01 3.030039943657527601e-01
4.915183321689627904e-01 4.453500162192867151e-01
4.928594463083597055e-01 4.629288810337612858e-01
4.942005604477565095e-01 5.006307560022875691e-01
4.955416745871533135e-01 4.731481418443053144e-01
4.968827887265502286e-01 2.678495939726914798e-01
4.982239028659470326e-01 3.580077664335163945e-01
4.995650170053439476e-01 2.502665343562071598e-01
5.009061311447408071e-01 3.773278021778239122e-01
5.022472452841375556e-01 2.991381900267526817e-01
5.035883594235345262e-01 1.353119904185930977e-01
5.049294735629312747e-01 0.000000000000000000e+00
5.062705877023282452e-01 2.801500939795289469e-01
5.076117018417249938e-01 5.093507103133276814e-01
5.089528159811218533e-01 2.535679736415019647e-01
5.102939301205187128e-01 3.944714413256207308e-01
5.116350442599155723e-01 7.554593974325598538e-01
5.129761583993124319e-01 6.646669986312971901e-01
5.143172725387092914e-01 5.818330376444791341e-01
5.156583866781061509e-01 4.206434968901362481e-01
5.169995008175030105e-01 4.529000952037520733e-01
5.183406149568997590e-01 4.061269241785936401e-01
5.196817290962967295e-01 3.042165634619919956e-01
5.210228432356934780e-01 2.910482831374991974e-01
5.223639573750904486e-01 3.540449243547953984e-01
5.237050715144871971e-01 3.769573822310334776e-01
5.250461856538840566e-01 1.030417387354418679e-01
5.263872997932809161e-01 2.626644993561697561e-01
5.277284139326777757e-01 2.784353983472698246e-01
5.290695280720746352e-01 4.223597031507679844e-01
5.304106422114714947e-01 5.793235834211287738e-01
5.317517563508683542e-01 6.501048628583134814e-01
5.330928704902652138e-01 4.801313496942754000e-01
5.344339846296620733e-01 4.546643897167896853e-01
5.357750987690589328e-01 5.683523089404971529e-01
5.371162129084557924e-01 5.875470324635543307e-01
5.384573270478525409e-01 7.435275620553198905e-01
5.397984411872495114e-01 4.733135880894678849e-01
5.411395553266462599e-01 3.635345397329174943e-01
5.424806694660432305e-01 4.192512416686540178e-01
5.438217836054399790e-01 5.602020780366245845e-01
5.451628977448369495e-01 5.931605453715462772e-01
5.465040118842336980e-01 6.416534890866785190e-01
5.478451260236305576e-01 4.126711592083225355e-01
5.491862401630274171e-01 7.284431102256760937e-01
5.505273543024242766e-01 5.835440022648086256e-01
5.518684684418211361e-01 4.699815647165053178e-01
5.532095825812179957e-01 5.606123960122957328e-01
5.545506967206147442e-01 6.890063625414413195e-01
