# q (1/Angstrom), Intensity (arb)
2.078726924066784734e-02 1.133417870869408034e+03
2.212838338006469993e-02 1.699314850715713419e+03
2.346949751946154905e-02 2.345143691889952606e+03
2.481061165885840164e-02 3.375856802143475761e+03
2.615172579825525423e-02 3.892263689613523184e+03
2.749283993765210335e-02 4.101364975122217402e+03
2.883395407704895941e-02 4.263058852511553596e+03
3.017506821644580506e-02 4.352761281264112768e+03
3.151618235584265765e-02 4.354616244587889014e+03
3.285729649523951718e-02 4.332220473349306303e+03
3.419841063463636283e-02 4.291714365222367633e+03
3.553952477403321542e-02 4.244610095767943676e+03
3.688063891343006800e-02 4.196976161231925289e+03
3.822175305282692059e-02 4.129761142182305775e+03
3.956286719222376624e-02 4.059945112208833962e+03
4.090398133162062577e-02 3.994245505193796816e+03
4.224509547101747142e-02 3.930418241561811101e+03
4.358620961041432401e-02 3.866065618918812561e+03
4.492732374981117660e-02 3.787402018302181204e+03
4.626843788920802919e-02 3.718912519765528032e+03
4.760955202860488178e-02 3.663395466397318160e+03
4.895066616800172743e-02 3.593208985655550805e+03
5.029178030739858696e-02 3.504524122688269927e+03
5.163289444679544649e-02 3.424853139496641234e+03
5.297400858619229214e-02 3.359484978063025665e+03
5.431512272558913779e-02 3.278501342164929156e+03
5.565623686498599731e-02 3.184951475952474539e+03
5.699735100438284990e-02 3.092083759867044591e+03
5.833846514377969555e-02 3.007164120463469317e+03
5.967957928317654814e-02 2.926080802380685327e+03
6.102069342257340767e-02 2.835764291757757746e+03
6.236180756197025332e-02 2.741806756381397918e+03
6.370292170136709897e-02 2.657098221525163353e+03
6.504403584076395850e-02 2.577420071569788433e+03
6.638514998016080415e-02 2.491613715952687016e+03
6.772626411955766368e-02 2.402227664217556139e+03
6.906737825895450933e-02 2.305798589745315439e+03
7.040849239835136886e-02 2.217215537628463153e+03
7.174960653774821451e-02 2.122558070632328054e+03
7.309072067714506016e-02 2.033363282464076519e+03
7.443183481654190581e-02 1.947092400661128522e+03
7.577294895593877921e-02 1.864389539048922643e+03
7.711406309533562486e-02 1.783646570595719595e+03
7.845517723473247051e-02 1.701099508863650499e+03
7.979629137412933004e-02 1.622980008639372500e+03
8.113740551352617569e-02 1.546666365062881141e+03
8.247851965292302134e-02 1.468409489928996891e+03
8.381963379231988087e-02 1.395258163584504473e+03
8.516074793171674040e-02 1.326023142625876517e+03
8.650186207111358605e-02 1.259063073232625129e+03
8.784297621051043170e-02 1.193216488967481610e+03
8.918409034990729123e-02 1.128557774241092147e+03
9.052520448930413688e-02 1.069939582789366341e+03
9.186631862870098253e-02 1.012220257487649405e+03
9.320743276809784206e-02 9.517000339030045097e+02
9.454854690749470159e-02 8.962568614199052490e+02
9.588966104689154724e-02 8.454458689020448219e+02
9.723077518628839289e-02 7.953922625588515984e+02
9.857188932568525241e-02 7.464238159200890550e+02
9.991300346508209806e-02 6.991743345469288897e+02
1.012541176044789437e-01 6.541253411079721900e+02
1.025952317438758032e-01 6.115297024150360130e+02
1.039363458832726350e-01 5.706577878903574401e+02
1.052774600226694945e-01 5.316882469180588942e+02
1.066185741620663541e-01 4.953837384600904556e+02
1.079596883014631858e-01 4.619595099376775806e+02
1.093008024408600454e-01 4.300741239738769650e+02
1.106419165802569049e-01 4.006830748398218702e+02
1.119830307196537506e-01 3.725775506770592074e+02
1.133241448590506101e-01 3.430608358820259127e+02
1.146652589984474419e-01 3.170680551258919877e+02
1.160063731378443014e-01 2.933063601231987150e+02
1.173474872772411609e-01 2.699747396826659269e+02
1.186886014166380066e-01 2.490166092036824352e+02
1.200297155560348661e-01 2.274650457537312036e+02
1.213708296954317256e-01 2.100036667787385340e+02
1.227119438348285574e-01 1.937114269748975062e+02
1.240530579742254169e-01 1.794446362479234267e+02
1.253941721136222764e-01 1.637456478172935590e+02
1.267352862530191082e-01 1.508244667738427438e+02
1.280764003924159677e-01 1.387448845079721877e+02
1.294175145318128273e-01 1.272100257655423690e+02
1.307586286712096590e-01 1.181365970493659461e+02
1.320997428106065186e-01 1.085040081340288509e+02
1.334408569500033781e-01 9.867174333223707094e+01
1.347819710894002376e-01 8.996745900851445299e+01
1.361230852287970972e-01 8.338466376978433914e+01
1.374641993681939289e-01 7.695373525584504648e+01
1.388053135075907885e-01 7.143686990653753810e+01
1.401464276469876480e-01 6.716154187479153848e+01
1.414875417863844798e-01 6.246144106754979930e+01
1.428286559257813393e-01 5.852315055097750474e+01
1.441697700651781988e-01 5.555106539601008819e+01
1.455108842045750306e-01 5.274196607068179787e+01
1.468519983439718901e-01 4.960269461099402122e+01
1.481931124833687219e-01 4.779325947477161662e+01
1.495342266227655814e-01 4.600386447438376081e+01
1.508753407621624687e-01 4.360950018948179263e+01
1.522164549015593005e-01 4.226696195735617323e+01
1.535575690409561600e-01 4.163250411270982454e+01
1.548986831803530195e-01 4.067821535861885707e+01
1.562397973197498513e-01 3.938148510540702318e+01
1.575809114591467108e-01 3.921469330132107700e+01
1.589220255985435704e-01 3.814782450847229711e+01
1.602631397379404021e-01 3.801909892873374019e+01
1.616042538773372617e-01 3.775971035416358745e+01
1.629453680167341212e-01 3.679031996682276429e+01
1.642864821561309530e-01 3.695969754784340466e+01
1.656275962955278125e-01 3.704310561274603231e+01
1.669687104349246720e-01 3.739215808717916900e+01
1.683098245743215315e-01 3.724282671315363302e+01
1.696509387137183911e-01 3.724206354206394565e+01
1.709920528531152228e-01 3.769884426486228790e+01
1.723331669925120824e-01 3.731664260071012507e+01
1.736742811319089419e-01 3.764581360897850004e+01
1.750153952713057737e-01 3.786838205733840823e+01
1.763565094107026332e-01 3.754923288168647133e+01
1.776976235500994927e-01 3.719442379922904252e+01
1.790387376894963245e-01 3.721854155228614047e+01
1.803798518288931840e-01 3.705742132016383295e+01
1.817209659682900158e-01 3.664320843164119879e+01
1.830620801076868753e-01 3.662176679869306639e+01
1.844031942470837349e-01 3.635930889079921968e+01
1.857443083864805944e-01 3.663434007368682899e+01
1.870854225258774539e-01 3.662349495513235809e+01
1.884265366652743134e-01 3.558511513363522027e+01
1.897676508046711452e-01 3.479748261091489070e+01
1.911087649440680047e-01 3.453325388338276980e+01
1.924498790834648643e-01 3.412651426929855347e+01
1.937909932228616960e-01 3.289097504298870689e+01
1.951321073622585556e-01 3.262806353368757328e+01
1.964732215016554151e-01 3.294786644892275262e+01
1.978143356410522469e-01 3.163320869211524666e+01
1.991554497804491064e-01 3.043039612299505592e+01
2.004965639198459382e-01 3.017510464666607817e+01
2.018376780592427977e-01 2.950756007762636557e+01
2.031787921986396572e-01 2.865059138319365672e+01
2.045199063380365168e-01 2.762845946467200520e+01
2.058610204774333763e-01 2.731872039995987222e+01
2.072021346168302081e-01 2.693929222314065441e+01
2.085432487562270676e-01 2.596622050587278352e+01
2.098843628956239271e-01 2.516273289279562420e+01
2.112254770350207866e-01 2.435141058567468519e+01
2.125665911744176462e-01 2.368611732583375584e+01
2.139077053138144502e-01 2.298801397338588970e+01
2.152488194532113097e-01 2.287699250905956916e+01
2.165899335926081692e-01 2.122159101515399016e+01
2.179310477320050288e-01 2.025775398505730607e+01
2.192721618714018883e-01 1.955154382946733449e+01
2.206132760107987478e-01 1.955260546555658863e+01
2.219543901501955796e-01 1.911103135324131586e+01
2.232955042895924391e-01 1.843096282645210948e+01
2.246366184289892987e-01 1.723169438536336884e+01
2.259777325683861582e-01 1.662777553496643179e+01
2.273188467077830177e-01 1.607642275592159820e+01
2.286599608471798217e-01 1.592232402136065161e+01
2.300010749865766813e-01 1.520833520822491636e+01
2.313421891259735408e-01 1.450030528794622597e+01
2.326833032653704003e-01 1.381396307808585533e+01
2.340244174047672598e-01 1.344707161630736891e+01
2.353655315441641194e-01 1.298058834573156872e+01
2.367066456835609234e-01 1.228546506664588378e+01
2.380477598229577829e-01 1.217377223580034951e+01
2.393888739623546424e-01 1.208228361635582360e+01
2.407299881017515020e-01 1.112421572036893025e+01
2.420711022411483615e-01 1.010513499525583825e+01
2.434122163805451933e-01 9.452714630878972457e+00
2.447533305199420528e-01 9.719451113483046356e+00
2.460944446593389123e-01 1.028811787440930203e+01
2.474355587987357719e-01 9.950176849335669260e+00
2.487766729381326314e-01 9.557293538409503242e+00
2.501177870775294632e-01 9.048312831334740736e+00
2.514589012169263227e-01 8.662848797026740044e+00
2.528000153563231822e-01 8.637555340602567355e+00
2.541411294957200417e-01 8.435198962799120181e+00
2.554822436351169013e-01 8.129871897368062150e+00
2.568233577745137608e-01 8.279107465136306132e+00
2.581644719139106203e-01 8.320663297112638190e+00
2.595055860533074243e-01 7.775083548553048729e+00
2.608467001927042839e-01 7.256033103258765493e+00
2.621878143321011434e-01 7.716761437759629416e+00
2.635289284714980029e-01 7.878517625724889228e+00
2.648700426108948625e-01 7.628671768234447370e+00
2.662111567502916665e-01 7.804667841599510325e+00
2.675522708896885260e-01 7.523778887743787891e+00
2.688933850290853855e-01 6.588950734719524860e+00
2.702344991684822451e-01 6.651942925517218441e+00
2.715756133078791046e-01 6.922579309526277314e+00
2.729167274472759641e-01 6.552957883503708558e+00
2.742578415866727681e-01 6.322838333175546666e+00
2.755989557260696277e-01 5.903933385859708949e+00
2.769400698654664872e-01 5.906739698140029304e+00
2.782811840048633467e-01 6.283642501196879948e+00
2.796222981442602062e-01 6.529727936563922697e+00
2.809634122836570103e-01 6.587588461147447561e+00
2.823045264230538698e-01 6.120464677290591737e+00
2.836456405624507293e-01 5.781356019261757240e+00
2.849867547018475888e-01 5.411566688560441207e+00
2.863278688412444484e-01 5.844504425838358941e+00
2.876689829806413079e-01 6.121771266945117418e+00
2.890100971200381674e-01 5.973868445564889385e+00
2.903512112594350270e-01 5.688358962822540832e+00
2.916923253988318865e-01 5.591598792180441535e+00
2.930334395382287460e-01 5.207399898656348114e+00
2.943745536776256055e-01 5.636294419854245064e+00
2.957156678170224096e-01 5.666129164615824720e+00
2.970567819564192691e-01 5.318054572276544434e+00
2.983978960958161286e-01 5.188881630822244517e+00
2.997390102352129881e-01 5.049241172611225181e+00
3.010801243746098477e-01 5.191393167220446969e+00
3.024212385140067072e-01 5.227556731623444364e+00
3.037623526534035112e-01 4.993488962440437717e+00
3.051034667928003707e-01 4.679404207550412309e+00
3.064445809321972303e-01 4.559554464344550695e+00
3.077856950715940898e-01 4.330990941966369689e+00
3.091268092109909493e-01 4.926955221386940309e+00
3.104679233503877533e-01 4.305496112342460435e+00
3.118090374897846129e-01 4.237707760231117504e+00
3.131501516291814724e-01 4.096416222257381889e+00
3.144912657685783319e-01 4.534744338818548215e+00
3.158323799079751915e-01 3.749439215894760480e+00
3.171734940473720510e-01 3.593823791841401771e+00
3.185146081867689105e-01 3.806005091423472209e+00
3.198557223261657700e-01 3.670493870054478691e+00
3.211968364655626296e-01 3.592394195907175458e+00
3.225379506049594891e-01 3.734666309816638829e+00
3.238790647443563486e-01 3.787809972291377392e+00
3.252201788837532082e-01 3.752384901217787672e+00
3.265612930231500122e-01 3.535767827799702445e+00
3.279024071625468717e-01 3.165039591072648761e+00
3.292435213019437312e-01 3.403987837257361093e+00
3.305846354413405908e-01 3.205946572224910085e+00
3.319257495807374503e-01 3.218684788800075580e+00
3.332668637201342543e-01 3.127654758937147506e+00
3.346079778595311138e-01 2.671765106310168392e+00
3.359490919989279734e-01 2.299100797828849352e+00
3.372902061383248329e-01 2.192018137386135379e+00
3.386313202777216924e-01 2.880875599469383985e+00
3.399724344171185519e-01 2.873841696183319527e+00
3.413135485565153560e-01 2.864016775918358348e+00
3.426546626959122155e-01 2.643945575996511366e+00
3.439957768353090750e-01 2.480704611129254999e+00
3.453368909747059345e-01 2.740941239479113278e+00
3.466780051141027941e-01 2.398618438209879855e+00
3.480191192534995981e-01 2.116361784462419848e+00
3.493602333928964576e-01 2.165396441151251850e+00
3.507013475322933171e-01 2.119470065995301411e+00
3.520424616716901767e-01 2.232161922142672950e+00
3.533835758110870362e-01 1.869379914148815658e+00
3.547246899504838957e-01 1.919210272628447456e+00
3.560658040898807553e-01 1.988696300000832196e+00
3.574069182292776148e-01 1.879577487961057614e+00
3.587480323686744743e-01 1.755770615547888269e+00
3.600891465080713338e-01 1.891383525694521950e+00
3.614302606474681934e-01 2.065522818104668090e+00
3.627713747868649974e-01 1.763225759606200427e+00
3.641124889262618569e-01 1.583789599160418504e+00
3.654536030656587164e-01 1.891196192370088625e+00
3.667947172050555760e-01 2.225900210105208998e+00
3.681358313444524355e-01 1.992110130435506221e+00
3.694769454838492950e-01 1.455070218534501691e+00
3.708180596232460990e-01 1.723815369517978979e+00
3.721591737626429586e-01 1.714319032026686784e+00
3.735002879020398181e-01 1.386440690214413962e+00
3.748414020414366776e-01 1.149488507244960545e+00
3.761825161808335372e-01 1.436399938149136801e+00
3.775236303202303967e-01 1.140306812970166561e+00
3.788647444596272007e-01 1.164598336191865258e+00
3.802058585990240602e-01 1.302319025607395986e+00
3.815469727384209198e-01 1.317792693888250710e+00
3.828880868778177793e-01 1.045944616272315386e+00
3.842292010172146388e-01 1.303130225754102867e+00
3.855703151566114428e-01 1.219658061352262735e+00
3.869114292960083024e-01 1.234942793202748135e+00
3.882525434354051619e-01 9.504224103647231914e-01
3.895936575748020214e-01 1.017792212630851623e+00
3.909347717141988809e-01 9.471890557453264137e-01
3.922758858535957405e-01 9.317049418569638419e-01
3.936169999929926000e-01 9.526689410416508963e-01
3.949581141323894595e-01 1.186220006265827465e+00
3.962992282717863191e-01 1.031291378491346222e+00
3.976403424111831786e-01 6.743848953580595662e-01
3.989814565505800381e-01 8.702847469630370369e-01
4.003225706899768976e-01 1.248765734348808110e+00
4.016636848293737572e-01 1.173671692814544087e+00
4.030047989687706167e-01 1.036746192503763098e+00
4.043459131081674207e-01 7.491642837337053606e-01
4.056870272475643358e-01 9.414212903262892951e-01
4.070281413869611398e-01 6.980859316174061746e-01
4.083692555263580548e-01 7.157550356163824290e-01
4.097103696657548588e-01 8.469715085540769905e-01
4.110514838051517739e-01 6.290299433248875971e-01
4.123925979445485779e-01 8.949048341592771294e-01
4.137337120839453819e-01 8.177556813258632928e-01
4.150748262233422969e-01 1.062768688875145529e+00
4.164159403627391010e-01 8.413915680422334731e-01
4.177570545021360160e-01 9.987064118577890781e-01
4.190981686415328200e-01 7.381191819541470522e-01
4.204392827809296240e-01 7.871528477048173045e-01
4.217803969203265391e-01 8.967830485906347349e-01
4.231215110597233431e-01 7.101839658935702460e-01
4.244626251991202581e-01 5.389104256088899092e-01
4.258037393385170621e-01 4.161556191822768369e-01
4.271448534779138662e-01 5.750551803355179459e-01
4.284859676173107812e-01 4.819165847441269079e-01
4.298270817567075852e-01 7.084408863244888721e-01
4.311681958961045003e-01 8.093668249775518575e-01
4.325093100355013043e-01 7.065922791039582762e-01
4.338504241748981638e-01 5.488216795886344812e-01
4.351915383142950233e-01 7.605532496011164767e-01
4.365326524536918829e-01 9.612456167820013775e-01
4.378737665930887424e-01 7.338173063977890820e-01
4.392148807324856019e-01 6.645304350076983724e-01
4.405559948718824614e-01 4.819191846171335669e-01
4.418971090112793210e-01 4.879907240931160572e-01
4.432382231506761250e-01 2.284438847415373175e-01
4.445793372900730400e-01 2.179386949260546658e-01
4.459204514294698440e-01 3.029195191013585031e-01
4.472615655688667591e-01 3.327536607320027429e-01
4.486026797082635631e-01 6.014406513375547547e-02
4.499437938476603671e-01 6.003452521206185111e-01
4.512849079870572822e-01 1.040056521424602920e+00
4.526260221264540862e-01 4.541547544072841447e-01
4.539671362658510012e-01 4.635764660625838474e-01
4.553082504052478052e-01 6.675740987299647600e-01
4.566493645446446092e-01 5.720217438467543047e-01
4.579904786840415243e-01 5.310936451759502575e-01
4.593315928234383283e-01 7.990276222225318747e-01
4.606727069628352433e-01 6.257133193772830282e-01
4.620138211022320474e-01 0.000000000000000000e+00
4.633549352416289624e-01 2.581269841983342417e-01
4.646960493810257664e-01 3.846683494850893226e-01
4.660371635204225704e-01 4.350961600502714077e-01
4.673782776598194855e-01 4.343713415865124716e-01
4.687193917992162895e-01 4.643835865488412651e-01
4.700605059386132045e-01 2.217325048847982316e-01
4.714016200780100085e-01 5.173067343741379887e-01
4.727427342174068681e-01 2.691750802101893214e-01
4.740838483568037276e-01 5.385543048930259147e-01
4.754249624962005871e-01 5.338179411597181456e-01
4.767660766355974467e-01 4.516636236056967846e-01
4.781071907749943062e-01 4.934544952277661878e-01
4.794483049143911102e-01 4.317145497362275819e-01
4.807894190537880252e-01 3.922858983344070793e-01
4.821305331931848293e-01 2.221423946992118204e-01
4.834716473325817443e-01 4.125250203782613312e-01
4.848127614719785483e-01 5.554268671154645176e-01
4.861538756113753523e-01 5.911867915397408524e-01
4.874949897507722674e-01 9.464070557049240051e-01
4.888361038901690714e-01 6.907507051364021322e-01
4.901772180295659864e-01 4.071187727813452284e-01
4.915183321689627904e-01 4.343595311971384376e-01
4.928594463083597055e-01 1.870293628344654735e-01
4.942005604477565095e-01 4.212613180018465187e-01
4.955416745871533135e-01 5.284633111490251167e-01
4.968827887265502286e-01 3.249498608213343687e-01
4.982239028659470326e-01 2.721024943685463882e-01
4.995650170053439476e-01 1.347331069277899473e-01
5.009061311447408071e-01 2.652555978525867886e-01
5.022472452841375556e-01 4.825361930272578093e-01
5.035883594235345262e-01 3.262270725514966330e-01
5.049294735629312747e-01 2.797672130844475191e-01
5.062705877023282452e-01 3.596881946543106778e-01
5.076117018417249938e-01 3.677433018539701948e-01
5.089528159811218533e-01 4.688387082553688856e-01
5.102939301205187128e-01 5.138496998342958477e-01
5.116350442599155723e-01 7.733659462558932773e-01
5.129761583993124319e-01 7.876023802738245649e-01
5.143172725387092914e-01 6.936305151220807375e-01
5.156583866781061509e-01 5.988283767666047197e-01
5.169995008175030105e-01 6.449704274744902932e-01
5.183406149568997590e-01 6.310059912791388115e-01
5.196817290962967295e-01 2.456441874010621973e-01
5.210228432356934780e-01 3.817775341414488821e-01
5.223639573750904486e-01 6.205878210941122575e-01
5.237050715144871971e-01 6.547981298796727856e-01
5.250461856538840566e-01 5.963722072865422774e-01
5.263872997932809161e-01 5.905729234106260606e-01
5.277284139326777757e-01 5.218355122845821370e-01
5.290695280720746352e-01 6.974248027008300710e-01
5.304106422114714947e-01 6.846607711979260102e-01
5.317517563508683542e-01 6.940615012162894004e-01
5.330928704902652138e-01 6.276740223240651062e-01
5.344339846296620733e-01 6.452501714809741884e-01
5.357750987690589328e-01 5.825317465269748141e-01
5.371162129084557924e-01 5.470211164041316465e-01
5.384573270478525409e-01 3.139380289138458124e-01
5.397984411872495114e-01 2.851736902838837295e-01
5.411395553266462599e-01 1.177243936218275167e-01
5.424806694660432305e-01 2.636004940340157532e-01
5.438217836054399790e-01 9.990246512536771206e-02
5.451628977448369495e-01 1.928874875821975365e-01
5.465040118842336980e-01 3.193626494628460932e-01
5.478451260236305576e-01 3.197412234447796209e-01
5.491862401630274171e-01 2.779230516183943678e-01
5.505273543024242766e-01 2.866562498781277668e-01
5.518684684418211361e-01 4.799676092642428671e-01
5.532095825812179957e-01 4.389062923768207725e-01
5.545506967206147442e-01 2.451470911694073607e-01
