# q (1/Angstrom), Intensity (arb)
2.029070354705860696e-02 5.187470573062773838e+01
2.133125244372399004e-02 4.600930997131007416e+01
2.237180134038937659e-02 4.008849692037057366e+01
2.341235023705475968e-02 3.392298769655866408e+01
2.445289913372014276e-02 3.127665232741787804e+01
2.549344803038552584e-02 2.889629114208926808e+01
2.653399692705091240e-02 2.680506858832440287e+01
2.757454582371629548e-02 2.605858924835024482e+01
2.861509472038167856e-02 2.368061018750232449e+01
2.965564361704706164e-02 2.181863859503768310e+01
3.069619251371244473e-02 2.066768129586631630e+01
3.173674141037782781e-02 1.942650351989000512e+01
3.277729030704321089e-02 1.937733083813208168e+01
3.381783920370859398e-02 1.893381804900556631e+01
3.485838810037397706e-02 1.886365970968156347e+01
3.589893699703936014e-02 1.800163825584044730e+01
3.693948589370474322e-02 1.812974439392460368e+01
3.798003479037012631e-02 1.801103681205069762e+01
3.902058368703550939e-02 1.712853118723081280e+01
4.006113258370089247e-02 1.692553335361797195e+01
4.110168148036627556e-02 1.689192847324449076e+01
4.214223037703165864e-02 1.689597155833849484e+01
4.318277927369704866e-02 1.697678896867232368e+01
4.422332817036243174e-02 1.704196775312775713e+01
4.526387706702781483e-02 1.640969772474659294e+01
4.630442596369319791e-02 1.597039178400350323e+01
4.734497486035858099e-02 1.633153537599146432e+01
4.838552375702396408e-02 1.703352869379549617e+01
4.942607265368934716e-02 1.694481752406102260e+01
5.046662155035473024e-02 1.666112847849453971e+01
5.150717044702011332e-02 1.655068554832985228e+01
5.254771934368549641e-02 1.748076178251843515e+01
5.358826824035087949e-02 1.800676461757394975e+01
5.462881713701626257e-02 1.816582033191321699e+01
5.566936603368164566e-02 1.819825711558976877e+01
5.670991493034702874e-02 1.882613863566799495e+01
5.775046382701241182e-02 1.928941420287937802e+01
5.879101272367779490e-02 2.031721238213501834e+01
5.983156162034317799e-02 2.150460790925210830e+01
6.087211051700856107e-02 2.278734814620999316e+01
6.191265941367394415e-02 2.420298095818174033e+01
6.295320831033933417e-02 2.593689657974374541e+01
6.399375720700471726e-02 2.767209869916552378e+01
6.503430610367010034e-02 2.926651725553228545e+01
6.607485500033548342e-02 3.120443127024062591e+01
6.711540389700086651e-02 3.382973975785882459e+01
6.815595279366624959e-02 3.537449001910924551e+01
6.919650169033163267e-02 3.670283664991142558e+01
7.023705058699701576e-02 3.753409933975972734e+01
7.127759948366239884e-02 3.995735774256627337e+01
7.231814838032778192e-02 4.602595952025581738e+01
7.335869727699316500e-02 6.086925189744645337e+01
7.439924617365854809e-02 9.800071184169163985e+01
7.543979507032393117e-02 1.737621139044980225e+02
7.648034396698931425e-02 2.609915728313414434e+02
7.752089286365469734e-02 3.522285893308035156e+02
7.856144176032008042e-02 5.597318793378523196e+02
7.960199065698546350e-02 9.895517278024454981e+02
8.064253955365084658e-02 1.266178646437886528e+03
8.168308845031622967e-02 9.606893773335949618e+02
8.272363734698161275e-02 5.141889873826652320e+02
8.376418624364699583e-02 3.097785996224462224e+02
8.480473514031239279e-02 2.339722326644419184e+02
8.584528403697777588e-02 1.917844038504696584e+02
8.688583293364315896e-02 1.613219589379534682e+02
8.792638183030854204e-02 1.384072385869534401e+02
8.896693072697392513e-02 1.219626014532822467e+02
9.000747962363930821e-02 1.163975072548642373e+02
9.104802852030469129e-02 1.279190823893622451e+02
9.208857741697007437e-02 1.500291055054538845e+02
9.312912631363545746e-02 1.491887310828853970e+02
9.416967521030084054e-02 1.033246074677581134e+02
9.521022410696622362e-02 5.291382475497886873e+01
9.625077300363160671e-02 2.692578718408640981e+01
9.729132190029698979e-02 1.649362077284128958e+01
9.833187079696237287e-02 1.164616088029648466e+01
9.937241969362775595e-02 8.880998835863081808e+00
1.004129685902931390e-01 7.556301372771230263e+00
1.014535174869585221e-01 6.430090299952183841e+00
1.024940663836239052e-01 4.695223391545596314e+00
1.035346152802892883e-01 3.683977185597072435e+00
1.045751641769546714e-01 2.871501600639696505e+00
1.056157130736200545e-01 2.412360460379105120e+00
1.066562619702854375e-01 1.862118460383769047e+00
1.076968108669508206e-01 2.345999623066333584e+00
1.087373597636162037e-01 2.471526937274994395e+00
1.097779086602815868e-01 2.329638561703731625e+00
1.108184575569469699e-01 2.162243245470264696e+00
1.118590064536123529e-01 1.626763602353911153e+00
1.128995553502777360e-01 1.635050489055025480e+00
1.139401042469431191e-01 1.934758640742536784e+00
1.149806531436085022e-01 1.636464425409343448e+00
1.160212020402738853e-01 2.157411242273731489e+00
1.170617509369392684e-01 2.192773789822545893e+00
1.181022998336046514e-01 2.223434907065865218e+00
1.191428487302700345e-01 1.889516374049193814e+00
1.201833976269354176e-01 1.985454878954982405e+00
1.212239465236008007e-01 2.358881477476067801e+00
1.222644954202661838e-01 2.521954006613924548e+00
1.233050443169315669e-01 2.967103385413061289e+00
1.243455932135969499e-01 2.918802739612154085e+00
1.253861421102623330e-01 3.440253291903950128e+00
1.264266910069277161e-01 4.128382657198308436e+00
1.274672399035930992e-01 5.672544749691933674e+00
1.285077888002584823e-01 9.787318135689602627e+00
1.295483376969238654e-01 1.800751327154183912e+01
1.305888865935892484e-01 3.150098396044348803e+01
1.316294354902546315e-01 3.869197526086196604e+01
1.326699843869200146e-01 3.099141809371311851e+01
1.337105332835853977e-01 1.836764236613357681e+01
1.347510821802507808e-01 1.056604806188759227e+01
1.357916310769161639e-01 7.780991487206200929e+00
1.368321799735815469e-01 6.879103692201855580e+00
1.378727288702469300e-01 6.814031647140833314e+00
1.389132777669123131e-01 6.516928564988326400e+00
1.399538266635776962e-01 6.427667413834328158e+00
1.409943755602430793e-01 6.672115278490490908e+00
1.420349244569084624e-01 6.512033141416271320e+00
1.430754733535738454e-01 6.526056092353066163e+00
1.441160222502392285e-01 6.521631914793850626e+00
1.451565711469046116e-01 6.165617493703255292e+00
1.461971200435699947e-01 6.334061627573404962e+00
1.472376689402353778e-01 6.745071759652276455e+00
1.482782178369007609e-01 7.472487730719894472e+00
1.493187667335661439e-01 9.825501551349216101e+00
1.503593156302315270e-01 1.421711826341897833e+01
1.513998645268969101e-01 2.432665351544461174e+01
1.524404134235622932e-01 4.218592214989860167e+01
1.534809623202276763e-01 6.439451373163780090e+01
1.545215112168930593e-01 7.086104236994296457e+01
1.555620601135584424e-01 5.356380733868018496e+01
1.566026090102238255e-01 3.240745530013667519e+01
1.576431579068892086e-01 2.038874854770014267e+01
1.586837068035545917e-01 1.705016975685802549e+01
1.597242557002199748e-01 1.781829642485463694e+01
1.607648045968853578e-01 1.931599117932534782e+01
1.618053534935507409e-01 1.645138810361840953e+01
1.628459023902161240e-01 1.037109164340921552e+01
1.638864512868815071e-01 5.841122405629722181e+00
1.649270001835468902e-01 3.905862145926551676e+00
1.659675490802122733e-01 2.482531613031486728e+00
1.670080979768776563e-01 2.184544679386725363e+00
1.680486468735430672e-01 2.167726581583728773e+00
1.690891957702084503e-01 1.323654793179347422e+00
1.701297446668738333e-01 1.005079600381336036e+00
1.711702935635392164e-01 1.279589707319814806e+00
1.722108424602045995e-01 1.334291369641153580e+00
1.732513913568699826e-01 1.386930434820637714e+00
1.742919402535353657e-01 1.312919729077471231e+00
1.753324891502007488e-01 1.076577521478103705e+00
1.763730380468661318e-01 1.101926453534556316e+00
1.774135869435315149e-01 1.265696855522836728e+00
1.784541358401968980e-01 1.206499601752856421e+00
1.794946847368622811e-01 9.415398581840719316e-01
1.805352336335276642e-01 9.487502988374139079e-01
1.815757825301930473e-01 5.258637973249733477e-01
1.826163314268584303e-01 8.261531090302689506e-01
1.836568803235238134e-01 1.030639984881034366e+00
1.846974292201891965e-01 9.974671766480547319e-01
1.857379781168545796e-01 9.225932001181398334e-01
1.867785270135199627e-01 8.503217067263726392e-01
1.878190759101853458e-01 9.539798598032689370e-01
1.888596248068507288e-01 6.740502815705156081e-01
1.899001737035161119e-01 6.097357638912512812e-01
1.909407226001814950e-01 5.784685403075258137e-01
1.919812714968468781e-01 8.465082290651544383e-01
1.930218203935122612e-01 9.098815942725835271e-01
1.940623692901776443e-01 6.920361065468192407e-01
1.951029181868430273e-01 5.670355227787489127e-01
1.961434670835084104e-01 4.269763033758877668e-01
1.971840159801737935e-01 4.645523065381169658e-01
1.982245648768391766e-01 4.578510580591661494e-01
1.992651137735045597e-01 5.016793477033765214e-01
2.003056626701699428e-01 6.155800622407916478e-01
2.013462115668353813e-01 1.116178280468346884e+00
2.023867604635007644e-01 1.676917918174687827e+00
2.034273093601661475e-01 1.945653183667229058e+00
2.044678582568315306e-01 1.989727821222512461e+00
2.055084071534969137e-01 2.541433073346695437e+00
2.065489560501622968e-01 2.885345163651471978e+00
2.075895049468276798e-01 2.865846434069556636e+00
2.086300538434930629e-01 2.470962581636580779e+00
2.096706027401584460e-01 1.987406634157800056e+00
2.107111516368238291e-01 1.633745467273538310e+00
2.117517005334892122e-01 1.476070274392412784e+00
2.127922494301545953e-01 1.229300378921717396e+00
2.138327983268199783e-01 1.180902818827433975e+00
2.148733472234853614e-01 1.197701421332329375e+00
2.159138961201507445e-01 9.434963042438830882e-01
2.169544450168161276e-01 1.040738286476560859e+00
2.179949939134815107e-01 1.000281134438626651e+00
2.190355428101468938e-01 8.728000161538034263e-01
2.200760917068122768e-01 8.792270692177872604e-01
2.211166406034776599e-01 1.351532884072735641e+00
2.221571895001430430e-01 1.320553997987133243e+00
2.231977383968084261e-01 1.450623398804356867e+00
2.242382872934738092e-01 1.900816352770345219e+00
2.252788361901391923e-01 2.487570616773719934e+00
2.263193850868045753e-01 3.417056934494933529e+00
2.273599339834699584e-01 4.131664904458599352e+00
2.284004828801353415e-01 3.820291255634277405e+00
2.294410317768007246e-01 3.217568180691330326e+00
2.304815806734661077e-01 2.455004282315123021e+00
2.315221295701314908e-01 1.707913457472642449e+00
2.325626784667968738e-01 1.736986394961974156e+00
2.336032273634622569e-01 1.652646570499808121e+00
2.346437762601276400e-01 1.392042091599311249e+00
2.356843251567930231e-01 1.545801533804318950e+00
2.367248740534584062e-01 1.718944511171635270e+00
2.377654229501237892e-01 1.996949670219908768e+00
2.388059718467891723e-01 2.484937617134011845e+00
2.398465207434545554e-01 3.090535709492773009e+00
2.408870696401199385e-01 3.836486005522800724e+00
2.419276185367853216e-01 3.961021318362231369e+00
2.429681674334507047e-01 3.299642106804164143e+00
2.440087163301160877e-01 2.253499965299113228e+00
2.450492652267814708e-01 1.445792584445293016e+00
2.460898141234468539e-01 9.720264087925620800e-01
2.471303630201122370e-01 6.371887043338375634e-01
2.481709119167776201e-01 4.557599769279399027e-01
2.492114608134430032e-01 6.569500646109709407e-01
2.502520097101083585e-01 7.822652506391563065e-01
2.512925586067737416e-01 7.366676121399287069e-01
2.523331075034391247e-01 5.830815949010172972e-01
2.533736564001045077e-01 8.945747401443497893e-01
2.544142052967698908e-01 7.562609720997244267e-01
2.554547541934352739e-01 6.994102987819488249e-01
2.564953030901006570e-01 4.935450855111049862e-01
2.575358519867660401e-01 2.023115179574332956e-01
2.585764008834314231e-01 3.773764292692014521e-01
2.596169497800968062e-01 5.704432236462402273e-01
2.606574986767621893e-01 3.419841447308442639e-01
2.616980475734275724e-01 5.115468631716879599e-01
2.627385964700929555e-01 7.796469491302033816e-01
2.637791453667583386e-01 5.657714578224677382e-01
2.648196942634237216e-01 6.225505039715457656e-01
2.658602431600891047e-01 4.979585281006428943e-01
2.669007920567544878e-01 3.387370487455712009e-01
2.679413409534198709e-01 2.536040793870775190e-01
2.689818898500852540e-01 2.091009192362314195e-01
2.700224387467506371e-01 1.425505194570213519e-01
2.710629876434160201e-01 3.503391422363115737e-01
2.721035365400814032e-01 3.435821469969688735e-01
2.731440854367467863e-01 4.054523972819126243e-01
2.741846343334121694e-01 5.347786984929356890e-01
2.752251832300775525e-01 4.149249929264229309e-01
2.762657321267429356e-01 2.183999971784196248e-01
2.773062810234083186e-01 4.470329064481184389e-01
2.783468299200737017e-01 3.627019619009566043e-01
2.793873788167390848e-01 2.459815899815325224e-01
2.804279277134044679e-01 4.404092054012274104e-01
2.814684766100698510e-01 2.882424140144586033e-01
2.825090255067352341e-01 9.510394065300076250e-02
2.835495744034006171e-01 2.821508447936693642e-02
2.845901233000660002e-01 5.875679903156694195e-02
2.856306721967313833e-01 2.863107569088114701e-01
2.866712210933967664e-01 2.821106519164899851e-01
2.877117699900621495e-01 4.227637475177949966e-01
2.887523188867275326e-01 4.313585970357607380e-01
2.897928677833929156e-01 3.594777707024583435e-01
2.908334166800582987e-01 7.067901807619243471e-01
2.918739655767236818e-01 8.707357046960595426e-01
2.929145144733890649e-01 6.653078169446047241e-01
2.939550633700544480e-01 5.495421762262679977e-01
2.949956122667198311e-01 6.334023446888572551e-01
2.960361611633852141e-01 5.421669107376771990e-01
2.970767100600505972e-01 6.456651157873665170e-01
2.981172589567159803e-01 5.981241840703006574e-01
2.991578078533813634e-01 6.535047930518977921e-01
3.001983567500468020e-01 5.400280848106824294e-01
3.012389056467121851e-01 5.282447086461736774e-01
3.022794545433775681e-01 6.419193747896478897e-01
3.033200034400429512e-01 9.337069106755606640e-01
3.043605523367083343e-01 1.041448115444989497e+00
3.054011012333737174e-01 1.219395470212074173e+00
3.064416501300391005e-01 1.053424890835419347e+00
3.074821990267044836e-01 9.190204800796735185e-01
3.085227479233698666e-01 8.244307465237703525e-01
3.095632968200352497e-01 6.498194207323422233e-01
3.106038457167006328e-01 7.019262061190190138e-01
3.116443946133660159e-01 6.080834910357708623e-01
3.126849435100313990e-01 7.987319770889982351e-01
3.137254924066967821e-01 6.818021319590634732e-01
3.147660413033621651e-01 6.542970033032702304e-01
3.158065902000275482e-01 7.827617392832060261e-01
3.168471390966929313e-01 4.488382944328144220e-01
3.178876879933583144e-01 3.997179205882517294e-01
3.189282368900236975e-01 5.545631873757521646e-01
3.199687857866890806e-01 5.748413634750271228e-01
3.210093346833544636e-01 6.109479579361973833e-01
3.220498835800198467e-01 5.529541777956161752e-01
3.230904324766852298e-01 4.587929414134528372e-01
3.241309813733506129e-01 3.531834740748394097e-01
3.251715302700159960e-01 3.031439582757613493e-01
3.262120791666813790e-01 4.547000202599420504e-01
3.272526280633467621e-01 5.574624354114554592e-01
3.282931769600121452e-01 7.798004645002691859e-01
3.293337258566775283e-01 7.984013551019835120e-01
3.303742747533429114e-01 6.104513502153672277e-01
3.314148236500082945e-01 6.431712955353532379e-01
3.324553725466736775e-01 9.208507495751483418e-01
3.334959214433390606e-01 8.612606798921582651e-01
3.345364703400044437e-01 7.554034263774020985e-01
3.355770192366698268e-01 6.619395663620295522e-01
3.366175681333352099e-01 6.203204012009777557e-01
3.376581170300005930e-01 5.383349690372902785e-01
3.386986659266659760e-01 4.866821773882747948e-01
3.397392148233313591e-01 5.019067377498664939e-01
3.407797637199967422e-01 5.475344786493856475e-01
3.418203126166621253e-01 7.627605454051860079e-01
3.428608615133275084e-01 5.119661865238711584e-01
3.439014104099928915e-01 1.984279745292774066e-01
3.449419593066582745e-01 1.081253711825524988e-02
3.459825082033236576e-01 1.577741094926778942e-01
3.470230570999890407e-01 3.456739450508088396e-01
3.480636059966544238e-01 3.634906290530146578e-01
3.491041548933198069e-01 3.405685631762054300e-01
3.501447037899851900e-01 4.481471265512055879e-01
3.511852526866505730e-01 3.650604950509652724e-01
3.522258015833159561e-01 2.540789458024583780e-01
3.532663504799813392e-01 0.000000000000000000e+00
3.543068993766467223e-01 2.416607863701365488e-01
3.553474482733121054e-01 5.557261362447043496e-01
3.563879971699774885e-01 4.705514489359359231e-01
3.574285460666428715e-01 4.189916165825628980e-01
3.584690949633082546e-01 3.523731733195631932e-01
3.595096438599736377e-01 4.922177127944955544e-01
3.605501927566390208e-01 3.478866079910076792e-01
3.615907416533044039e-01 2.469902142174476012e-01
3.626312905499697870e-01 2.762646486121589362e-01
3.636718394466351700e-01 2.523828076323724190e-01
3.647123883433005531e-01 3.693635840032456485e-01
3.657529372399659362e-01 4.729403291003038134e-01
3.667934861366313193e-01 3.228751377499463615e-01
3.678340350332967024e-01 3.423221426470206552e-01
3.688745839299620854e-01 2.256688192208855526e-01
3.699151328266274685e-01 1.931277032920775127e-01
3.709556817232928516e-01 3.796442900539602761e-01
3.719962306199582347e-01 1.782869405115690142e-01
3.730367795166236178e-01 2.305489729994398829e-01
3.740773284132890009e-01 4.534350159652689172e-01
3.751178773099543839e-01 4.867241527752881325e-01
3.761584262066197670e-01 5.013760356416021580e-01
3.771989751032851501e-01 5.581082825935084202e-01
3.782395239999505332e-01 5.700899228408680131e-01
3.792800728966159163e-01 4.223935379980368054e-01
3.803206217932812994e-01 4.886450262704471470e-01
3.813611706899466824e-01 5.193656666057400173e-01
3.824017195866120655e-01 5.666471500495013913e-01
3.834422684832774486e-01 5.830401691061837255e-01
3.844828173799428317e-01 5.839226670205448499e-01
3.855233662766082148e-01 5.492663578517174017e-01
3.865639151732735979e-01 3.781452805142926366e-01
3.876044640699389809e-01 3.696724827771120658e-01
3.886450129666043640e-01 3.855411393235144146e-01
3.896855618632697471e-01 1.204909211396021362e-01
3.907261107599351302e-01 2.970915295489611196e-01
3.917666596566005133e-01 4.717853717913165212e-01
3.928072085532658964e-01 5.856779135938836589e-01
3.938477574499312794e-01 3.562395572004248834e-01
3.948883063465966625e-01 4.345515824082788470e-01
3.959288552432620456e-01 3.851955943588905029e-01
3.969694041399274287e-01 3.852979500061586293e-01
3.980099530365928118e-01 2.752192258246992651e-01
3.990505019332581949e-01 4.071696969219225082e-01
4.000910508299235779e-01 4.733574833281828376e-01
4.011315997265889610e-01 4.246098277221790340e-01
4.021721486232543441e-01 4.778448290765915374e-01
4.032126975199197272e-01 6.780057850227052541e-01
4.042532464165851103e-01 5.140649283543048398e-01
4.052937953132504934e-01 6.459596545565382542e-01
4.063343442099158764e-01 7.930505300586361273e-01
4.073748931065812595e-01 6.483402747611215489e-01
4.084154420032466426e-01 5.698196069836178879e-01
4.094559908999120257e-01 5.456407680002861582e-01
4.104965397965774088e-01 4.140755362118682115e-01
4.115370886932427918e-01 4.984545639646036364e-01
4.125776375899081749e-01 3.365670600977992422e-01
4.136181864865735580e-01 1.491472007609502270e-01
4.146587353832389411e-01 2.329316734466324590e-01
4.156992842799043242e-01 3.513771237562863803e-01
4.167398331765697073e-01 4.232472188434499571e-01
4.177803820732350903e-01 4.099723288320902270e-01
4.188209309699004734e-01 3.219180339276555003e-01
4.198614798665658565e-01 2.393877548987290993e-01
4.209020287632312396e-01 3.437039460587598683e-01
4.219425776598966227e-01 5.475392439006583345e-01
4.229831265565620058e-01 5.952880179516917281e-01
4.240236754532273888e-01 4.575308878523500766e-01
4.250642243498927719e-01 5.363587790141153278e-01
4.261047732465581550e-01 4.866437979565851890e-01
4.271453221432235381e-01 3.593456538600783290e-01
4.281858710398889212e-01 2.904347240270901409e-01
4.292264199365543043e-01 4.978123564983789606e-01
4.302669688332196873e-01 4.657734222099421117e-01
4.313075177298850704e-01 5.234467709685546311e-01
4.323480666265504535e-01 4.041068405980254852e-01
4.333886155232158366e-01 2.393239715932509171e-01
4.344291644198812197e-01 2.829550607922541872e-01
