# q (1/Angstrom), Intensity (arb)
2.029070354705860696e-02 4.229515838621704233e+02
2.133125244372399004e-02 3.508379273627028851e+02
2.237180134038937659e-02 2.916617897177042096e+02
2.341235023705475968e-02 2.427335594610654539e+02
2.445289913372014276e-02 2.048968350821077138e+02
2.549344803038552584e-02 1.794659059259305423e+02
2.653399692705091240e-02 1.599744716374249265e+02
2.757454582371629548e-02 1.407688386941664191e+02
2.861509472038167856e-02 1.248824197382525938e+02
2.965564361704706164e-02 1.122837042540454320e+02
3.069619251371244473e-02 1.036955109515690481e+02
3.173674141037782781e-02 9.553130296060950855e+01
3.277729030704321089e-02 8.913271773277494958e+01
3.381783920370859398e-02 8.117166346758638440e+01
3.485838810037397706e-02 7.405555179205994420e+01
3.589893699703936014e-02 6.971873878615905085e+01
3.693948589370474322e-02 6.787151712645173518e+01
3.798003479037012631e-02 6.629502817534859105e+01
3.902058368703550939e-02 6.356584070671823383e+01
4.006113258370089247e-02 6.070637302113922829e+01
4.110168148036627556e-02 5.745098924837628829e+01
4.214223037703165864e-02 5.576557719983458128e+01
4.318277927369704866e-02 5.470713179288181038e+01
4.422332817036243174e-02 5.394598204784080053e+01
4.526387706702781483e-02 5.237154934708584619e+01
4.630442596369319791e-02 5.247502745395635770e+01
4.734497486035858099e-02 5.115990317065522675e+01
4.838552375702396408e-02 5.146679085705679313e+01
4.942607265368934716e-02 5.220565866826841273e+01
5.046662155035473024e-02 5.223805306283463779e+01
5.150717044702011332e-02 5.305738004357391446e+01
5.254771934368549641e-02 5.515161171306868937e+01
5.358826824035087949e-02 5.560319958076898672e+01
5.462881713701626257e-02 5.774045856991182291e+01
5.566936603368164566e-02 6.043355614347655091e+01
5.670991493034702874e-02 6.342872122452966721e+01
5.775046382701241182e-02 6.382328886739007601e+01
5.879101272367779490e-02 6.686178903327883916e+01
5.983156162034317799e-02 7.166666084737380515e+01
6.087211051700856107e-02 7.647829238898664528e+01
6.191265941367394415e-02 8.216319034762305762e+01
6.295320831033933417e-02 8.975610213693401818e+01
6.399375720700471726e-02 9.731730062271242332e+01
6.503430610367010034e-02 1.048094943795189238e+02
6.607485500033548342e-02 1.116395803475402317e+02
6.711540389700086651e-02 1.186960962677559763e+02
6.815595279366624959e-02 1.272726749123883963e+02
6.919650169033163267e-02 1.336824360073828188e+02
7.023705058699701576e-02 1.460774729063658128e+02
7.127759948366239884e-02 1.687292412722098902e+02
7.231814838032778192e-02 2.201134427406553868e+02
7.335869727699316500e-02 3.547964813605346990e+02
7.439924617365854809e-02 6.095505964082782384e+02
7.543979507032393117e-02 9.106458784279813017e+02
7.648034396698931425e-02 1.250157167090140774e+03
7.752089286365469734e-02 2.044771984038636901e+03
7.856144176032008042e-02 3.475523700542377810e+03
7.960199065698546350e-02 4.194499396921782136e+03
8.064253955365084658e-02 3.110836618283904500e+03
8.168308845031622967e-02 1.718434229435174075e+03
8.272363734698161275e-02 1.066665154133097531e+03
8.376418624364699583e-02 8.159573831733673615e+02
8.480473514031239279e-02 6.727737499307634153e+02
8.584528403697777588e-02 5.673321001611011525e+02
8.688583293364315896e-02 4.936155517063185698e+02
8.792638183030854204e-02 4.465575415815039264e+02
8.896693072697392513e-02 4.422249384970152164e+02
9.000747962363930821e-02 4.999734591330338844e+02
9.104802852030469129e-02 5.727347525667410082e+02
9.208857741697007437e-02 5.200891607927566156e+02
9.312912631363545746e-02 3.373984539722858358e+02
9.416967521030084054e-02 1.762092515695676411e+02
9.521022410696622362e-02 9.759007411096420981e+01
9.625077300363160671e-02 6.503440803957568050e+01
9.729132190029698979e-02 4.787004874900362950e+01
9.833187079696237287e-02 3.702254509154367668e+01
9.937241969362775595e-02 3.021460079319399483e+01
1.004129685902931390e-01 2.530143566522748699e+01
1.014535174869585221e-01 2.226925507597451315e+01
1.024940663836239052e-01 1.989982589040052119e+01
1.035346152802892883e-01 1.786485097512711206e+01
1.045751641769546714e-01 1.671198264590348970e+01
1.056157130736200545e-01 1.511173524162988002e+01
1.066562619702854375e-01 1.371974286660569220e+01
1.076968108669508206e-01 1.302335488604268932e+01
1.087373597636162037e-01 1.207142981216931332e+01
1.097779086602815868e-01 1.192431889693003200e+01
1.108184575569469699e-01 1.153572245372184568e+01
1.118590064536123529e-01 1.085582482344344868e+01
1.128995553502777360e-01 1.088077885320952731e+01
1.139401042469431191e-01 1.057061961378092008e+01
1.149806531436085022e-01 1.138101232509959004e+01
1.160212020402738853e-01 1.143212309862063591e+01
1.170617509369392684e-01 1.159080626810936820e+01
1.181022998336046514e-01 1.144079730765989211e+01
1.191428487302700345e-01 1.067856208578770350e+01
1.201833976269354176e-01 1.142883105819819178e+01
1.212239465236008007e-01 1.200268994167157643e+01
1.222644954202661838e-01 1.246657723357447622e+01
1.233050443169315669e-01 1.317079001744153288e+01
1.243455932135969499e-01 1.527207071906744318e+01
1.253861421102623330e-01 1.762422301504023636e+01
1.264266910069277161e-01 2.581826782759747374e+01
1.274672399035930992e-01 4.442053929371112986e+01
1.285077888002584823e-01 7.554488270215406942e+01
1.295483376969238654e-01 9.976303540396456526e+01
1.305888865935892484e-01 8.934560587782760877e+01
1.316294354902546315e-01 5.874417797460507273e+01
1.326699843869200146e-01 3.644761946656091567e+01
1.337105332835853977e-01 2.759471042163615806e+01
1.347510821802507808e-01 2.427344398530971858e+01
1.357916310769161639e-01 2.277906115103143492e+01
1.368321799735815469e-01 2.241414271762701560e+01
1.378727288702469300e-01 2.174210055337010772e+01
1.389132777669123131e-01 2.199751688719234011e+01
1.399538266635776962e-01 2.226864404257803187e+01
1.409943755602430793e-01 2.299023775786481139e+01
1.420349244569084624e-01 2.340911307630388904e+01
1.430754733535738454e-01 2.344569950075646148e+01
1.441160222502392285e-01 2.460645424910540413e+01
1.451565711469046116e-01 2.591553538514716593e+01
1.461971200435699947e-01 2.860359373630679869e+01
1.472376689402353778e-01 3.606040767025434235e+01
1.482782178369007609e-01 5.214610071941219616e+01
1.493187667335661439e-01 8.738334717848015032e+01
1.503593156302315270e-01 1.491086721536273672e+02
1.513998645268969101e-01 2.127451765556279497e+02
1.524404134235622932e-01 2.231077929325189189e+02
1.534809623202276763e-01 1.697690426383972522e+02
1.545215112168930593e-01 1.077630407391357892e+02
1.555620601135584424e-01 7.186081005090761664e+01
1.566026090102238255e-01 6.127082001250965959e+01
1.576431579068892086e-01 6.447797473008623115e+01
1.586837068035545917e-01 6.603091661429303372e+01
1.597242557002199748e-01 5.413656985700269075e+01
1.607648045968853578e-01 3.518630616029544456e+01
1.618053534935507409e-01 2.184371408930432068e+01
1.628459023902161240e-01 1.469126260688838670e+01
1.638864512868815071e-01 1.026532462370906984e+01
1.649270001835468902e-01 8.955898441878858307e+00
1.659675490802122733e-01 8.387138583741162279e+00
1.670080979768776563e-01 7.299765992583260754e+00
1.680486468735430672e-01 7.088098198650882864e+00
1.690891957702084503e-01 6.715635069612396535e+00
1.701297446668738333e-01 5.726842917822160928e+00
1.711702935635392164e-01 5.383559209297636983e+00
1.722108424602045995e-01 4.893480672077480165e+00
1.732513913568699826e-01 4.805869628059632248e+00
1.742919402535353657e-01 4.859412569570999096e+00
1.753324891502007488e-01 5.046606262192000258e+00
1.763730380468661318e-01 5.272917396640174559e+00
1.774135869435315149e-01 4.833618190597327668e+00
1.784541358401968980e-01 4.240097268001228770e+00
1.794946847368622811e-01 3.807017678015348849e+00
1.805352336335276642e-01 4.350629779117937801e+00
1.815757825301930473e-01 4.571629771962967936e+00
1.826163314268584303e-01 4.557468629303180307e+00
1.836568803235238134e-01 5.032838636102674457e+00
1.846974292201891965e-01 5.042567513958701397e+00
1.857379781168545796e-01 4.289967161018537922e+00
1.867785270135199627e-01 3.663893749463305483e+00
1.878190759101853458e-01 3.461995079392806929e+00
1.888596248068507288e-01 3.095972699001322326e+00
1.899001737035161119e-01 2.866053858797073417e+00
1.909407226001814950e-01 2.497829765560759085e+00
1.919812714968468781e-01 2.536077707865189268e+00
1.930218203935122612e-01 2.733037337504228503e+00
1.940623692901776443e-01 2.134588362624448621e+00
1.951029181868430273e-01 1.871260825898040991e+00
1.961434670835084104e-01 2.311922521077853787e+00
1.971840159801737935e-01 2.676283242599161838e+00
1.982245648768391766e-01 3.029746227939483560e+00
1.992651137735045597e-01 3.218515587572078118e+00
2.003056626701699428e-01 3.172519700080719929e+00
2.013462115668353813e-01 3.925058474527169494e+00
2.023867604635007644e-01 4.571036443388678094e+00
2.034273093601661475e-01 5.477163462099049696e+00
2.044678582568315306e-01 6.128275722717077656e+00
2.055084071534969137e-01 5.792939434131838539e+00
2.065489560501622968e-01 4.791521450898763135e+00
2.075895049468276798e-01 3.555557329491811913e+00
2.086300538434930629e-01 3.385041417462801405e+00
2.096706027401584460e-01 3.177220816919771096e+00
2.107111516368238291e-01 2.883506564866884503e+00
2.117517005334892122e-01 3.075275230693357287e+00
2.127922494301545953e-01 2.797780994512940822e+00
2.138327983268199783e-01 2.830935260903601147e+00
2.148733472234853614e-01 2.825802437938399692e+00
2.159138961201507445e-01 3.072718112406569446e+00
2.169544450168161276e-01 3.256485887650967470e+00
2.179949939134815107e-01 3.219929204387106836e+00
2.190355428101468938e-01 3.353136241307453247e+00
2.200760917068122768e-01 4.630311065235240164e+00
2.211166406034776599e-01 5.834561396915397324e+00
2.221571895001430430e-01 8.361852535856883151e+00
2.231977383968084261e-01 1.081732129181004609e+01
2.242382872934738092e-01 1.310642592281090657e+01
2.252788361901391923e-01 1.228110809738615927e+01
2.263193850868045753e-01 9.880569965378256825e+00
2.273599339834699584e-01 7.393640523657211361e+00
2.284004828801353415e-01 6.188504141731776542e+00
2.294410317768007246e-01 5.817798390357147298e+00
2.304815806734661077e-01 4.922374659980945921e+00
2.315221295701314908e-01 5.124864916083794242e+00
2.325626784667968738e-01 5.573334273333117039e+00
2.336032273634622569e-01 6.157393194655931268e+00
2.346437762601276400e-01 6.620028587426418198e+00
2.356843251567930231e-01 9.140426800036607347e+00
2.367248740534584062e-01 1.190033794068634165e+01
2.377654229501237892e-01 1.339399840551125465e+01
2.388059718467891723e-01 1.276157555220320461e+01
2.398465207434545554e-01 1.014745564023927926e+01
2.408870696401199385e-01 6.864033309013947814e+00
2.419276185367853216e-01 5.137901075097140335e+00
2.429681674334507047e-01 3.515517274078426624e+00
2.440087163301160877e-01 2.757388028060120178e+00
2.450492652267814708e-01 2.297686187587594020e+00
2.460898141234468539e-01 2.114218570718229273e+00
2.471303630201122370e-01 1.561689556280157376e+00
2.481709119167776201e-01 1.683148430214764346e+00
2.492114608134430032e-01 1.624692883685582956e+00
2.502520097101083585e-01 1.547683233003034786e+00
2.512925586067737416e-01 1.322891462682115105e+00
2.523331075034391247e-01 1.922460053536376279e+00
2.533736564001045077e-01 1.585194658195817397e+00
2.544142052967698908e-01 1.443793467697204846e+00
2.554547541934352739e-01 1.386953397030410429e+00
2.564953030901006570e-01 1.090115974017145106e+00
2.575358519867660401e-01 1.366647013308778469e+00
2.585764008834314231e-01 1.393283467055624669e+00
2.596169497800968062e-01 1.612339226159186012e+00
2.606574986767621893e-01 1.618346004373151459e+00
2.616980475734275724e-01 1.414942972792850640e+00
2.627385964700929555e-01 1.019072063927943361e+00
2.637791453667583386e-01 8.550562393207101763e-01
2.648196942634237216e-01 7.547480571587641407e-01
2.658602431600891047e-01 1.208087983018671707e+00
2.669007920567544878e-01 1.423759522521166332e+00
2.679413409534198709e-01 1.089234655255737039e+00
2.689818898500852540e-01 9.226437918996950316e-01
2.700224387467506371e-01 1.019679885972685440e+00
2.710629876434160201e-01 1.363758735077652773e+00
2.721035365400814032e-01 1.258301055735401519e+00
2.731440854367467863e-01 9.378949772519220573e-01
2.741846343334121694e-01 7.672421497407171387e-01
2.752251832300775525e-01 1.201204040463935030e+00
2.762657321267429356e-01 9.371211935908618784e-01
2.773062810234083186e-01 3.923930746766188804e-01
2.783468299200737017e-01 7.658295614688981345e-01
2.793873788167390848e-01 6.027203798132489965e-01
2.804279277134044679e-01 7.620786434833348721e-01
2.814684766100698510e-01 6.552233015417101569e-01
2.825090255067352341e-01 7.420774629794522070e-01
2.835495744034006171e-01 7.823794394408309927e-01
2.845901233000660002e-01 6.824893064826440536e-01
2.856306721967313833e-01 7.049471733443510857e-01
2.866712210933967664e-01 9.672922578801035343e-01
2.877117699900621495e-01 1.080400702053417206e+00
2.887523188867275326e-01 8.869562671187125602e-01
2.897928677833929156e-01 8.885999030053781667e-01
2.908334166800582987e-01 9.275402978175364410e-01
2.918739655767236818e-01 7.534947617264720066e-01
2.929145144733890649e-01 9.097783782601212010e-01
2.939550633700544480e-01 8.785080166333472107e-01
2.949956122667198311e-01 1.029413494837406517e+00
2.960361611633852141e-01 1.494087780933568865e+00
2.970767100600505972e-01 1.645176354495156090e+00
2.981172589567159803e-01 1.450451642504191341e+00
2.991578078533813634e-01 1.808253173650591350e+00
3.001983567500468020e-01 2.254813892873912096e+00
3.012389056467121851e-01 2.315634546113869874e+00
3.022794545433775681e-01 1.987187154404800538e+00
3.033200034400429512e-01 2.311263382796020949e+00
3.043605523367083343e-01 2.744539683339809244e+00
3.054011012333737174e-01 1.890471906128411206e+00
3.064416501300391005e-01 1.553774224859786557e+00
3.074821990267044836e-01 1.691863734380611106e+00
3.085227479233698666e-01 1.242253885566682925e+00
3.095632968200352497e-01 1.139242558549270257e+00
3.106038457167006328e-01 9.006986370070677594e-01
3.116443946133660159e-01 4.279283882655988691e-01
3.126849435100313990e-01 7.921253906986365223e-01
3.137254924066967821e-01 1.117307422955171603e+00
3.147660413033621651e-01 1.379915948580510587e+00
3.158065902000275482e-01 1.478942922330169552e+00
3.168471390966929313e-01 9.556146916482646247e-01
3.178876879933583144e-01 8.048524886309991189e-01
3.189282368900236975e-01 7.100711386782379009e-01
3.199687857866890806e-01 5.666993717384016804e-01
3.210093346833544636e-01 6.879752344791540963e-01
3.220498835800198467e-01 5.339625510704806288e-01
3.230904324766852298e-01 5.917228553012847669e-01
3.241309813733506129e-01 1.264235157909553209e+00
3.251715302700159960e-01 1.709436200397490779e+00
3.262120791666813790e-01 1.968621856889150479e+00
3.272526280633467621e-01 2.460199416880911372e+00
3.282931769600121452e-01 2.716224142317763324e+00
3.293337258566775283e-01 2.486389404856105045e+00
3.303742747533429114e-01 1.967437911719329691e+00
3.314148236500082945e-01 1.334493413378218918e+00
3.324553725466736775e-01 1.183772011347549835e+00
3.334959214433390606e-01 1.056658608326642934e+00
3.345364703400044437e-01 3.699559062678616783e-01
3.355770192366698268e-01 7.059716174065115979e-01
3.366175681333352099e-01 1.104146600894665653e+00
3.376581170300005930e-01 5.369313873498100520e-01
3.386986659266659760e-01 5.759319440452657091e-01
3.397392148233313591e-01 8.717541857559396590e-01
3.407797637199967422e-01 7.398059806194581256e-01
3.418203126166621253e-01 6.723682292091837098e-01
3.428608615133275084e-01 4.758702049840763948e-01
3.439014104099928915e-01 6.725382933688806020e-01
3.449419593066582745e-01 5.738389266909464936e-01
3.459825082033236576e-01 5.139626841514157718e-01
3.470230570999890407e-01 4.494260625668573539e-01
3.480636059966544238e-01 3.601664864680245159e-01
3.491041548933198069e-01 4.830617782812680616e-01
3.501447037899851900e-01 2.012628195598864522e-01
3.511852526866505730e-01 4.846262120535200779e-01
3.522258015833159561e-01 3.103685640164570714e-01
3.532663504799813392e-01 6.694370216768277260e-01
3.543068993766467223e-01 3.613442575661380829e-01
3.553474482733121054e-01 3.758876497432126484e-01
3.563879971699774885e-01 0.000000000000000000e+00
3.574285460666428715e-01 3.935629706037460096e-01
3.584690949633082546e-01 5.740343979123210261e-01
3.595096438599736377e-01 3.012393980295300366e-01
3.605501927566390208e-01 6.667407496328934258e-01
3.615907416533044039e-01 6.616331374614432548e-01
3.626312905499697870e-01 4.960595392401501158e-01
3.636718394466351700e-01 5.890097638102460564e-01
3.647123883433005531e-01 8.094640546211167020e-01
3.657529372399659362e-01 6.513183763340606447e-01
3.667934861366313193e-01 6.225360463374300934e-01
3.678340350332967024e-01 7.459908425988217573e-01
3.688745839299620854e-01 1.027291277478653342e+00
3.699151328266274685e-01 4.978370926429178667e-01
3.709556817232928516e-01 4.595620767643282534e-01
3.719962306199582347e-01 4.746338655346846735e-01
3.730367795166236178e-01 6.168611516992257293e-01
3.740773284132890009e-01 9.392270122478478811e-01
3.751178773099543839e-01 7.650133976732576002e-01
3.761584262066197670e-01 9.912254811835481405e-01
3.771989751032851501e-01 1.123433091983940812e+00
3.782395239999505332e-01 9.671221212927179067e-01
3.792800728966159163e-01 9.557554291981986694e-01
3.803206217932812994e-01 1.033809084616628127e+00
3.813611706899466824e-01 1.006771798254391115e+00
3.824017195866120655e-01 6.838641379732663950e-01
3.834422684832774486e-01 8.589140317580685746e-01
3.844828173799428317e-01 1.245701411321107344e+00
3.855233662766082148e-01 8.473823239437336952e-01
3.865639151732735979e-01 7.658333638820380429e-01
3.876044640699389809e-01 8.171712426873867230e-01
3.886450129666043640e-01 7.324384141870297071e-01
3.896855618632697471e-01 7.791562556523743410e-01
3.907261107599351302e-01 5.895457885939734410e-01
3.917666596566005133e-01 8.383815581397087158e-01
3.928072085532658964e-01 1.144724105895505772e+00
3.938477574499312794e-01 6.254161216743980845e-01
3.948883063465966625e-01 4.918412803285718837e-01
3.959288552432620456e-01 7.869365668288921256e-01
3.969694041399274287e-01 1.130534749689729779e+00
3.980099530365928118e-01 7.930608767821567540e-01
3.990505019332581949e-01 5.551487177279526009e-01
4.000910508299235779e-01 7.447390913510929522e-01
4.011315997265889610e-01 7.221685243518862762e-01
4.021721486232543441e-01 6.990292742599635289e-01
4.032126975199197272e-01 6.675313620155947092e-01
4.042532464165851103e-01 9.774484555103057914e-01
4.052937953132504934e-01 9.253633900262911993e-01
4.063343442099158764e-01 9.271507968373740027e-01
4.073748931065812595e-01 9.776523336559748145e-01
4.084154420032466426e-01 9.225738417290330062e-01
4.094559908999120257e-01 1.070172622866422785e+00
4.104965397965774088e-01 6.778819160511631026e-01
4.115370886932427918e-01 5.564120719395120318e-01
4.125776375899081749e-01 6.819750555752293053e-01
4.136181864865735580e-01 9.432739700365644353e-01
4.146587353832389411e-01 9.685667251759895180e-01
4.156992842799043242e-01 8.369957995742609569e-01
4.167398331765697073e-01 7.412338482110669702e-01
4.177803820732350903e-01 7.927764862018449321e-01
4.188209309699004734e-01 6.039023440003603582e-01
4.198614798665658565e-01 8.301389246474784045e-01
4.209020287632312396e-01 1.120047674088077372e+00
4.219425776598966227e-01 9.320411395433652046e-01
4.229831265565620058e-01 7.581477384827124411e-01
4.240236754532273888e-01 7.645693833096913750e-01
4.250642243498927719e-01 6.374981342574841392e-01
4.261047732465581550e-01 1.026784554036474617e+00
4.271453221432235381e-01 7.070900662079324661e-01
4.281858710398889212e-01 3.698534356254157274e-01
4.292264199365543043e-01 4.293462702936707842e-01
4.302669688332196873e-01 6.335120424899329805e-01
4.313075177298850704e-01 4.694251577459382929e-01
4.323480666265504535e-01 4.949357205104192303e-01
4.333886155232158366e-01 4.475983861945067588e-01
4.344291644198812197e-01 5.910112943241117023e-01
