# q (1/Angstrom), Intensity (arb)
2.067508526570814575e-02 5.969566003614220335e+02
2.163671713586316769e-02 6.211669474970556166e+02
2.259834900601819310e-02 6.432878866073161817e+02
2.355998087617321851e-02 6.497142880639594296e+02
2.452161274632824739e-02 6.520108963198666743e+02
2.548324461648326933e-02 6.536275165110711214e+02
2.644487648663829821e-02 6.515942664783319742e+02
2.740650835679332709e-02 6.462378645526824812e+02
2.836814022694834903e-02 6.422945029043338536e+02
2.932977209710337443e-02 6.428766282083333863e+02
3.029140396725839637e-02 6.383792611747682031e+02
3.125303583741342178e-02 6.328713028856845995e+02
3.221466770756845066e-02 6.285897528916511874e+02
3.317629957772347260e-02 6.214197678543217762e+02
3.413793144787850148e-02 6.161669024390278082e+02
3.509956331803352342e-02 6.157261524970490427e+02
3.606119518818855230e-02 6.144246668493601646e+02
3.702282705834358117e-02 6.048162014919091689e+02
3.798445892849860311e-02 5.982585794493998037e+02
3.894609079865363199e-02 5.910312625497911085e+02
3.990772266880865393e-02 5.864696268202445708e+02
4.086935453896367587e-02 5.794745166526339517e+02
4.183098640911870475e-02 5.747316129228670434e+02
4.279261827927372669e-02 5.682608020553877850e+02
4.375425014942875557e-02 5.601091199182411628e+02
4.471588201958377751e-02 5.489600814150110182e+02
4.567751388973880639e-02 5.394924704890532894e+02
4.663914575989382832e-02 5.326527930623959719e+02
4.760077763004885720e-02 5.273637178177408487e+02
4.856240950020387914e-02 5.200995416266948723e+02
4.952404137035890108e-02 5.113537962418122902e+02
5.048567324051392302e-02 5.016195956353703878e+02
5.144730511066895190e-02 4.916989076216574404e+02
5.240893698082397384e-02 4.824052227257371896e+02
5.337056885097899578e-02 4.739878453931698914e+02
5.433220072113403160e-02 4.624654737308763970e+02
5.529383259128905354e-02 4.505375254503466067e+02
5.625546446144407547e-02 4.400253248921421232e+02
5.721709633159910435e-02 4.277540486456879307e+02
5.817872820175412629e-02 4.190969307138716431e+02
5.914036007190914823e-02 4.099740070296077761e+02
6.010199194206417017e-02 3.985096556688626492e+02
6.106362381221920599e-02 3.888278161207375092e+02
6.202525568237422793e-02 3.791746836325123695e+02
6.298688755252924987e-02 3.696763077847955969e+02
6.394851942268428568e-02 3.594333359870515778e+02
6.491015129283930762e-02 3.490100836933955861e+02
6.587178316299432956e-02 3.393994244125465229e+02
6.683341503314935150e-02 3.302971559563504798e+02
6.779504690330438732e-02 3.204067801863489535e+02
6.875667877345940926e-02 3.102862724836092525e+02
6.971831064361443120e-02 3.022069229963969974e+02
7.067994251376945314e-02 2.923519085994562374e+02
7.164157438392447508e-02 2.813289711919730962e+02
7.260320625407949702e-02 2.729747156225685103e+02
7.356483812423453283e-02 2.648898377362401675e+02
7.452646999438955477e-02 2.562087723977501810e+02
7.548810186454457671e-02 2.476619580787217956e+02
7.644973373469959865e-02 2.383333706032535417e+02
7.741136560485463447e-02 2.299652034309641238e+02
7.837299747500965641e-02 2.222359597104427564e+02
7.933462934516467835e-02 2.132190449092815925e+02
8.029626121531971417e-02 2.055477943150371516e+02
8.125789308547473611e-02 1.979420848671387603e+02
8.221952495562975805e-02 1.892212232688157769e+02
8.318115682578479386e-02 1.812200157980139750e+02
8.414278869593981580e-02 1.746391086184040660e+02
8.510442056609483774e-02 1.677389438152256957e+02
8.606605243624985968e-02 1.609279684095076561e+02
8.702768430640489550e-02 1.545363330304981275e+02
8.798931617655991744e-02 1.479677030442357193e+02
8.895094804671493938e-02 1.411751605041719415e+02
8.991257991686996132e-02 1.348652981079911228e+02
9.087421178702498326e-02 1.299265291189147149e+02
9.183584365718000520e-02 1.244164467204751219e+02
9.279747552733502713e-02 1.180117013349200761e+02
9.375910739749006295e-02 1.114067469122133787e+02
9.472073926764508489e-02 1.061045607720078010e+02
9.568237113780010683e-02 1.004911105427180757e+02
9.664400300795514265e-02 9.505410010139205212e+01
9.760563487811016459e-02 9.058982572288877577e+01
9.856726674826518653e-02 8.572682304225205030e+01
9.952889861842022234e-02 8.072110000089628556e+01
1.004905304885752443e-01 7.612199095508147195e+01
1.014521623587302801e-01 7.223329459123539209e+01
1.024137942288853020e-01 6.842185370231521802e+01
1.033754260990403240e-01 6.410747100633423656e+01
1.043370579691953459e-01 6.039269854894897094e+01
1.052986898393503817e-01 5.624108694992815316e+01
1.062603217095053898e-01 5.267411169986158370e+01
1.072219535796604256e-01 4.991279000348338002e+01
1.081835854498154614e-01 4.684058557900806363e+01
1.091452173199704695e-01 4.362558024775641741e+01
1.101068491901255053e-01 4.068476488404194669e+01
1.110684810602805411e-01 3.797450985161022885e+01
1.120301129304355492e-01 3.558153878763580025e+01
1.129917448005905850e-01 3.260977587657556853e+01
1.139533766707456208e-01 2.981880043887418452e+01
1.149150085409006289e-01 2.801764753880684466e+01
1.158766404110556647e-01 2.584748778690508431e+01
1.168382722812106728e-01 2.334911214339964047e+01
1.177999041513657086e-01 2.173613383955699518e+01
1.187615360215207305e-01 1.969206141555573097e+01
1.197231678916757525e-01 1.783144196082811561e+01
1.206847997618307744e-01 1.620214767916414544e+01
1.216464316319858102e-01 1.471392312872209729e+01
1.226080635021408183e-01 1.324747081901409018e+01
1.235696953722958541e-01 1.225236811971572592e+01
1.245313272424508899e-01 1.091140762894678673e+01
1.254929591126059119e-01 9.705839394094372352e+00
1.264545909827609338e-01 8.748728316753133782e+00
1.274162228529159557e-01 7.837987406695855697e+00
1.283778547230709777e-01 7.101472978360170885e+00
1.293394865932259996e-01 6.069659633246125452e+00
1.303011184633810493e-01 5.391884227213274983e+00
1.312627503335360435e-01 4.943581057551188707e+00
1.322243822036910932e-01 4.345231904390864486e+00
1.331860140738460874e-01 3.765404808604834841e+00
1.341476459440011371e-01 3.167221624897010201e+00
1.351092778141561590e-01 2.625009177315231312e+00
1.360709096843111809e-01 2.380535981396089795e+00
1.370325415544662029e-01 2.041827294766019207e+00
1.379941734246212526e-01 2.067393762644599065e+00
1.389558052947762468e-01 2.023276223153889219e+00
1.399174371649312965e-01 1.529748170604971591e+00
1.408790690350863184e-01 1.239118735700344587e+00
1.418407009052413403e-01 1.003462661106990339e+00
1.428023327753963623e-01 6.752528981112959627e-01
1.437639646455513842e-01 7.483991016854396605e-01
1.447255965157064062e-01 1.179604261543062194e+00
1.456872283858614281e-01 1.166143712585125058e+00
1.466488602560164778e-01 1.198655807310281318e+00
1.476104921261714720e-01 1.060222248199824691e+00
1.485721239963265217e-01 1.372308829128446206e+00
1.495337558664815436e-01 1.528973717011091082e+00
1.504953877366365655e-01 1.643512152856036579e+00
1.514570196067915875e-01 1.611803892569497521e+00
1.524186514769466094e-01 2.016656288845538825e+00
1.533802833471016314e-01 2.130310558433812673e+00
1.543419152172566811e-01 2.105443486657325280e+00
1.553035470874116752e-01 2.090899737100539113e+00
1.562651789575667249e-01 2.247255278105829035e+00
1.572268108277217469e-01 2.309895682880146239e+00
1.581884426978767688e-01 2.765332234474040973e+00
1.591500745680317908e-01 2.891836304940849089e+00
1.601117064381868405e-01 3.420150431434723970e+00
1.610733383083418346e-01 3.583670736692535996e+00
1.620349701784968843e-01 3.590602150069098997e+00
1.629966020486519063e-01 3.675700334078257470e+00
1.639582339188069282e-01 4.075389931180428249e+00
1.649198657889619501e-01 4.045708970870940391e+00
1.658814976591169721e-01 4.428225473649508359e+00
1.668431295292719940e-01 4.432219332406436507e+00
1.678047613994270160e-01 4.410532307166015187e+00
1.687663932695820379e-01 4.638962031795827556e+00
1.697280251397370598e-01 4.798132840318864112e+00
1.706896570098921095e-01 5.083609293168933618e+00
1.716512888800471037e-01 4.944965031063048855e+00
1.726129207502021534e-01 5.352335636630098037e+00
1.735745526203571754e-01 5.177275883952567881e+00
1.745361844905121973e-01 5.189808313230695802e+00
1.754978163606672192e-01 5.296039078283808266e+00
1.764594482308222689e-01 5.438427698827531742e+00
1.774210801009772631e-01 5.587360759927026521e+00
1.783827119711323128e-01 5.377548316280261531e+00
1.793443438412873348e-01 5.689034735890281524e+00
1.803059757114423567e-01 5.909088051819374243e+00
1.812676075815973786e-01 5.781139248760691629e+00
1.822292394517524006e-01 5.449034021813424999e+00
1.831908713219074225e-01 5.488424108765229903e+00
1.841525031920624444e-01 5.690809182912399677e+00
1.851141350622174664e-01 5.424022483280211304e+00
1.860757669323724883e-01 5.245316209883910119e+00
1.870373988025275380e-01 5.196644978338017751e+00
1.879990306726825322e-01 5.110368899726466907e+00
1.889606625428375819e-01 5.020235773029099846e+00
1.899222944129926038e-01 5.448578669277466702e+00
1.908839262831476258e-01 5.297713111737444081e+00
1.918455581533026477e-01 5.150068738288243964e+00
1.928071900234576974e-01 5.097173484366489760e+00
1.937688218936126916e-01 4.974673243231638509e+00
1.947304537637677413e-01 4.562417903529659924e+00
1.956920856339227632e-01 4.745605819535157366e+00
1.966537175040777852e-01 4.858925297987941150e+00
1.976153493742328071e-01 4.318258830505055101e+00
1.985769812443878291e-01 4.001124190605313657e+00
1.995386131145428510e-01 3.951425058213271058e+00
2.005002449846978729e-01 3.724881897799832586e+00
2.014618768548528949e-01 3.840234692394059124e+00
2.024235087250079168e-01 3.681065543234605997e+00
2.033851405951629665e-01 3.810131171796019345e+00
2.043467724653179884e-01 3.676835431464532178e+00
2.053084043354730381e-01 3.341966612575994588e+00
2.062700362056280046e-01 3.159651335269813899e+00
2.072316680757830543e-01 3.162956861497566052e+00
2.081932999459380762e-01 3.068883177414086560e+00
2.091549318160931259e-01 3.199531341178825983e+00
2.101165636862481478e-01 2.883449026296627693e+00
2.110781955564031698e-01 2.607567817411123201e+00
2.120398274265581640e-01 2.766510036536125483e+00
2.130014592967132137e-01 2.687957733238238944e+00
2.139630911668682356e-01 2.331679523285927758e+00
2.149247230370232575e-01 1.682340929898721527e+00
2.158863549071783072e-01 1.628602915863158529e+00
2.168479867773333014e-01 1.679401691715757039e+00
2.178096186474883234e-01 1.603860134068103349e+00
2.187712505176433453e-01 1.710159722120756953e+00
2.197328823877983950e-01 1.869856416267381860e+00
2.206945142579534169e-01 1.740455106824168041e+00
2.216561461281084666e-01 1.411960307528449476e+00
2.226177779982634330e-01 1.270965434690999984e+00
2.235794098684184827e-01 1.473417509396110603e+00
2.245410417385735047e-01 1.411318847368502105e+00
2.255026736087285544e-01 1.268457117724331340e+00
2.264643054788835763e-01 1.160153180130894413e+00
2.274259373490385983e-01 1.065958162275009613e+00
2.283875692191935924e-01 9.316301059870824020e-01
2.293492010893486421e-01 7.691258002177789876e-01
2.303108329595036641e-01 8.203723654596934978e-01
2.312724648296586860e-01 5.387104356224732271e-01
2.322340966998137357e-01 5.252014277770022943e-01
2.331957285699687299e-01 5.992136721148888512e-01
2.341573604401237518e-01 5.719008196679382650e-01
2.351189923102787738e-01 4.677816356750312821e-01
2.360806241804338235e-01 5.788895703650425162e-01
2.370422560505888454e-01 4.011202909755056112e-01
2.380038879207438951e-01 2.217142153066333776e-01
2.389655197908988615e-01 1.701625960341495158e-01
2.399271516610539112e-01 1.882741931240516919e-01
2.408887835312089332e-01 4.189291289641410287e-01
2.418504154013639829e-01 3.852476809051381679e-01
2.428120472715190048e-01 3.738469572293965371e-01
2.437736791416740267e-01 4.097384443456597580e-01
2.447353110118290209e-01 1.929924259004778264e-01
2.456969428819840706e-01 2.336215853943279797e-01
2.466585747521390926e-01 1.488072072885628927e-01
2.476202066222941145e-01 2.667117934994109874e-01
2.485818384924491642e-01 2.268040487079545642e-01
2.495434703626041584e-01 4.382843869438843853e-01
2.505051022327591803e-01 3.165142696777856202e-01
2.514667341029142023e-01 2.598286989053981699e-01
2.524283659730692242e-01 1.774368223620967910e-01
2.533899978432243016e-01 2.561337209172727114e-01
2.543516297133793236e-01 5.191213044174887159e-01
2.553132615835342900e-01 2.777640814787218915e-01
2.562748934536893120e-01 3.186136624968973763e-01
2.572365253238443894e-01 3.603161020460774466e-01
2.581981571939994113e-01 3.027058810981948511e-01
2.591597890641544333e-01 3.833572992472085161e-01
2.601214209343094552e-01 4.785299945068537397e-01
2.610830528044644772e-01 4.195054596394420798e-01
2.620446846746194991e-01 5.477942385369622968e-01
2.630063165447745210e-01 6.210956277224291000e-01
2.639679484149295430e-01 7.050773337711753186e-01
2.649295802850845649e-01 7.211211737429117363e-01
2.658912121552395869e-01 6.895579018105806313e-01
2.668528440253946088e-01 5.913470834656351371e-01
2.678144758955496307e-01 6.203800416813791685e-01
2.687761077657046527e-01 5.665471117661589062e-01
2.697377396358597301e-01 6.527560502137674803e-01
2.706993715060147521e-01 7.843932461075624474e-01
2.716610033761697185e-01 6.501383655070078760e-01
2.726226352463247404e-01 7.807594687307428671e-01
2.735842671164798179e-01 8.591360569714581175e-01
2.745458989866348398e-01 9.935407645183502723e-01
2.755075308567898618e-01 8.512121574467172991e-01
2.764691627269448837e-01 6.996787027928732527e-01
2.774307945970999056e-01 7.168788903326692719e-01
2.783924264672549276e-01 9.536607819151790011e-01
2.793540583374099495e-01 1.182883574349723688e+00
2.803156902075649715e-01 1.115371142780798408e+00
2.812773220777199934e-01 8.446961785088866748e-01
2.822389539478750153e-01 7.765402911909902173e-01
2.832005858180300373e-01 7.506493835272500803e-01
2.841622176881850592e-01 8.363250486077333790e-01
2.851238495583400812e-01 9.357082151479261256e-01
2.860854814284951586e-01 9.145714999450618166e-01
2.870471132986501805e-01 8.715084095025318334e-01
2.880087451688051470e-01 9.971064476463560311e-01
2.889703770389601689e-01 1.020420790912606179e+00
2.899320089091152464e-01 9.147150552228460185e-01
2.908936407792702683e-01 9.221884935033166641e-01
2.918552726494252902e-01 9.218680056685961688e-01
2.928169045195803122e-01 1.064390812416164067e+00
2.937785363897353341e-01 1.055909019350195877e+00
2.947401682598903561e-01 6.574143201179332152e-01
2.957018001300453780e-01 5.984486263617618818e-01
2.966634320002003999e-01 7.960551922939060887e-01
2.976250638703554219e-01 8.148264154562738781e-01
2.985866957405104993e-01 8.191611712884849794e-01
2.995483276106654658e-01 9.404983928409329508e-01
3.005099594808204877e-01 9.882629783763228204e-01
3.014715913509755651e-01 8.245183076271196398e-01
3.024332232211305871e-01 7.232866637388326581e-01
3.033948550912856090e-01 7.511626902972423636e-01
3.043564869614405755e-01 9.022043254264104917e-01
3.053181188315956529e-01 9.276677048322810037e-01
3.062797507017506748e-01 9.003086157481483554e-01
3.072413825719056968e-01 8.404505484088531375e-01
3.082030144420607187e-01 8.451590123857570802e-01
3.091646463122157407e-01 8.094603989452373582e-01
3.101262781823707626e-01 7.518816889815091997e-01
3.110879100525257845e-01 5.863551314497037481e-01
3.120495419226808065e-01 5.555268897888367974e-01
3.130111737928358284e-01 6.058170344963969001e-01
3.139728056629909059e-01 5.769009309021200238e-01
3.149344375331459278e-01 6.286125021391377743e-01
3.158960694033008942e-01 3.316416748012898097e-01
3.168577012734559162e-01 3.117151464377911907e-01
3.178193331436109936e-01 1.578793669657407861e-01
3.187809650137660156e-01 2.734004376604808328e-01
3.197425968839210375e-01 3.840332320197283877e-01
3.207042287540760039e-01 5.134383909456410322e-01
3.216658606242310814e-01 6.741858384703327545e-01
3.226274924943861033e-01 6.612589663091732461e-01
3.235891243645411253e-01 4.404985032021002667e-01
3.245507562346961472e-01 3.831317509965117551e-01
3.255123881048511691e-01 3.355070783366542742e-01
3.264740199750061911e-01 4.410595370665468806e-01
3.274356518451612130e-01 6.270192567056902533e-01
3.283972837153162350e-01 6.104243662859047959e-01
3.293589155854712569e-01 4.651308976485637459e-01
3.303205474556263344e-01 4.056163069658431652e-01
3.312821793257813563e-01 2.032325170098374656e-01
3.322438111959363227e-01 8.302146780935970583e-02
3.332054430660913447e-01 2.059912218659363248e-01
3.341670749362464221e-01 2.942968819741516029e-01
3.351287068064014441e-01 3.536382307942922409e-01
3.360903386765564660e-01 3.800592673057998638e-01
3.370519705467114324e-01 2.884807642767839297e-01
3.380136024168665099e-01 2.975558486068443642e-01
3.389752342870215318e-01 3.978442280083314131e-01
3.399368661571765537e-01 3.748602351018348600e-01
3.408984980273315757e-01 3.273521858594854450e-01
3.418601298974865976e-01 2.066600566023666374e-01
3.428217617676416196e-01 3.360596451847186472e-01
3.437833936377966415e-01 4.182397263514516794e-01
3.447450255079516634e-01 2.694080375831475749e-01
3.457066573781066854e-01 2.431986973449618006e-01
3.466682892482617628e-01 2.972105463381815582e-01
3.476299211184167848e-01 4.185969108161629038e-01
3.485915529885717512e-01 3.904985247989536390e-01
3.495531848587267731e-01 2.648603495647314787e-01
3.505148167288818506e-01 1.734393354513130703e-01
3.514764485990368725e-01 3.446041527775882685e-01
3.524380804691918945e-01 3.871530600026567015e-01
3.533997123393468609e-01 1.200969204155803993e-01
3.543613442095019384e-01 1.658066424183282095e-01
3.553229760796569603e-01 1.970067966293207462e-01
3.562846079498119822e-01 3.591009738940371676e-01
3.572462398199670042e-01 2.650328245162789642e-01
3.582078716901220261e-01 3.840304158083078789e-01
3.591695035602770480e-01 4.444186091713788755e-01
3.601311354304320700e-01 2.605049693553525003e-01
3.610927673005870919e-01 2.807437323258810125e-01
3.620543991707421139e-01 3.735937962994810846e-01
3.630160310408971913e-01 3.031785187021434069e-01
3.639776629110522133e-01 1.453161431187268704e-01
3.649392947812071797e-01 2.857954158439319770e-01
3.659009266513622016e-01 2.942016379807022020e-01
3.668625585215172791e-01 4.194176716506703428e-01
3.678241903916723010e-01 5.866485464599939803e-01
3.687858222618273230e-01 3.371188500628399254e-01
3.697474541319822894e-01 3.475324947762388206e-01
3.707090860021373668e-01 5.119882194040954460e-01
3.716707178722923888e-01 4.710772241903136148e-01
3.726323497424474107e-01 5.081644104363718384e-01
3.735939816126024327e-01 4.597931493411024917e-01
3.745556134827574546e-01 4.323734912785717199e-01
3.755172453529124765e-01 3.192501884197866957e-01
3.764788772230674985e-01 2.641751418042552757e-01
3.774405090932225204e-01 2.551498767419069225e-01
3.784021409633775423e-01 2.499579283223241077e-01
3.793637728335326198e-01 4.580107584074220028e-01
3.803254047036876417e-01 5.628769544215010967e-01
3.812870365738426082e-01 5.297545447245468608e-01
3.822486684439976301e-01 3.925958567722069859e-01
3.832103003141527076e-01 2.416519612948953011e-01
3.841719321843077295e-01 3.226471953890346356e-01
3.851335640544627514e-01 5.659454397407870374e-01
3.860951959246177734e-01 5.213475346682407974e-01
3.870568277947727953e-01 4.325802155596925047e-01
3.880184596649278173e-01 3.652051233453583734e-01
3.889800915350828392e-01 5.320954354822866605e-01
3.899417234052378611e-01 6.224623974456555686e-01
3.909033552753928831e-01 5.107011612592735617e-01
3.918649871455479050e-01 4.566341788000549684e-01
3.928266190157029270e-01 6.726862883190669606e-01
3.937882508858579489e-01 5.880470010942673298e-01
3.947498827560129708e-01 2.916390083229210006e-01
3.957115146261680483e-01 5.011926414197311885e-01
3.966731464963230702e-01 5.934706419617938877e-01
3.976347783664780366e-01 4.375555054159008250e-01
3.985964102366330586e-01 5.340354407482621468e-01
3.995580421067881360e-01 5.582499633066220213e-01
4.005196739769430470e-01 4.653225938734095735e-01
4.014813058470981244e-01 4.850295647448952252e-01
4.024429377172531463e-01 6.022810902475868033e-01
4.034045695874082238e-01 5.783014399755472823e-01
