# q (1/Angstrom), Intensity (arb)
2.067508526570814575e-02 5.958007734981291605e+02
2.163671713586316769e-02 6.202459740100367753e+02
2.259834900601819310e-02 6.457392125704113823e+02
2.355998087617321851e-02 6.550541693516008763e+02
2.452161274632824739e-02 6.552265333997253265e+02
2.548324461648326933e-02 6.528035671925997576e+02
2.644487648663829821e-02 6.532898763700362679e+02
2.740650835679332709e-02 6.538529358272508034e+02
2.836814022694834903e-02 6.476577682407037173e+02
2.932977209710337443e-02 6.479149670854916394e+02
3.029140396725839637e-02 6.478072003546623137e+02
3.125303583741342178e-02 6.409214154837131900e+02
3.221466770756845066e-02 6.350906520200107934e+02
3.317629957772347260e-02 6.279612356188470130e+02
3.413793144787850148e-02 6.268897415777701099e+02
3.509956331803352342e-02 6.215694309468680103e+02
3.606119518818855230e-02 6.173398063369527335e+02
3.702282705834358117e-02 6.102641923258223642e+02
3.798445892849860311e-02 6.031054692470290775e+02
3.894609079865363199e-02 5.974263393152054960e+02
3.990772266880865393e-02 5.926673173452273886e+02
4.086935453896367587e-02 5.872116445280805692e+02
4.183098640911870475e-02 5.775508799750357412e+02
4.279261827927372669e-02 5.713910463709247551e+02
4.375425014942875557e-02 5.635671754603173440e+02
4.471588201958377751e-02 5.545315812525412866e+02
4.567751388973880639e-02 5.463838268450487021e+02
4.663914575989382832e-02 5.397019921844059809e+02
4.760077763004885720e-02 5.309410861173956846e+02
4.856240950020387914e-02 5.229641443029862558e+02
4.952404137035890108e-02 5.145760041433007927e+02
5.048567324051392302e-02 5.083552244495683112e+02
5.144730511066895190e-02 4.999182843326685770e+02
5.240893698082397384e-02 4.890145513180087278e+02
5.337056885097899578e-02 4.777354893657330877e+02
5.433220072113403160e-02 4.688830296550003141e+02
5.529383259128905354e-02 4.586078227894977317e+02
5.625546446144407547e-02 4.470447590907651261e+02
5.721709633159910435e-02 4.354484419377080258e+02
5.817872820175412629e-02 4.255466221999527079e+02
5.914036007190914823e-02 4.139163130679136202e+02
6.010199194206417017e-02 4.035688847738589971e+02
6.106362381221920599e-02 3.935930275757359027e+02
6.202525568237422793e-02 3.832664603157766692e+02
6.298688755252924987e-02 3.731374316862875844e+02
6.394851942268428568e-02 3.632349075930904974e+02
6.491015129283930762e-02 3.535416722821717030e+02
6.587178316299432956e-02 3.427798379175721379e+02
6.683341503314935150e-02 3.335860468973613138e+02
6.779504690330438732e-02 3.238613426836884628e+02
6.875667877345940926e-02 3.151770889272487466e+02
6.971831064361443120e-02 3.052715381944827868e+02
7.067994251376945314e-02 2.945303625082410690e+02
7.164157438392447508e-02 2.845081108457884511e+02
7.260320625407949702e-02 2.763907895367690344e+02
7.356483812423453283e-02 2.681328760945065142e+02
7.452646999438955477e-02 2.591599497543917323e+02
7.548810186454457671e-02 2.488707275978485143e+02
7.644973373469959865e-02 2.420228019295076081e+02
7.741136560485463447e-02 2.340269120306410855e+02
7.837299747500965641e-02 2.246907630130378948e+02
7.933462934516467835e-02 2.164733247012581216e+02
8.029626121531971417e-02 2.075565115814210628e+02
8.125789308547473611e-02 1.995646496210952421e+02
8.221952495562975805e-02 1.918187092231009387e+02
8.318115682578479386e-02 1.852497954786414880e+02
8.414278869593981580e-02 1.790359864345972483e+02
8.510442056609483774e-02 1.715764109315049097e+02
8.606605243624985968e-02 1.636198581470876547e+02
8.702768430640489550e-02 1.569694820051865065e+02
8.798931617655991744e-02 1.496819660948299884e+02
8.895094804671493938e-02 1.433435116284877608e+02
8.991257991686996132e-02 1.373632691916446618e+02
9.087421178702498326e-02 1.303173338482032477e+02
9.183584365718000520e-02 1.243774980172999136e+02
9.279747552733502713e-02 1.182079567496776917e+02
9.375910739749006295e-02 1.126651899898000977e+02
9.472073926764508489e-02 1.074935687360825796e+02
9.568237113780010683e-02 1.016857807194584211e+02
9.664400300795514265e-02 9.642629143998142638e+01
9.760563487811016459e-02 9.135829191061795029e+01
9.856726674826518653e-02 8.650142341949096192e+01
9.952889861842022234e-02 8.219016384712367085e+01
1.004905304885752443e-01 7.768360998013785945e+01
1.014521623587302801e-01 7.335753867326133104e+01
1.024137942288853020e-01 6.943441696477945868e+01
1.033754260990403240e-01 6.591860709685292363e+01
1.043370579691953459e-01 6.186197298456352200e+01
1.052986898393503817e-01 5.808586493384561322e+01
1.062603217095053898e-01 5.437679534994312291e+01
1.072219535796604256e-01 5.119734941505491577e+01
1.081835854498154614e-01 4.728134808858499127e+01
1.091452173199704695e-01 4.453348768259738932e+01
1.101068491901255053e-01 4.129478624329104264e+01
1.110684810602805411e-01 3.799810832482749845e+01
1.120301129304355492e-01 3.598569020707949306e+01
1.129917448005905850e-01 3.331984963820568169e+01
1.139533766707456208e-01 3.012812087695099805e+01
1.149150085409006289e-01 2.776575801900956364e+01
1.158766404110556647e-01 2.583671739758301555e+01
1.168382722812106728e-01 2.362260061250183796e+01
1.177999041513657086e-01 2.225319696257621516e+01
1.187615360215207305e-01 2.053543456471451023e+01
1.197231678916757525e-01 1.831979437597437510e+01
1.206847997618307744e-01 1.657676771059817256e+01
1.216464316319858102e-01 1.535906540597808245e+01
1.226080635021408183e-01 1.394834340553552465e+01
1.235696953722958541e-01 1.265216812754206543e+01
1.245313272424508899e-01 1.159637955297007750e+01
1.254929591126059119e-01 1.018669821629001504e+01
1.264545909827609338e-01 9.126669874850925623e+00
1.274162228529159557e-01 8.139686139396911102e+00
1.283778547230709777e-01 7.527692085659964505e+00
1.293394865932259996e-01 6.857047666749888748e+00
1.303011184633810493e-01 5.806778035025352835e+00
1.312627503335360435e-01 5.136763850352608074e+00
1.322243822036910932e-01 4.963626826290070682e+00
1.331860140738460874e-01 4.376899436206088012e+00
1.341476459440011371e-01 3.326999162875328153e+00
1.351092778141561590e-01 2.511587561409005076e+00
1.360709096843111809e-01 2.682784775611434469e+00
1.370325415544662029e-01 2.690046159371679124e+00
1.379941734246212526e-01 2.131732181359037526e+00
1.389558052947762468e-01 2.007892677846232488e+00
1.399174371649312965e-01 1.929836168031272337e+00
1.408790690350863184e-01 1.546002262179854370e+00
1.418407009052413403e-01 1.594080661192524673e+00
1.428023327753963623e-01 1.749718219224796201e+00
1.437639646455513842e-01 1.653890678528846081e+00
1.447255965157064062e-01 1.433798613256374921e+00
1.456872283858614281e-01 1.578154607988491165e+00
1.466488602560164778e-01 1.444538132715003087e+00
1.476104921261714720e-01 1.189022855080011709e+00
1.485721239963265217e-01 1.442993966278663720e+00
1.495337558664815436e-01 1.646225391092858814e+00
1.504953877366365655e-01 1.830754626869456558e+00
1.514570196067915875e-01 2.189702939153438166e+00
1.524186514769466094e-01 2.299198667049676459e+00
1.533802833471016314e-01 2.482697393733577229e+00
1.543419152172566811e-01 2.327894299359520858e+00
1.553035470874116752e-01 2.379576513934544835e+00
1.562651789575667249e-01 2.806388549089053441e+00
1.572268108277217469e-01 2.822051926689510992e+00
1.581884426978767688e-01 3.317809612487479853e+00
1.591500745680317908e-01 3.361325316513088524e+00
1.601117064381868405e-01 3.261052454765614783e+00
1.610733383083418346e-01 3.749398108556537323e+00
1.620349701784968843e-01 4.120687470664670116e+00
1.629966020486519063e-01 4.480292688507240939e+00
1.639582339188069282e-01 4.247596788726252015e+00
1.649198657889619501e-01 4.447568359910203384e+00
1.658814976591169721e-01 4.798911396630746395e+00
1.668431295292719940e-01 4.742525574425215495e+00
1.678047613994270160e-01 4.822295172805066699e+00
1.687663932695820379e-01 5.011875725378388324e+00
1.697280251397370598e-01 5.386895358299565117e+00
1.706896570098921095e-01 5.261473332074036335e+00
1.716512888800471037e-01 5.603336054460207549e+00
1.726129207502021534e-01 5.821464365697991639e+00
1.735745526203571754e-01 5.557582818217316145e+00
1.745361844905121973e-01 5.352386971909915303e+00
1.754978163606672192e-01 5.594265734615930796e+00
1.764594482308222689e-01 5.652944093812113380e+00
1.774210801009772631e-01 5.640098502205823650e+00
1.783827119711323128e-01 5.514577882916650964e+00
1.793443438412873348e-01 5.679866580177016289e+00
1.803059757114423567e-01 5.796877935678704574e+00
1.812676075815973786e-01 5.953704155299142542e+00
1.822292394517524006e-01 6.005863421294559856e+00
1.831908713219074225e-01 5.860364747296333832e+00
1.841525031920624444e-01 5.725552097183140177e+00
1.851141350622174664e-01 5.511503013945532103e+00
1.860757669323724883e-01 5.571405432924670720e+00
1.870373988025275380e-01 5.877735602041241236e+00
1.879990306726825322e-01 5.820877462303492678e+00
1.889606625428375819e-01 5.611384178927512068e+00
1.899222944129926038e-01 5.480286322501189744e+00
1.908839262831476258e-01 5.507646084039198087e+00
1.918455581533026477e-01 5.160088817638960990e+00
1.928071900234576974e-01 5.067836949919126255e+00
1.937688218936126916e-01 5.147620010841908567e+00
1.947304537637677413e-01 5.168108033798272771e+00
1.956920856339227632e-01 4.922168575778925970e+00
1.966537175040777852e-01 4.782430309961586801e+00
1.976153493742328071e-01 4.755356346063376094e+00
1.985769812443878291e-01 4.945120586232530258e+00
1.995386131145428510e-01 4.809032456472067452e+00
2.005002449846978729e-01 4.562387425979054001e+00
2.014618768548528949e-01 4.423746338832412306e+00
2.024235087250079168e-01 4.136483546105726106e+00
2.033851405951629665e-01 4.018932189843599900e+00
2.043467724653179884e-01 3.827906775753984192e+00
2.053084043354730381e-01 3.588581412037306961e+00
2.062700362056280046e-01 3.529124755442634154e+00
2.072316680757830543e-01 3.316166080667144911e+00
2.081932999459380762e-01 3.341433416486115249e+00
2.091549318160931259e-01 3.299577693426172686e+00
2.101165636862481478e-01 3.080577570446529023e+00
2.110781955564031698e-01 3.014703426265683106e+00
2.120398274265581640e-01 2.795428355206741600e+00
2.130014592967132137e-01 2.740460106480284708e+00
2.139630911668682356e-01 2.296332254562507558e+00
2.149247230370232575e-01 2.518391295964825360e+00
2.158863549071783072e-01 2.752849185265425547e+00
2.168479867773333014e-01 2.496248036633044620e+00
2.178096186474883234e-01 2.197398264096150911e+00
2.187712505176433453e-01 2.179527360738976682e+00
2.197328823877983950e-01 2.152428491491182427e+00
2.206945142579534169e-01 1.952771905762133997e+00
2.216561461281084666e-01 1.850277597683259501e+00
2.226177779982634330e-01 1.409444140136226764e+00
2.235794098684184827e-01 1.169640282991544211e+00
2.245410417385735047e-01 1.473125608331489644e+00
2.255026736087285544e-01 1.308856282727866471e+00
2.264643054788835763e-01 1.155790843834342496e+00
2.274259373490385983e-01 1.199384925707359884e+00
2.283875692191935924e-01 1.125514091492508584e+00
2.293492010893486421e-01 1.033891826256553514e+00
2.303108329595036641e-01 7.909313953803014385e-01
2.312724648296586860e-01 9.014066714573196748e-01
2.322340966998137357e-01 9.770708980074473970e-01
2.331957285699687299e-01 6.796181538787458010e-01
2.341573604401237518e-01 6.501512314173965024e-01
2.351189923102787738e-01 7.306039834107345143e-01
2.360806241804338235e-01 5.536636600247888396e-01
2.370422560505888454e-01 4.479888361330104374e-01
2.380038879207438951e-01 4.501059428164637666e-01
2.389655197908988615e-01 6.530907935324883340e-01
2.399271516610539112e-01 6.217540856237562252e-01
2.408887835312089332e-01 6.600107449617951261e-01
2.418504154013639829e-01 6.254579786525766849e-01
2.428120472715190048e-01 5.575763230400312409e-01
2.437736791416740267e-01 4.397847626767230622e-01
2.447353110118290209e-01 5.527047427338764862e-01
2.456969428819840706e-01 5.291207411971790009e-01
2.466585747521390926e-01 3.491312182857413404e-01
2.476202066222941145e-01 5.118689066911272789e-01
2.485818384924491642e-01 5.319882885246443038e-01
2.495434703626041584e-01 7.379692977065133164e-01
2.505051022327591803e-01 5.218759530837040472e-01
2.514667341029142023e-01 3.590796590338349858e-01
2.524283659730692242e-01 6.802565452513356092e-01
2.533899978432243016e-01 8.038426194150183335e-01
2.543516297133793236e-01 6.487586805185330263e-01
2.553132615835342900e-01 5.432036971912381773e-01
2.562748934536893120e-01 5.538631813810468429e-01
2.572365253238443894e-01 7.836734189280463170e-01
2.581981571939994113e-01 8.645843520415468220e-01
2.591597890641544333e-01 8.798915936749054367e-01
2.601214209343094552e-01 8.399533918718020686e-01
2.610830528044644772e-01 9.691873641368573544e-01
2.620446846746194991e-01 8.937579839185509911e-01
2.630063165447745210e-01 7.461833864373232927e-01
2.639679484149295430e-01 6.532557936556777634e-01
2.649295802850845649e-01 8.085723320137674364e-01
2.658912121552395869e-01 9.001486688140047931e-01
2.668528440253946088e-01 9.392743755480204015e-01
2.678144758955496307e-01 1.001585779977812507e+00
2.687761077657046527e-01 1.045999574415201749e+00
2.697377396358597301e-01 7.602141789030163466e-01
2.706993715060147521e-01 9.060047897766843050e-01
2.716610033761697185e-01 8.595706971095040672e-01
2.726226352463247404e-01 1.007162671764810113e+00
2.735842671164798179e-01 7.829575111217614847e-01
2.745458989866348398e-01 9.611118391377466708e-01
2.755075308567898618e-01 1.005756774716012103e+00
2.764691627269448837e-01 9.492280455182715571e-01
2.774307945970999056e-01 9.669854724488615716e-01
2.783924264672549276e-01 1.174360704924524157e+00
2.793540583374099495e-01 1.018730738620053700e+00
2.803156902075649715e-01 5.040142961374733943e-01
2.812773220777199934e-01 8.169972376629033306e-01
2.822389539478750153e-01 1.197123904478111456e+00
2.832005858180300373e-01 1.179406963473006442e+00
2.841622176881850592e-01 1.111737028671704763e+00
2.851238495583400812e-01 9.819903720792311219e-01
2.860854814284951586e-01 8.469682767318396088e-01
2.870471132986501805e-01 9.051357070782160008e-01
2.880087451688051470e-01 1.030201956294131804e+00
2.889703770389601689e-01 1.099145034568167034e+00
2.899320089091152464e-01 1.227478076803127038e+00
2.908936407792702683e-01 1.175849128875061211e+00
2.918552726494252902e-01 1.104089982417736593e+00
2.928169045195803122e-01 9.343520208603948163e-01
2.937785363897353341e-01 8.957787041171023645e-01
2.947401682598903561e-01 1.083570596356132398e+00
2.957018001300453780e-01 1.074577841095845088e+00
2.966634320002003999e-01 1.146396949842319657e+00
2.976250638703554219e-01 1.137589459670863334e+00
2.985866957405104993e-01 1.009737159921847649e+00
2.995483276106654658e-01 1.175954346622891222e+00
3.005099594808204877e-01 1.192983727595741783e+00
3.014715913509755651e-01 1.044350512162885991e+00
3.024332232211305871e-01 8.401865547296551995e-01
3.033948550912856090e-01 7.550576457676285713e-01
3.043564869614405755e-01 7.047242251600245311e-01
3.053181188315956529e-01 8.329471888919321998e-01
3.062797507017506748e-01 9.729965559610391779e-01
3.072413825719056968e-01 1.143125462975586260e+00
3.082030144420607187e-01 1.170770213754934730e+00
3.091646463122157407e-01 9.390370176283333592e-01
3.101262781823707626e-01 9.327558063546099731e-01
3.110879100525257845e-01 7.607157729716398364e-01
3.120495419226808065e-01 9.786507501150865096e-01
3.130111737928358284e-01 6.945735093288512019e-01
3.139728056629909059e-01 5.631641497275126085e-01
3.149344375331459278e-01 7.185597056607733180e-01
3.158960694033008942e-01 7.072429787455156713e-01
3.168577012734559162e-01 7.379790814506499430e-01
3.178193331436109936e-01 8.787818197436045864e-01
3.187809650137660156e-01 7.106171904505522718e-01
3.197425968839210375e-01 7.996822406622676738e-01
3.207042287540760039e-01 8.840448938046883143e-01
3.216658606242310814e-01 6.119199933655465884e-01
3.226274924943861033e-01 5.933920642098904352e-01
3.235891243645411253e-01 5.573916797342448604e-01
3.245507562346961472e-01 6.095563149271683301e-01
3.255123881048511691e-01 7.733522755714901109e-01
3.264740199750061911e-01 7.210825366785300616e-01
3.274356518451612130e-01 5.121520553275011878e-01
3.283972837153162350e-01 6.273039963069528824e-01
3.293589155854712569e-01 5.336868110510479823e-01
3.303205474556263344e-01 4.761285120819991334e-01
3.312821793257813563e-01 4.466464829821461535e-01
3.322438111959363227e-01 5.251645313003052706e-01
3.332054430660913447e-01 5.014396495918624908e-01
3.341670749362464221e-01 6.765146912373332100e-01
3.351287068064014441e-01 7.772837770068150576e-01
3.360903386765564660e-01 6.612348343597638234e-01
3.370519705467114324e-01 3.616222272716065333e-01
3.380136024168665099e-01 3.968573906919772298e-01
3.389752342870215318e-01 5.115116008138897996e-01
3.399368661571765537e-01 7.217113459664759034e-01
3.408984980273315757e-01 7.184213764218334575e-01
3.418601298974865976e-01 5.753802532077685328e-01
3.428217617676416196e-01 4.488372805634739393e-01
3.437833936377966415e-01 4.808052433265004311e-01
3.447450255079516634e-01 3.250647266948440972e-01
3.457066573781066854e-01 5.433627680770811708e-01
3.466682892482617628e-01 4.296993457345266165e-01
3.476299211184167848e-01 4.225703599751646777e-01
3.485915529885717512e-01 3.475779575975508351e-01
3.495531848587267731e-01 4.344672521930625919e-01
3.505148167288818506e-01 5.633424459411706664e-01
3.514764485990368725e-01 4.572454659905282881e-01
3.524380804691918945e-01 3.302324496794000197e-01
3.533997123393468609e-01 2.765997755429836502e-01
3.543613442095019384e-01 4.166853752254198184e-01
3.553229760796569603e-01 3.924342924272714583e-01
3.562846079498119822e-01 5.781864474285427491e-01
3.572462398199670042e-01 6.307855904728860708e-01
3.582078716901220261e-01 4.798754489597776285e-01
3.591695035602770480e-01 3.264444817192533321e-01
3.601311354304320700e-01 4.763910398379600508e-01
3.610927673005870919e-01 6.726298547555842333e-01
3.620543991707421139e-01 5.722482447651486837e-01
3.630160310408971913e-01 2.694130921299375814e-01
3.639776629110522133e-01 0.000000000000000000e+00
3.649392947812071797e-01 3.386298725880685367e-01
3.659009266513622016e-01 3.622529411079113970e-01
3.668625585215172791e-01 5.713945828382662739e-01
3.678241903916723010e-01 5.060732535841658830e-01
3.687858222618273230e-01 5.482830238231528597e-01
3.697474541319822894e-01 5.942845198144262042e-01
3.707090860021373668e-01 6.986741485745824320e-01
3.716707178722923888e-01 8.046390806974628163e-01
3.726323497424474107e-01 5.287985633110245942e-01
3.735939816126024327e-01 1.994161461675787450e-01
3.745556134827574546e-01 4.462274569138529046e-01
3.755172453529124765e-01 6.311296470178611173e-01
3.764788772230674985e-01 7.686121848183944394e-01
3.774405090932225204e-01 8.156805995977194357e-01
3.784021409633775423e-01 6.568040753489334804e-01
3.793637728335326198e-01 6.842820747579168028e-01
3.803254047036876417e-01 5.875851941145491253e-01
3.812870365738426082e-01 5.769812158091518484e-01
3.822486684439976301e-01 6.567720780964698690e-01
3.832103003141527076e-01 5.514773515850244223e-01
3.841719321843077295e-01 6.368467067976872897e-01
3.851335640544627514e-01 7.515393333278943544e-01
3.860951959246177734e-01 7.842046067965000589e-01
3.870568277947727953e-01 5.757170475075312766e-01
3.880184596649278173e-01 3.312071324480072576e-01
3.889800915350828392e-01 4.951639939115786149e-01
3.899417234052378611e-01 6.380699900813660008e-01
3.909033552753928831e-01 7.704332739473329639e-01
3.918649871455479050e-01 6.315437156523984186e-01
3.928266190157029270e-01 5.549351059572416034e-01
3.937882508858579489e-01 6.540589554137810069e-01
3.947498827560129708e-01 6.170211590967618065e-01
3.957115146261680483e-01 7.079308895595168849e-01
3.966731464963230702e-01 6.357792256485268467e-01
3.976347783664780366e-01 6.650577796726224733e-01
3.985964102366330586e-01 6.303593000231622057e-01
3.995580421067881360e-01 5.437585766537473830e-01
4.005196739769430470e-01 3.849557857925347548e-01
4.014813058470981244e-01 4.033504694709932892e-01
4.024429377172531463e-01 4.666343260092737921e-01
4.034045695874082238e-01 3.983220598262384726e-01
