# q (1/Angstrom), Intensity (arb)
2.067508526570814575e-02 5.968510854084839821e+02
2.163671713586316769e-02 6.218547306960772403e+02
2.259834900601819310e-02 6.432301193473846297e+02
2.355998087617321851e-02 6.471190948914454566e+02
2.452161274632824739e-02 6.477348540707990878e+02
2.548324461648326933e-02 6.516869892896572765e+02
2.644487648663829821e-02 6.498773097787275219e+02
2.740650835679332709e-02 6.485910571676914742e+02
2.836814022694834903e-02 6.485372910022797441e+02
2.932977209710337443e-02 6.440063702537696599e+02
3.029140396725839637e-02 6.412700747549483822e+02
3.125303583741342178e-02 6.368197309322779347e+02
3.221466770756845066e-02 6.324999485604460006e+02
3.317629957772347260e-02 6.240671888516301351e+02
3.413793144787850148e-02 6.205799986184708814e+02
3.509956331803352342e-02 6.188010703974533726e+02
3.606119518818855230e-02 6.148496322074870477e+02
3.702282705834358117e-02 6.052690288481139760e+02
3.798445892849860311e-02 6.019373111493556507e+02
3.894609079865363199e-02 5.960103559746144128e+02
3.990772266880865393e-02 5.895626697964047480e+02
4.086935453896367587e-02 5.831027565447075176e+02
4.183098640911870475e-02 5.766328211358504632e+02
4.279261827927372669e-02 5.705387124263583019e+02
4.375425014942875557e-02 5.612831866318235825e+02
4.471588201958377751e-02 5.522389513257718363e+02
4.567751388973880639e-02 5.416978425020406576e+02
4.663914575989382832e-02 5.344903063000301700e+02
4.760077763004885720e-02 5.266689633277537723e+02
4.856240950020387914e-02 5.198394565031436514e+02
4.952404137035890108e-02 5.131306922802664303e+02
5.048567324051392302e-02 5.029052588396514807e+02
5.144730511066895190e-02 4.929263382711521899e+02
5.240893698082397384e-02 4.817900338066246491e+02
5.337056885097899578e-02 4.719130268014084777e+02
5.433220072113403160e-02 4.617821907880488652e+02
5.529383259128905354e-02 4.509531095234598865e+02
5.625546446144407547e-02 4.415516213433905364e+02
5.721709633159910435e-02 4.318838672414113944e+02
5.817872820175412629e-02 4.198060466547198644e+02
5.914036007190914823e-02 4.080867940308626771e+02
6.010199194206417017e-02 4.004236615143690301e+02
6.106362381221920599e-02 3.906838703375050841e+02
6.202525568237422793e-02 3.811067268744103558e+02
6.298688755252924987e-02 3.695538918348066773e+02
6.394851942268428568e-02 3.594954443842585761e+02
6.491015129283930762e-02 3.490221658103133677e+02
6.587178316299432956e-02 3.404415529030521839e+02
6.683341503314935150e-02 3.312084563797238843e+02
6.779504690330438732e-02 3.216745504431862059e+02
6.875667877345940926e-02 3.136352495035367838e+02
6.971831064361443120e-02 3.043278828392816422e+02
7.067994251376945314e-02 2.939987340510395484e+02
7.164157438392447508e-02 2.842066798805590224e+02
7.260320625407949702e-02 2.748384085659404263e+02
7.356483812423453283e-02 2.648597749566588959e+02
7.452646999438955477e-02 2.559168759814056671e+02
7.548810186454457671e-02 2.481814661530835338e+02
7.644973373469959865e-02 2.393019895164459854e+02
7.741136560485463447e-02 2.290971041431483570e+02
7.837299747500965641e-02 2.206291439825513976e+02
7.933462934516467835e-02 2.130338049021573852e+02
8.029626121531971417e-02 2.056937566798062562e+02
8.125789308547473611e-02 1.984005579425108010e+02
8.221952495562975805e-02 1.904773112252750593e+02
8.318115682578479386e-02 1.832519125161793738e+02
8.414278869593981580e-02 1.757943484460272145e+02
8.510442056609483774e-02 1.682712148077795007e+02
8.606605243624985968e-02 1.613051970457806021e+02
8.702768430640489550e-02 1.550379710709039784e+02
8.798931617655991744e-02 1.483906735824522798e+02
8.895094804671493938e-02 1.417136303401829309e+02
8.991257991686996132e-02 1.348980774801644600e+02
9.087421178702498326e-02 1.295917754821695098e+02
9.183584365718000520e-02 1.239165475582075544e+02
9.279747552733502713e-02 1.177197696899496293e+02
9.375910739749006295e-02 1.120158284822975929e+02
9.472073926764508489e-02 1.065310344092678747e+02
9.568237113780010683e-02 1.003194931026325065e+02
9.664400300795514265e-02 9.568499115470230265e+01
9.760563487811016459e-02 9.106729055864575173e+01
9.856726674826518653e-02 8.582196008115573704e+01
9.952889861842022234e-02 8.075237761764873312e+01
1.004905304885752443e-01 7.687396087751395157e+01
1.014521623587302801e-01 7.221866419773350287e+01
1.024137942288853020e-01 6.776442876720946629e+01
1.033754260990403240e-01 6.415325494903436265e+01
1.043370579691953459e-01 6.032748289767450700e+01
1.052986898393503817e-01 5.680505338529297177e+01
1.062603217095053898e-01 5.287460088528955282e+01
1.072219535796604256e-01 4.917585518655132404e+01
1.081835854498154614e-01 4.633770362442914603e+01
1.091452173199704695e-01 4.337724019925077101e+01
1.101068491901255053e-01 4.003412768963886492e+01
1.110684810602805411e-01 3.713793514118351169e+01
1.120301129304355492e-01 3.525286581294717791e+01
1.129917448005905850e-01 3.239397668445204914e+01
1.139533766707456208e-01 3.003362020254574105e+01
1.149150085409006289e-01 2.765686477295685464e+01
1.158766404110556647e-01 2.571718594075060338e+01
1.168382722812106728e-01 2.359908371163017193e+01
1.177999041513657086e-01 2.109429109961651250e+01
1.187615360215207305e-01 1.931285309277955875e+01
1.197231678916757525e-01 1.793233579163317870e+01
1.206847997618307744e-01 1.662250087140087018e+01
1.216464316319858102e-01 1.512524486089921893e+01
1.226080635021408183e-01 1.358703033886054712e+01
1.235696953722958541e-01 1.200100723826727034e+01
1.245313272424508899e-01 1.085781933892125295e+01
1.254929591126059119e-01 9.561513535908662931e+00
1.264545909827609338e-01 8.590976682537466047e+00
1.274162228529159557e-01 8.014018250684305400e+00
1.283778547230709777e-01 6.902646159217969313e+00
1.293394865932259996e-01 5.904021234565430376e+00
1.303011184633810493e-01 5.354621982133100033e+00
1.312627503335360435e-01 4.789886097250054320e+00
1.322243822036910932e-01 4.369531126534258902e+00
1.331860140738460874e-01 4.030938911145732106e+00
1.341476459440011371e-01 3.744073482135434006e+00
1.351092778141561590e-01 2.735868497307681224e+00
1.360709096843111809e-01 1.990070870695529237e+00
1.370325415544662029e-01 1.821126201455960825e+00
1.379941734246212526e-01 1.897430810150048330e+00
1.389558052947762468e-01 1.470953145061969281e+00
1.399174371649312965e-01 1.337922890021488342e+00
1.408790690350863184e-01 1.244945985024052959e+00
1.418407009052413403e-01 1.293197762803416140e+00
1.428023327753963623e-01 1.148448571591348610e+00
1.437639646455513842e-01 9.535250095589802299e-01
1.447255965157064062e-01 1.390502353715035611e+00
1.456872283858614281e-01 1.326867214191842947e+00
1.466488602560164778e-01 1.151781009683574553e+00
1.476104921261714720e-01 1.236216426110711808e+00
1.485721239963265217e-01 1.096139141701655717e+00
1.495337558664815436e-01 1.435865586431344099e+00
1.504953877366365655e-01 1.539716960483914932e+00
1.514570196067915875e-01 1.497604535846424056e+00
1.524186514769466094e-01 1.639405568983477224e+00
1.533802833471016314e-01 1.791082286874676299e+00
1.543419152172566811e-01 2.025318877748155444e+00
1.553035470874116752e-01 2.192226012359022036e+00
1.562651789575667249e-01 2.306225770127287689e+00
1.572268108277217469e-01 2.479566627663160716e+00
1.581884426978767688e-01 2.895085819545283101e+00
1.591500745680317908e-01 3.066466024307668903e+00
1.601117064381868405e-01 3.034674366912398114e+00
1.610733383083418346e-01 3.267763501938741655e+00
1.620349701784968843e-01 3.408192557590304261e+00
1.629966020486519063e-01 3.724402853754327225e+00
1.639582339188069282e-01 3.753729930610827381e+00
1.649198657889619501e-01 4.095498155899882420e+00
1.658814976591169721e-01 4.247416344508078367e+00
1.668431295292719940e-01 4.759651956770298398e+00
1.678047613994270160e-01 4.813845589119537749e+00
1.687663932695820379e-01 4.609197898221790268e+00
1.697280251397370598e-01 4.790603904603273122e+00
1.706896570098921095e-01 4.772873005970581062e+00
1.716512888800471037e-01 5.033417070426729367e+00
1.726129207502021534e-01 5.078542534847816370e+00
1.735745526203571754e-01 5.238598760567523271e+00
1.745361844905121973e-01 5.133091184878711744e+00
1.754978163606672192e-01 5.402756136374314622e+00
1.764594482308222689e-01 5.802845400971488488e+00
1.774210801009772631e-01 5.651449021236231829e+00
1.783827119711323128e-01 5.606480804061941825e+00
1.793443438412873348e-01 5.317188139314431794e+00
1.803059757114423567e-01 5.279568799952986780e+00
1.812676075815973786e-01 5.546365725663324753e+00
1.822292394517524006e-01 5.353864951006300998e+00
1.831908713219074225e-01 5.518239442306814624e+00
1.841525031920624444e-01 5.600983273429225306e+00
1.851141350622174664e-01 5.417981130553783942e+00
1.860757669323724883e-01 5.376248737373675368e+00
1.870373988025275380e-01 5.730939484040138865e+00
1.879990306726825322e-01 5.665533776708954861e+00
1.889606625428375819e-01 5.437015249727405575e+00
1.899222944129926038e-01 5.310963910475209104e+00
1.908839262831476258e-01 5.266510202109692784e+00
1.918455581533026477e-01 5.231465471416036905e+00
1.928071900234576974e-01 5.112205423114843938e+00
1.937688218936126916e-01 5.099336634361254283e+00
1.947304537637677413e-01 4.817347348857033751e+00
1.956920856339227632e-01 4.635797848307852576e+00
1.966537175040777852e-01 4.135552075945284400e+00
1.976153493742328071e-01 4.430923000460442296e+00
1.985769812443878291e-01 4.620250506036395421e+00
1.995386131145428510e-01 4.699893795979630085e+00
2.005002449846978729e-01 4.484367881859839144e+00
2.014618768548528949e-01 4.130251657373133156e+00
2.024235087250079168e-01 3.947687765150917016e+00
2.033851405951629665e-01 3.612437773255802398e+00
2.043467724653179884e-01 3.451251527941384012e+00
2.053084043354730381e-01 3.262134934569498768e+00
2.062700362056280046e-01 2.942150010124056081e+00
2.072316680757830543e-01 3.301194055096839719e+00
2.081932999459380762e-01 3.461818425582176673e+00
2.091549318160931259e-01 3.313306676456988953e+00
2.101165636862481478e-01 2.931009509613431874e+00
2.110781955564031698e-01 2.843054372024827359e+00
2.120398274265581640e-01 2.782738857486943829e+00
2.130014592967132137e-01 2.656256736698882293e+00
2.139630911668682356e-01 2.337503198841332619e+00
2.149247230370232575e-01 2.406207865103059618e+00
2.158863549071783072e-01 2.085409457378901266e+00
2.168479867773333014e-01 1.988098301137885215e+00
2.178096186474883234e-01 2.272570051164606753e+00
2.187712505176433453e-01 1.729459696476681074e+00
2.197328823877983950e-01 1.763708815307975186e+00
2.206945142579534169e-01 1.780512845735675143e+00
2.216561461281084666e-01 1.614349271295669297e+00
2.226177779982634330e-01 1.486511665289448558e+00
2.235794098684184827e-01 1.488281872107137360e+00
2.245410417385735047e-01 1.184912913303367787e+00
2.255026736087285544e-01 9.142797405141962486e-01
2.264643054788835763e-01 7.208507476079688558e-01
2.274259373490385983e-01 9.628143303081095894e-01
2.283875692191935924e-01 9.024039879086060978e-01
2.293492010893486421e-01 7.232422869914891805e-01
2.303108329595036641e-01 7.364773286194967739e-01
2.312724648296586860e-01 9.680432301458417044e-01
2.322340966998137357e-01 7.937967265493774960e-01
2.331957285699687299e-01 8.256535835307978743e-01
2.341573604401237518e-01 7.936080091108550505e-01
2.351189923102787738e-01 7.838089268223171757e-01
2.360806241804338235e-01 3.724771154456618660e-01
2.370422560505888454e-01 5.661177466619449206e-01
2.380038879207438951e-01 5.948393605961541653e-01
2.389655197908988615e-01 4.182547651758987683e-01
2.399271516610539112e-01 3.337824312024793016e-01
2.408887835312089332e-01 3.075102788494561423e-01
2.418504154013639829e-01 4.049172620143686174e-01
2.428120472715190048e-01 3.735515684868886410e-01
2.437736791416740267e-01 3.201796679164203852e-01
2.447353110118290209e-01 3.093604857693428301e-01
2.456969428819840706e-01 4.367186992624390030e-01
2.466585747521390926e-01 3.661430748032614702e-01
2.476202066222941145e-01 3.319012097828739627e-01
2.485818384924491642e-01 5.393568896342380015e-01
2.495434703626041584e-01 5.511904535807126138e-01
2.505051022327591803e-01 4.169618963251089383e-01
2.514667341029142023e-01 4.244744331828975703e-01
2.524283659730692242e-01 4.760841008657550333e-01
2.533899978432243016e-01 4.364260010020188929e-01
2.543516297133793236e-01 1.970934481814978767e-01
2.553132615835342900e-01 3.504764550965049352e-01
2.562748934536893120e-01 4.266066224988165345e-01
2.572365253238443894e-01 5.001299660212374931e-01
2.581981571939994113e-01 4.749616372424299016e-01
2.591597890641544333e-01 2.745316185583881463e-01
2.601214209343094552e-01 5.417923002184217296e-01
2.610830528044644772e-01 6.885072395741964613e-01
2.620446846746194991e-01 5.259726336493280030e-01
2.630063165447745210e-01 5.391843649704206598e-01
2.639679484149295430e-01 6.915655429994451708e-01
2.649295802850845649e-01 4.621859232142391249e-01
2.658912121552395869e-01 6.496793897440866772e-01
2.668528440253946088e-01 6.907073386640725232e-01
2.678144758955496307e-01 5.840829426128024693e-01
2.687761077657046527e-01 7.892113998670460262e-01
2.697377396358597301e-01 9.565261526658943581e-01
2.706993715060147521e-01 8.464246832270596599e-01
2.716610033761697185e-01 7.110884442490217339e-01
2.726226352463247404e-01 6.018262581711049108e-01
2.735842671164798179e-01 5.857163718419506893e-01
2.745458989866348398e-01 5.594480086041002664e-01
2.755075308567898618e-01 7.570883031902724269e-01
2.764691627269448837e-01 9.603722504700051843e-01
2.774307945970999056e-01 9.740296770944532057e-01
2.783924264672549276e-01 8.650899625072341337e-01
2.793540583374099495e-01 9.572253886294781466e-01
2.803156902075649715e-01 8.038008960867628616e-01
2.812773220777199934e-01 7.812099255278113219e-01
2.822389539478750153e-01 9.787394427696192167e-01
2.832005858180300373e-01 1.074941175930192117e+00
2.841622176881850592e-01 1.122591833718935561e+00
2.851238495583400812e-01 8.661509094226786942e-01
2.860854814284951586e-01 9.243967428794341856e-01
2.870471132986501805e-01 8.071229017906134118e-01
2.880087451688051470e-01 7.979930109103179348e-01
2.889703770389601689e-01 8.363632407523375889e-01
2.899320089091152464e-01 8.846558333908660643e-01
2.908936407792702683e-01 9.350093424707779377e-01
2.918552726494252902e-01 9.233945812792683228e-01
2.928169045195803122e-01 8.642896100785470992e-01
2.937785363897353341e-01 9.472519958139962171e-01
2.947401682598903561e-01 6.458313321823005992e-01
2.957018001300453780e-01 9.318364473727314135e-01
2.966634320002003999e-01 9.823649350151306692e-01
2.976250638703554219e-01 9.231729564036648128e-01
2.985866957405104993e-01 8.255693296591566366e-01
2.995483276106654658e-01 7.136912869076788013e-01
3.005099594808204877e-01 8.590172311957324780e-01
3.014715913509755651e-01 9.338258779800199250e-01
3.024332232211305871e-01 7.951227442251891375e-01
3.033948550912856090e-01 6.508788230876696446e-01
3.043564869614405755e-01 5.259323818514651805e-01
3.053181188315956529e-01 7.511635720751534961e-01
3.062797507017506748e-01 9.393502662179216145e-01
3.072413825719056968e-01 6.933384313168495794e-01
3.082030144420607187e-01 7.210673069037767391e-01
3.091646463122157407e-01 4.990341604702308587e-01
3.101262781823707626e-01 4.974618908371333248e-01
3.110879100525257845e-01 5.623790286137726468e-01
3.120495419226808065e-01 3.860677392830602628e-01
3.130111737928358284e-01 3.827777154553864136e-01
3.139728056629909059e-01 5.704497901406533344e-01
3.149344375331459278e-01 7.398566128185315449e-01
3.158960694033008942e-01 7.033067539105068988e-01
3.168577012734559162e-01 5.759426986082587518e-01
3.178193331436109936e-01 4.344835521987278071e-01
3.187809650137660156e-01 4.121259425688883482e-01
3.197425968839210375e-01 3.877203476280506322e-01
3.207042287540760039e-01 5.354907190042688114e-01
3.216658606242310814e-01 3.531299590405296840e-01
3.226274924943861033e-01 4.130172548418045153e-01
3.235891243645411253e-01 4.165715840155534977e-01
3.245507562346961472e-01 4.026755559070380741e-01
3.255123881048511691e-01 4.731034083521024058e-01
3.264740199750061911e-01 4.316528889104525035e-01
3.274356518451612130e-01 3.139744998789559816e-01
3.283972837153162350e-01 3.512820136833170181e-01
3.293589155854712569e-01 4.378282991271333913e-01
3.303205474556263344e-01 4.795537556626818798e-01
3.312821793257813563e-01 4.707662459849437653e-01
3.322438111959363227e-01 3.792774665645453069e-01
3.332054430660913447e-01 3.028500764923585109e-01
3.341670749362464221e-01 1.986109105455149404e-01
3.351287068064014441e-01 1.355710077701566263e-01
3.360903386765564660e-01 2.839280013325904406e-01
3.370519705467114324e-01 1.948817302813203867e-01
3.380136024168665099e-01 2.484305023299206994e-01
3.389752342870215318e-01 2.627574578271065775e-01
3.399368661571765537e-01 2.228363490073412834e-01
3.408984980273315757e-01 1.203069858442304962e-01
3.418601298974865976e-01 0.000000000000000000e+00
3.428217617676416196e-01 2.020262926798395142e-01
3.437833936377966415e-01 4.326621271559041304e-01
3.447450255079516634e-01 4.392157125283304708e-01
3.457066573781066854e-01 4.218255644582242780e-01
3.466682892482617628e-01 2.970088839407054593e-01
3.476299211184167848e-01 3.091696253040829845e-01
3.485915529885717512e-01 1.902685308673177644e-01
3.495531848587267731e-01 2.893322928718724540e-01
3.505148167288818506e-01 2.516886976392456177e-01
3.514764485990368725e-01 2.257307721984851412e-01
3.524380804691918945e-01 4.996811763485595748e-01
3.533997123393468609e-01 6.295679286319888490e-01
3.543613442095019384e-01 5.915229940280717358e-01
3.553229760796569603e-01 3.264859038586322981e-01
3.562846079498119822e-01 2.897225738212974022e-01
3.572462398199670042e-01 3.112877638963595928e-01
3.582078716901220261e-01 3.894976958856695148e-01
3.591695035602770480e-01 3.038183983920497155e-01
3.601311354304320700e-01 3.224263283702519800e-01
3.610927673005870919e-01 3.458100927141956049e-01
3.620543991707421139e-01 2.404832468296014270e-01
3.630160310408971913e-01 2.952732167661515916e-01
3.639776629110522133e-01 2.766566295085972627e-01
3.649392947812071797e-01 1.012084231843530802e-01
3.659009266513622016e-01 1.949235809077940473e-01
3.668625585215172791e-01 3.671625159451110676e-01
3.678241903916723010e-01 4.775838190254653171e-01
3.687858222618273230e-01 3.587496741702693726e-01
3.697474541319822894e-01 6.040286651467852153e-01
3.707090860021373668e-01 5.247701594043654438e-01
3.716707178722923888e-01 4.083749415786748216e-01
3.726323497424474107e-01 4.877905090209573302e-01
3.735939816126024327e-01 3.476118570722874779e-01
3.745556134827574546e-01 3.719238835024754053e-01
3.755172453529124765e-01 4.132736872803626227e-01
3.764788772230674985e-01 3.745096706894166516e-01
3.774405090932225204e-01 9.405807557651613138e-02
3.784021409633775423e-01 3.427241123294209046e-01
3.793637728335326198e-01 4.418641507661824619e-01
3.803254047036876417e-01 4.791661427214144453e-01
3.812870365738426082e-01 3.160497579646062150e-01
3.822486684439976301e-01 2.234845172534356550e-01
3.832103003141527076e-01 3.264176895424988345e-01
3.841719321843077295e-01 3.879491163166512990e-01
3.851335640544627514e-01 3.857047769409334137e-01
3.860951959246177734e-01 3.110166220995829178e-01
3.870568277947727953e-01 4.875627420931074596e-01
3.880184596649278173e-01 5.010620784865054134e-01
3.889800915350828392e-01 5.231184549556289198e-01
3.899417234052378611e-01 4.015470475623352797e-01
3.909033552753928831e-01 4.146645269845272708e-01
3.918649871455479050e-01 4.483228084822989956e-01
3.928266190157029270e-01 5.201680078401764717e-01
3.937882508858579489e-01 5.254144898438255495e-01
3.947498827560129708e-01 4.596955085307605771e-01
3.957115146261680483e-01 4.533107194800720663e-01
3.966731464963230702e-01 4.124832744872648504e-01
3.976347783664780366e-01 4.871150263586407902e-01
3.985964102366330586e-01 4.714423709361952319e-01
3.995580421067881360e-01 5.824732182022316351e-01
4.005196739769430470e-01 4.828260108232633740e-01
4.014813058470981244e-01 3.747451658305358535e-01
4.024429377172531463e-01 4.817016627307424415e-01
4.034045695874082238e-01 5.035415908091565029e-01
