# q (1/Angstrom), Intensity (arb)
2.067508526570814575e-02 4.214870635731892889e+02
2.163671713586316769e-02 4.414529282366157759e+02
2.259834900601819310e-02 4.597767369550028889e+02
2.355998087617321851e-02 4.675368817589325658e+02
2.452161274632824739e-02 4.678243561491694322e+02
2.548324461648326933e-02 4.666992433002372991e+02
2.644487648663829821e-02 4.650206410766352292e+02
2.740650835679332709e-02 4.638864802288377973e+02
2.836814022694834903e-02 4.616990140049098841e+02
2.932977209710337443e-02 4.600729696291493269e+02
3.029140396725839637e-02 4.579907323122603771e+02
3.125303583741342178e-02 4.554152998340290424e+02
3.221466770756845066e-02 4.529480381382131782e+02
3.317629957772347260e-02 4.501579719459389821e+02
3.413793144787850148e-02 4.476691056538570592e+02
3.509956331803352342e-02 4.455960615382588799e+02
3.606119518818855230e-02 4.453436893590723002e+02
3.702282705834358117e-02 4.423936959795730672e+02
3.798445892849860311e-02 4.383299892808438472e+02
3.894609079865363199e-02 4.357734823980916303e+02
3.990772266880865393e-02 4.322845800912187997e+02
4.086935453896367587e-02 4.265874351195421923e+02
4.183098640911870475e-02 4.223013626732249577e+02
4.279261827927372669e-02 4.204361814462756115e+02
4.375425014942875557e-02 4.146286157780004373e+02
4.471588201958377751e-02 4.056281055703917673e+02
4.567751388973880639e-02 4.009861918857154706e+02
4.663914575989382832e-02 3.970523560767558706e+02
4.760077763004885720e-02 3.922843415615317895e+02
4.856240950020387914e-02 3.885765869037510924e+02
4.952404137035890108e-02 3.822197384298426641e+02
5.048567324051392302e-02 3.777491622422657542e+02
5.144730511066895190e-02 3.727803362201628374e+02
5.240893698082397384e-02 3.662487946026305394e+02
5.337056885097899578e-02 3.617457210719053933e+02
5.433220072113403160e-02 3.540062472388800074e+02
5.529383259128905354e-02 3.453440151592698157e+02
5.625546446144407547e-02 3.380405117183657921e+02
5.721709633159910435e-02 3.312592380008504165e+02
5.817872820175412629e-02 3.254135349340886592e+02
5.914036007190914823e-02 3.185382058968262413e+02
6.010199194206417017e-02 3.101875863378182885e+02
6.106362381221920599e-02 3.036221408617924453e+02
6.202525568237422793e-02 2.970613170937829182e+02
6.298688755252924987e-02 2.910674661395493672e+02
6.394851942268428568e-02 2.840640245112390971e+02
6.491015129283930762e-02 2.765383497795978656e+02
6.587178316299432956e-02 2.695000486184478632e+02
6.683341503314935150e-02 2.634083231772547151e+02
6.779504690330438732e-02 2.562313936197415956e+02
6.875667877345940926e-02 2.491980584532190903e+02
6.971831064361443120e-02 2.435467779629135237e+02
7.067994251376945314e-02 2.373065729276108300e+02
7.164157438392447508e-02 2.314432962101948021e+02
7.260320625407949702e-02 2.263918006617270464e+02
7.356483812423453283e-02 2.201533925229930162e+02
7.452646999438955477e-02 2.130321268816003908e+02
7.548810186454457671e-02 2.063892994097250835e+02
7.644973373469959865e-02 2.004074497393675927e+02
7.741136560485463447e-02 1.953596023261595747e+02
7.837299747500965641e-02 1.886773667825453913e+02
7.933462934516467835e-02 1.833488224376722258e+02
8.029626121531971417e-02 1.778747623536433196e+02
8.125789308547473611e-02 1.714867944134411459e+02
8.221952495562975805e-02 1.657694726179385043e+02
8.318115682578479386e-02 1.611236998187433187e+02
8.414278869593981580e-02 1.560531118706514917e+02
8.510442056609483774e-02 1.503693066256035422e+02
8.606605243624985968e-02 1.446075886097184195e+02
8.702768430640489550e-02 1.390627501377454109e+02
8.798931617655991744e-02 1.342904523888600465e+02
8.895094804671493938e-02 1.295288010744218639e+02
8.991257991686996132e-02 1.249110432051900261e+02
9.087421178702498326e-02 1.200682711384218067e+02
9.183584365718000520e-02 1.150607637351354242e+02
9.279747552733502713e-02 1.107842939457690079e+02
9.375910739749006295e-02 1.067368846256698163e+02
9.472073926764508489e-02 1.017844754900758630e+02
9.568237113780010683e-02 9.826278758172246341e+01
9.664400300795514265e-02 9.411320279875118899e+01
9.760563487811016459e-02 8.946535178170964286e+01
9.856726674826518653e-02 8.575895519562033087e+01
9.952889861842022234e-02 8.176006776306327595e+01
1.004905304885752443e-01 7.856700000792389460e+01
1.014521623587302801e-01 7.526830759277598304e+01
1.024137942288853020e-01 7.174726312296346009e+01
1.033754260990403240e-01 6.818925884584874098e+01
1.043370579691953459e-01 6.501331989696643632e+01
1.052986898393503817e-01 6.187203102351789141e+01
1.062603217095053898e-01 5.856364184773302384e+01
1.072219535796604256e-01 5.626835633365296019e+01
1.081835854498154614e-01 5.305537906244866520e+01
1.091452173199704695e-01 5.004287252169903866e+01
1.101068491901255053e-01 4.739652331060703716e+01
1.110684810602805411e-01 4.476262043915664890e+01
1.120301129304355492e-01 4.195604759587753563e+01
1.129917448005905850e-01 3.989964857921885510e+01
1.139533766707456208e-01 3.760635497125484505e+01
1.149150085409006289e-01 3.534252810148265667e+01
1.158766404110556647e-01 3.300503708575570272e+01
1.168382722812106728e-01 3.069758270358926211e+01
1.177999041513657086e-01 2.906029878371267472e+01
1.187615360215207305e-01 2.658162874242716001e+01
1.197231678916757525e-01 2.478732087336401335e+01
1.206847997618307744e-01 2.337299215540692643e+01
1.216464316319858102e-01 2.208979559356899713e+01
1.226080635021408183e-01 2.035570429827012262e+01
1.235696953722958541e-01 1.895417725817508625e+01
1.245313272424508899e-01 1.806057558867632196e+01
1.254929591126059119e-01 1.680994604984870122e+01
1.264545909827609338e-01 1.568275077057962719e+01
1.274162228529159557e-01 1.429870152343437795e+01
1.283778547230709777e-01 1.287675347957231509e+01
1.293394865932259996e-01 1.177644481390877473e+01
1.303011184633810493e-01 1.068018294491741216e+01
1.312627503335360435e-01 9.767882235694482773e+00
1.322243822036910932e-01 9.126878748908936245e+00
1.331860140738460874e-01 8.149492743620470492e+00
1.341476459440011371e-01 7.522140687748407828e+00
1.351092778141561590e-01 7.008776725311236078e+00
1.360709096843111809e-01 6.312333708903953067e+00
1.370325415544662029e-01 5.717076283125251734e+00
1.379941734246212526e-01 5.097764143106431334e+00
1.389558052947762468e-01 4.315518428105097115e+00
1.399174371649312965e-01 3.452141696796189763e+00
1.408790690350863184e-01 3.326719111111657412e+00
1.418407009052413403e-01 3.130820544025418428e+00
1.428023327753963623e-01 2.766933361233149924e+00
1.437639646455513842e-01 2.655326774935662826e+00
1.447255965157064062e-01 2.324585308458708255e+00
1.456872283858614281e-01 2.328330711646355411e+00
1.466488602560164778e-01 1.892153273189272511e+00
1.476104921261714720e-01 1.532678740283294871e+00
1.485721239963265217e-01 1.434694886282162685e+00
1.495337558664815436e-01 1.493857776582697028e+00
1.504953877366365655e-01 9.616333932242504545e-01
1.514570196067915875e-01 7.236282882857665300e-01
1.524186514769466094e-01 1.141336570230624403e+00
1.533802833471016314e-01 1.110350102621364243e+00
1.543419152172566811e-01 6.908890764850212918e-01
1.553035470874116752e-01 7.994030282496709106e-01
1.562651789575667249e-01 9.801499106111357662e-01
1.572268108277217469e-01 9.402529328383302243e-01
1.581884426978767688e-01 1.247387175489453881e+00
1.591500745680317908e-01 1.113735630242292274e+00
1.601117064381868405e-01 1.230144567274138012e+00
1.610733383083418346e-01 1.146329609469290745e+00
1.620349701784968843e-01 1.121310369167144216e+00
1.629966020486519063e-01 1.276240288779344922e+00
1.639582339188069282e-01 1.350154429808352319e+00
1.649198657889619501e-01 1.464167107352132291e+00
1.658814976591169721e-01 1.937570176210840600e+00
1.668431295292719940e-01 2.098475152314261294e+00
1.678047613994270160e-01 1.921238251375015693e+00
1.687663932695820379e-01 2.031473019600859686e+00
1.697280251397370598e-01 2.182124019783309166e+00
1.706896570098921095e-01 2.365441887251908071e+00
1.716512888800471037e-01 2.411266974294566268e+00
1.726129207502021534e-01 2.480013954611408167e+00
1.735745526203571754e-01 2.713069273847231955e+00
1.745361844905121973e-01 2.819686898225555183e+00
1.754978163606672192e-01 2.960759779021532978e+00
1.764594482308222689e-01 2.831744259536982611e+00
1.774210801009772631e-01 2.869869029362828172e+00
1.783827119711323128e-01 2.855234240664316303e+00
1.793443438412873348e-01 2.945375169920080083e+00
1.803059757114423567e-01 3.306547052633774797e+00
1.812676075815973786e-01 3.468831448391796357e+00
1.822292394517524006e-01 3.534223114481900296e+00
1.831908713219074225e-01 3.437840957097325401e+00
1.841525031920624444e-01 3.602325462017258673e+00
1.851141350622174664e-01 3.730653992123304619e+00
1.860757669323724883e-01 3.796207803691125093e+00
1.870373988025275380e-01 3.772252731544988080e+00
1.879990306726825322e-01 3.735465942335462586e+00
1.889606625428375819e-01 3.513620773153892429e+00
1.899222944129926038e-01 3.622775338487617347e+00
1.908839262831476258e-01 3.600728548874208457e+00
1.918455581533026477e-01 3.513654208665464296e+00
1.928071900234576974e-01 3.708741204809729908e+00
1.937688218936126916e-01 3.498613164086691540e+00
1.947304537637677413e-01 3.761272527341109395e+00
1.956920856339227632e-01 3.740820306725641586e+00
1.966537175040777852e-01 3.765221182752007678e+00
1.976153493742328071e-01 3.643590675595529405e+00
1.985769812443878291e-01 3.654461638174073101e+00
1.995386131145428510e-01 3.777566288872179712e+00
2.005002449846978729e-01 4.067445949596937282e+00
2.014618768548528949e-01 3.952733242585473761e+00
2.024235087250079168e-01 3.582664026792901524e+00
2.033851405951629665e-01 3.585020408549798532e+00
2.043467724653179884e-01 3.530711007328690698e+00
2.053084043354730381e-01 3.727587410125607903e+00
2.062700362056280046e-01 3.454067053089019623e+00
2.072316680757830543e-01 3.132592515445594472e+00
2.081932999459380762e-01 3.191164346039151667e+00
2.091549318160931259e-01 3.352661190328291241e+00
2.101165636862481478e-01 3.228098017306606948e+00
2.110781955564031698e-01 3.185166619751235828e+00
2.120398274265581640e-01 2.913580718482208454e+00
2.130014592967132137e-01 3.148028214062811969e+00
2.139630911668682356e-01 3.189400764191166360e+00
2.149247230370232575e-01 2.832823944494890611e+00
2.158863549071783072e-01 2.788584716778078842e+00
2.168479867773333014e-01 2.770736988855453831e+00
2.178096186474883234e-01 2.655919184899889984e+00
2.187712505176433453e-01 2.598610105078460464e+00
2.197328823877983950e-01 2.360767310538658847e+00
2.206945142579534169e-01 2.340403359985895548e+00
2.216561461281084666e-01 2.059259987967905658e+00
2.226177779982634330e-01 1.951079222854350093e+00
2.235794098684184827e-01 1.959779441461556360e+00
2.245410417385735047e-01 1.977174537697216294e+00
2.255026736087285544e-01 2.241852222061773148e+00
2.264643054788835763e-01 2.090628773345791558e+00
2.274259373490385983e-01 1.941124714672085361e+00
2.283875692191935924e-01 1.511577161969185568e+00
2.293492010893486421e-01 1.498068735865519585e+00
2.303108329595036641e-01 1.613359954993818235e+00
2.312724648296586860e-01 1.492587499117426830e+00
2.322340966998137357e-01 1.524854908170219403e+00
2.331957285699687299e-01 1.273124496866934408e+00
2.341573604401237518e-01 1.010460814708029176e+00
2.351189923102787738e-01 1.267713722885620342e+00
2.360806241804338235e-01 1.284918191090024919e+00
2.370422560505888454e-01 1.160892128329280126e+00
2.380038879207438951e-01 8.858842392053958292e-01
2.389655197908988615e-01 9.160521499256581990e-01
2.399271516610539112e-01 6.798676174055451327e-01
2.408887835312089332e-01 7.834424770510857172e-01
2.418504154013639829e-01 8.445509024536974607e-01
2.428120472715190048e-01 6.674149075390580776e-01
2.437736791416740267e-01 4.566190833485066491e-01
2.447353110118290209e-01 4.390066005281241246e-01
2.456969428819840706e-01 2.396692742870314419e-01
2.466585747521390926e-01 3.096152427445453270e-01
2.476202066222941145e-01 2.065807202823108923e-01
2.485818384924491642e-01 3.024274517092813142e-01
2.495434703626041584e-01 2.576121234156047990e-01
2.505051022327591803e-01 3.528081655307389042e-01
2.514667341029142023e-01 6.359738251674329490e-02
2.524283659730692242e-01 4.514886998407874330e-02
2.533899978432243016e-01 1.735776950405387709e-01
2.543516297133793236e-01 4.705427168332079191e-01
2.553132615835342900e-01 5.155597734454957504e-01
2.562748934536893120e-01 4.571032898087921126e-01
2.572365253238443894e-01 4.476515990492373476e-01
2.581981571939994113e-01 3.958180757485543211e-01
2.591597890641544333e-01 1.094575243953208599e-01
2.601214209343094552e-01 1.972815037103785585e-01
2.610830528044644772e-01 2.556649156739041473e-01
2.620446846746194991e-01 2.800176386993911137e-01
2.630063165447745210e-01 2.645784808825553114e-01
2.639679484149295430e-01 3.174869729004932140e-01
2.649295802850845649e-01 2.310633870837648374e-01
2.658912121552395869e-01 3.229213506850676652e-01
2.668528440253946088e-01 2.530229823026353131e-01
2.678144758955496307e-01 2.470418622117769303e-01
2.687761077657046527e-01 1.517718424131686561e-01
2.697377396358597301e-01 1.219395832273768576e-01
2.706993715060147521e-01 2.513950242106339772e-01
2.716610033761697185e-01 1.213797868798387469e-01
2.726226352463247404e-01 5.218852911718485643e-02
2.735842671164798179e-01 2.532955217582966156e-01
2.745458989866348398e-01 3.522370831209649111e-01
2.755075308567898618e-01 4.838366162774327961e-01
2.764691627269448837e-01 4.617638090900619829e-01
2.774307945970999056e-01 3.260119454364378555e-01
2.783924264672549276e-01 5.316564159581211868e-01
2.793540583374099495e-01 5.519174068829819646e-01
2.803156902075649715e-01 3.889368707020679494e-01
2.812773220777199934e-01 1.969238189648088166e-01
2.822389539478750153e-01 5.348659075587498535e-01
2.832005858180300373e-01 3.836097853039355243e-01
2.841622176881850592e-01 4.269942444218521871e-01
2.851238495583400812e-01 4.398238008298172019e-01
2.860854814284951586e-01 5.326142836770628719e-01
2.870471132986501805e-01 7.130047264737910950e-01
2.880087451688051470e-01 6.016690742996182450e-01
2.889703770389601689e-01 5.222645430273118450e-01
2.899320089091152464e-01 4.517484469211154874e-01
2.908936407792702683e-01 2.747272459948675305e-01
2.918552726494252902e-01 4.365383962838613741e-01
2.928169045195803122e-01 5.567204197556456791e-01
2.937785363897353341e-01 6.129084780939457744e-01
2.947401682598903561e-01 4.310479480768734106e-01
2.957018001300453780e-01 4.800082191221477501e-01
2.966634320002003999e-01 6.181989033002111000e-01
2.976250638703554219e-01 6.048155769311094332e-01
2.985866957405104993e-01 6.349209075241901701e-01
2.995483276106654658e-01 7.679859860365318980e-01
3.005099594808204877e-01 7.699289981531372007e-01
3.014715913509755651e-01 8.386645064926447901e-01
3.024332232211305871e-01 7.784611726520509478e-01
3.033948550912856090e-01 7.773190611300755393e-01
3.043564869614405755e-01 7.612225185462726529e-01
3.053181188315956529e-01 4.234329574243638206e-01
3.062797507017506748e-01 6.927768040511637082e-01
3.072413825719056968e-01 9.489138040302051991e-01
3.082030144420607187e-01 8.501767796340260475e-01
3.091646463122157407e-01 5.957952118146288001e-01
3.101262781823707626e-01 5.753747099024764111e-01
3.110879100525257845e-01 6.883733377958627386e-01
3.120495419226808065e-01 7.457221792400154925e-01
3.130111737928358284e-01 6.563651864093067445e-01
3.139728056629909059e-01 4.986273289828346833e-01
3.149344375331459278e-01 3.132345194209413819e-01
3.158960694033008942e-01 2.348115873826372990e-01
3.168577012734559162e-01 5.295920445175035240e-01
3.178193331436109936e-01 5.993456750995207472e-01
3.187809650137660156e-01 5.666803620266875896e-01
3.197425968839210375e-01 4.078478212406686509e-01
3.207042287540760039e-01 3.473320237040660174e-01
3.216658606242310814e-01 3.281581262608064264e-01
3.226274924943861033e-01 3.383925454810032818e-01
3.235891243645411253e-01 6.196363472404904371e-01
3.245507562346961472e-01 7.632214919644582096e-01
3.255123881048511691e-01 4.904304251658935243e-01
3.264740199750061911e-01 4.581770040728763149e-01
3.274356518451612130e-01 5.318148444788732832e-01
3.283972837153162350e-01 5.636121234732485163e-01
3.293589155854712569e-01 4.318614707185410850e-01
3.303205474556263344e-01 2.985904775434491398e-01
3.312821793257813563e-01 3.187897037752627227e-01
3.322438111959363227e-01 2.909037742513476132e-01
3.332054430660913447e-01 4.043985172109287873e-01
3.341670749362464221e-01 4.184798681262371645e-01
3.351287068064014441e-01 4.824577845433957179e-01
3.360903386765564660e-01 5.690516982811573143e-01
3.370519705467114324e-01 5.447611999092529800e-01
3.380136024168665099e-01 4.570495706266441971e-01
3.389752342870215318e-01 4.936722580806716110e-01
3.399368661571765537e-01 5.473127514429805274e-01
3.408984980273315757e-01 3.963108920460456375e-01
3.418601298974865976e-01 3.881703443633846007e-01
3.428217617676416196e-01 4.143086104872715225e-01
3.437833936377966415e-01 4.644769371549166692e-01
3.447450255079516634e-01 4.987109504416231687e-01
3.457066573781066854e-01 4.436823719094533658e-01
3.466682892482617628e-01 3.470403434933757580e-01
3.476299211184167848e-01 3.402877113798830067e-01
3.485915529885717512e-01 2.219007376692445632e-01
3.495531848587267731e-01 2.501377099617734245e-01
3.505148167288818506e-01 3.214226232251498061e-01
3.514764485990368725e-01 3.110266160057051366e-01
3.524380804691918945e-01 3.052554320788196662e-01
3.533997123393468609e-01 1.167873957044953670e-01
3.543613442095019384e-01 3.452862524360256202e-02
3.553229760796569603e-01 1.327885243924029623e-01
3.562846079498119822e-01 2.252434161024474690e-01
3.572462398199670042e-01 1.498005408862468357e-01
3.582078716901220261e-01 2.948619199987874140e-01
3.591695035602770480e-01 3.368939248671765085e-01
3.601311354304320700e-01 1.935815379762324540e-01
3.610927673005870919e-01 2.777749918353329406e-01
3.620543991707421139e-01 3.847935009603205003e-01
3.630160310408971913e-01 3.570985153861059302e-01
3.639776629110522133e-01 1.704457405821919735e-01
3.649392947812071797e-01 1.858101633204434222e-01
3.659009266513622016e-01 2.790430767143199375e-01
3.668625585215172791e-01 2.854129334841282173e-01
3.678241903916723010e-01 1.132604665110541475e-01
3.687858222618273230e-01 1.313613653117080560e-01
3.697474541319822894e-01 1.639483423870977674e-01
3.707090860021373668e-01 1.437971715842287779e-01
3.716707178722923888e-01 7.520664262921528120e-02
3.726323497424474107e-01 1.610457805883100946e-01
3.735939816126024327e-01 2.675606032993087524e-01
3.745556134827574546e-01 3.483764029383245031e-01
3.755172453529124765e-01 2.954996690980777885e-01
3.764788772230674985e-01 2.430352942865354748e-01
3.774405090932225204e-01 1.080321729803976893e-01
3.784021409633775423e-01 2.080388782543067805e-01
3.793637728335326198e-01 1.609956412596389441e-01
3.803254047036876417e-01 2.242993877344510167e-01
3.812870365738426082e-01 8.578903098876367039e-02
3.822486684439976301e-01 7.799649194978286459e-02
3.832103003141527076e-01 9.477706878627500942e-02
3.841719321843077295e-01 1.387209594772045307e-01
3.851335640544627514e-01 3.258103335725195393e-01
3.860951959246177734e-01 3.261023623749359501e-01
3.870568277947727953e-01 2.541686671306599976e-01
3.880184596649278173e-01 1.826688855547224932e-01
3.889800915350828392e-01 1.303917050630865049e-01
3.899417234052378611e-01 1.976513158839452444e-01
3.909033552753928831e-01 3.238324223897777188e-01
3.918649871455479050e-01 4.565605437015172186e-01
3.928266190157029270e-01 3.250927198151778441e-01
3.937882508858579489e-01 3.387176940294764904e-01
3.947498827560129708e-01 1.570062833852361450e-01
3.957115146261680483e-01 1.651633328143233825e-01
3.966731464963230702e-01 1.312460509165020994e-01
3.976347783664780366e-01 1.236856159479238215e-01
3.985964102366330586e-01 1.963890134835182266e-01
3.995580421067881360e-01 1.847813891985801149e-01
4.005196739769430470e-01 1.805569511950864126e-01
4.014813058470981244e-01 2.045710535946021480e-01
4.024429377172531463e-01 1.676898611538675254e-01
4.034045695874082238e-01 2.130066339953202714e-01
