# q (1/Angstrom), Intensity (arb)
2.067508526570814575e-02 6.000894320474726555e+02
2.163671713586316769e-02 6.269219002579233120e+02
2.259834900601819310e-02 6.458320196610044377e+02
2.355998087617321851e-02 6.535180229298781569e+02
2.452161274632824739e-02 6.554771004713039702e+02
2.548324461648326933e-02 6.539572047541465736e+02
2.644487648663829821e-02 6.496437127934464115e+02
2.740650835679332709e-02 6.514951496113122857e+02
2.836814022694834903e-02 6.499153329543454447e+02
2.932977209710337443e-02 6.446783825357211981e+02
3.029140396725839637e-02 6.430365509364257832e+02
3.125303583741342178e-02 6.363247734193904535e+02
3.221466770756845066e-02 6.321731795120992956e+02
3.317629957772347260e-02 6.288871103579010651e+02
3.413793144787850148e-02 6.241655671340766958e+02
3.509956331803352342e-02 6.188134630657597199e+02
3.606119518818855230e-02 6.153195913576136036e+02
3.702282705834358117e-02 6.113650400801301430e+02
3.798445892849860311e-02 6.058674564394794970e+02
3.894609079865363199e-02 5.979680275396485740e+02
3.990772266880865393e-02 5.909203897985120193e+02
4.086935453896367587e-02 5.849167637967083238e+02
4.183098640911870475e-02 5.789117817954894463e+02
4.279261827927372669e-02 5.742160549382068666e+02
4.375425014942875557e-02 5.642904885146213019e+02
4.471588201958377751e-02 5.566118157179837453e+02
4.567751388973880639e-02 5.491010531570469766e+02
4.663914575989382832e-02 5.413990644607684999e+02
4.760077763004885720e-02 5.318613676016532281e+02
4.856240950020387914e-02 5.260944548642396512e+02
4.952404137035890108e-02 5.177635655298912525e+02
5.048567324051392302e-02 5.067687070062739849e+02
5.144730511066895190e-02 4.976826448350485066e+02
5.240893698082397384e-02 4.871052344344598168e+02
5.337056885097899578e-02 4.790767660443405589e+02
5.433220072113403160e-02 4.697910309302382075e+02
5.529383259128905354e-02 4.590770753807177016e+02
5.625546446144407547e-02 4.488290363562808807e+02
5.721709633159910435e-02 4.364914362634279996e+02
5.817872820175412629e-02 4.271505162334615875e+02
5.914036007190914823e-02 4.170754321734270889e+02
6.010199194206417017e-02 4.061518637589305740e+02
6.106362381221920599e-02 3.945312624415875007e+02
6.202525568237422793e-02 3.828195429504187359e+02
6.298688755252924987e-02 3.725718197413568760e+02
6.394851942268428568e-02 3.638508865516006381e+02
6.491015129283930762e-02 3.542985814953437966e+02
6.587178316299432956e-02 3.440364567329231136e+02
6.683341503314935150e-02 3.346647038552823687e+02
6.779504690330438732e-02 3.250741780439444142e+02
6.875667877345940926e-02 3.139383518044064658e+02
6.971831064361443120e-02 3.049891877772237194e+02
7.067994251376945314e-02 2.959403408166257350e+02
7.164157438392447508e-02 2.863441219182481632e+02
7.260320625407949702e-02 2.777970481845400741e+02
7.356483812423453283e-02 2.685538393057877897e+02
7.452646999438955477e-02 2.612802564580701414e+02
7.548810186454457671e-02 2.509977876201369043e+02
7.644973373469959865e-02 2.416182537281274847e+02
7.741136560485463447e-02 2.332664679722710730e+02
7.837299747500965641e-02 2.253531456308770657e+02
7.933462934516467835e-02 2.172459294898225721e+02
8.029626121531971417e-02 2.088478284102938289e+02
8.125789308547473611e-02 2.022330671951136196e+02
8.221952495562975805e-02 1.941184108870066325e+02
8.318115682578479386e-02 1.858283507453196535e+02
8.414278869593981580e-02 1.788993556264048266e+02
8.510442056609483774e-02 1.708886476395711611e+02
8.606605243624985968e-02 1.638896272197746953e+02
8.702768430640489550e-02 1.573240136944032201e+02
8.798931617655991744e-02 1.509230328442743883e+02
8.895094804671493938e-02 1.436131652629912878e+02
8.991257991686996132e-02 1.381538976137212273e+02
9.087421178702498326e-02 1.323503771895782393e+02
9.183584365718000520e-02 1.262773757030604145e+02
9.279747552733502713e-02 1.202553265970312850e+02
9.375910739749006295e-02 1.140523768089730083e+02
9.472073926764508489e-02 1.089482064877491041e+02
9.568237113780010683e-02 1.031082153415825218e+02
9.664400300795514265e-02 9.743859565342916085e+01
9.760563487811016459e-02 9.238489059733262820e+01
9.856726674826518653e-02 8.733893373915756797e+01
9.952889861842022234e-02 8.230917351612305310e+01
1.004905304885752443e-01 7.820140576571154156e+01
1.014521623587302801e-01 7.415973661023281238e+01
1.024137942288853020e-01 7.014025740044304769e+01
1.033754260990403240e-01 6.543301118460043142e+01
1.043370579691953459e-01 6.156096004245939213e+01
1.052986898393503817e-01 5.810058089355192124e+01
1.062603217095053898e-01 5.509085109572789918e+01
1.072219535796604256e-01 5.092312035322947850e+01
1.081835854498154614e-01 4.726887769852054078e+01
1.091452173199704695e-01 4.436491765038920221e+01
1.101068491901255053e-01 4.138403558549303085e+01
1.110684810602805411e-01 3.881972695437579546e+01
1.120301129304355492e-01 3.619227772289237066e+01
1.129917448005905850e-01 3.330164510244622988e+01
1.139533766707456208e-01 3.033127035199583688e+01
1.149150085409006289e-01 2.854226877452339295e+01
1.158766404110556647e-01 2.625893038359249232e+01
1.168382722812106728e-01 2.400897697121759933e+01
1.177999041513657086e-01 2.230904192199993830e+01
1.187615360215207305e-01 1.998239640935981498e+01
1.197231678916757525e-01 1.829636816475128214e+01
1.206847997618307744e-01 1.696955244096207593e+01
1.216464316319858102e-01 1.546458532075891057e+01
1.226080635021408183e-01 1.363505867802962612e+01
1.235696953722958541e-01 1.245975250771942555e+01
1.245313272424508899e-01 1.117792310558424873e+01
1.254929591126059119e-01 9.967424754706861734e+00
1.264545909827609338e-01 8.816765214586141042e+00
1.274162228529159557e-01 7.997903660288155692e+00
1.283778547230709777e-01 7.131795264887344388e+00
1.293394865932259996e-01 6.281052114647948770e+00
1.303011184633810493e-01 5.607993637375027873e+00
1.312627503335360435e-01 4.784174858168078970e+00
1.322243822036910932e-01 4.279925850882161598e+00
1.331860140738460874e-01 3.697535023007787913e+00
1.341476459440011371e-01 3.389279204254915356e+00
1.351092778141561590e-01 3.043085687228455072e+00
1.360709096843111809e-01 2.620397718197502002e+00
1.370325415544662029e-01 2.142321107138066338e+00
1.379941734246212526e-01 2.029643388615948396e+00
1.389558052947762468e-01 1.681460601408275579e+00
1.399174371649312965e-01 1.064738402497038550e+00
1.408790690350863184e-01 1.049475443409118469e+00
1.418407009052413403e-01 9.842916509841472816e-01
1.428023327753963623e-01 1.158711742766438846e+00
1.437639646455513842e-01 8.934434172131098251e-01
1.447255965157064062e-01 9.566563640023133530e-01
1.456872283858614281e-01 8.507399594449047697e-01
1.466488602560164778e-01 9.833392558471736322e-01
1.476104921261714720e-01 1.299884853351734648e+00
1.485721239963265217e-01 1.357221562743582410e+00
1.495337558664815436e-01 1.576546696536656356e+00
1.504953877366365655e-01 1.500811381424668411e+00
1.514570196067915875e-01 1.381502550615756775e+00
1.524186514769466094e-01 1.761874651582491680e+00
1.533802833471016314e-01 1.695242587907923593e+00
1.543419152172566811e-01 1.657962270727370679e+00
1.553035470874116752e-01 2.271202438369130050e+00
1.562651789575667249e-01 2.439388985903843121e+00
1.572268108277217469e-01 3.060685592764293972e+00
1.581884426978767688e-01 3.151721251392572754e+00
1.591500745680317908e-01 3.042771386264089273e+00
1.601117064381868405e-01 2.985316867876477431e+00
1.610733383083418346e-01 2.875316800127606598e+00
1.620349701784968843e-01 3.279722796489984660e+00
1.629966020486519063e-01 3.610838447989518585e+00
1.639582339188069282e-01 4.080357333676982279e+00
1.649198657889619501e-01 4.279293633726947377e+00
1.658814976591169721e-01 4.048217492050689259e+00
1.668431295292719940e-01 4.128417614894839716e+00
1.678047613994270160e-01 4.351905234114067156e+00
1.687663932695820379e-01 4.448044373728297529e+00
1.697280251397370598e-01 4.840775051341790203e+00
1.706896570098921095e-01 5.017109442837746514e+00
1.716512888800471037e-01 5.147539957731488869e+00
1.726129207502021534e-01 5.121430524059903178e+00
1.735745526203571754e-01 5.113921693407082358e+00
1.745361844905121973e-01 5.274887327606187171e+00
1.754978163606672192e-01 5.300717533686142957e+00
1.764594482308222689e-01 5.356822932979227403e+00
1.774210801009772631e-01 5.622891181643677072e+00
1.783827119711323128e-01 5.438904398628810810e+00
1.793443438412873348e-01 5.116200604635768201e+00
1.803059757114423567e-01 5.348068592193882864e+00
1.812676075815973786e-01 5.764589205873996036e+00
1.822292394517524006e-01 5.353803090459440028e+00
1.831908713219074225e-01 5.441788611385497632e+00
1.841525031920624444e-01 5.502588544100280643e+00
1.851141350622174664e-01 5.576020565309125487e+00
1.860757669323724883e-01 5.894611440306690042e+00
1.870373988025275380e-01 5.510766371780846384e+00
1.879990306726825322e-01 5.433277814581263243e+00
1.889606625428375819e-01 5.480186864081431963e+00
1.899222944129926038e-01 5.261494405179988121e+00
1.908839262831476258e-01 5.274650652387986582e+00
1.918455581533026477e-01 5.078139421209218796e+00
1.928071900234576974e-01 5.171490124123238274e+00
1.937688218936126916e-01 5.028684453972079638e+00
1.947304537637677413e-01 4.920516349847517290e+00
1.956920856339227632e-01 4.866060363520716692e+00
1.966537175040777852e-01 4.780617373900909683e+00
1.976153493742328071e-01 4.524592977371185043e+00
1.985769812443878291e-01 4.360273616577917011e+00
1.995386131145428510e-01 4.389054738310683490e+00
2.005002449846978729e-01 4.299529720090873752e+00
2.014618768548528949e-01 4.389533562935831412e+00
2.024235087250079168e-01 3.991200961108518186e+00
2.033851405951629665e-01 3.759231282702444332e+00
2.043467724653179884e-01 3.431866021446484893e+00
2.053084043354730381e-01 3.315223377028452489e+00
2.062700362056280046e-01 3.272741183236554718e+00
2.072316680757830543e-01 3.055117327312945719e+00
2.081932999459380762e-01 2.880266326556093048e+00
2.091549318160931259e-01 2.818784078101934654e+00
2.101165636862481478e-01 2.913981102346987484e+00
2.110781955564031698e-01 2.891887929693364612e+00
2.120398274265581640e-01 2.605898911027829001e+00
2.130014592967132137e-01 2.584866006942121430e+00
2.139630911668682356e-01 2.612397739220153170e+00
2.149247230370232575e-01 2.663683287943541700e+00
2.158863549071783072e-01 2.424282458563158826e+00
2.168479867773333014e-01 2.054529419119091926e+00
2.178096186474883234e-01 1.852740988697256341e+00
2.187712505176433453e-01 1.761363088671558330e+00
2.197328823877983950e-01 1.698061922753481667e+00
2.206945142579534169e-01 1.684247612302360864e+00
2.216561461281084666e-01 1.448083097742731695e+00
2.226177779982634330e-01 1.609413833509513836e+00
2.235794098684184827e-01 1.468463975762269058e+00
2.245410417385735047e-01 1.151432978761111059e+00
2.255026736087285544e-01 1.320059135738528511e+00
2.264643054788835763e-01 1.183775869454141372e+00
2.274259373490385983e-01 1.067769661365787215e+00
2.283875692191935924e-01 9.017241401249336263e-01
2.293492010893486421e-01 8.706260396588483275e-01
2.303108329595036641e-01 9.519065365637295884e-01
2.312724648296586860e-01 7.609840882739113965e-01
2.322340966998137357e-01 6.406950924401613179e-01
2.331957285699687299e-01 5.344767822120246592e-01
2.341573604401237518e-01 5.136003984548942469e-01
2.351189923102787738e-01 3.977606240920330549e-01
2.360806241804338235e-01 2.152404448820774974e-01
2.370422560505888454e-01 3.464741743473318536e-01
2.380038879207438951e-01 4.385164770422775860e-01
2.389655197908988615e-01 5.307465757507756621e-01
2.399271516610539112e-01 4.789410519070749217e-01
2.408887835312089332e-01 6.069631217662028178e-01
2.418504154013639829e-01 4.056637780061436160e-01
2.428120472715190048e-01 2.919482211130777216e-01
2.437736791416740267e-01 1.682459623137297910e-01
2.447353110118290209e-01 1.580314211139111080e-01
2.456969428819840706e-01 9.664665127616345330e-02
2.466585747521390926e-01 1.187659722883047664e-01
2.476202066222941145e-01 2.288890913936469929e-01
2.485818384924491642e-01 2.864373577036509744e-01
2.495434703626041584e-01 4.162712377272939079e-01
2.505051022327591803e-01 3.155652991471811220e-01
2.514667341029142023e-01 2.116372290603756312e-01
2.524283659730692242e-01 3.612886640247836567e-01
2.533899978432243016e-01 4.312281811020675093e-01
2.543516297133793236e-01 5.034084322092127195e-01
2.553132615835342900e-01 4.194500107756482521e-01
2.562748934536893120e-01 2.852479641459559900e-01
2.572365253238443894e-01 4.653238377323205555e-01
2.581981571939994113e-01 3.598369743373339702e-01
2.591597890641544333e-01 2.944620795967693994e-01
2.601214209343094552e-01 1.844866186622553528e-01
2.610830528044644772e-01 4.308374779158405943e-01
2.620446846746194991e-01 4.651274370418327919e-01
2.630063165447745210e-01 4.214321479054845554e-01
2.639679484149295430e-01 6.683693937763202086e-01
2.649295802850845649e-01 1.044841310738888751e+00
2.658912121552395869e-01 9.515505658700540437e-01
2.668528440253946088e-01 5.133802117345496185e-01
2.678144758955496307e-01 6.385026810371670081e-01
2.687761077657046527e-01 7.191130147372426507e-01
2.697377396358597301e-01 6.604438988407999034e-01
2.706993715060147521e-01 7.770727221166353615e-01
2.716610033761697185e-01 7.973266168346455629e-01
2.726226352463247404e-01 7.956431089273969803e-01
2.735842671164798179e-01 7.675225723520391341e-01
2.745458989866348398e-01 5.573831123268000454e-01
2.755075308567898618e-01 5.244703776290933206e-01
2.764691627269448837e-01 5.882627907818935853e-01
2.774307945970999056e-01 7.903639457565283521e-01
2.783924264672549276e-01 8.830636007970191770e-01
2.793540583374099495e-01 9.547794662111748210e-01
2.803156902075649715e-01 8.956182826331406943e-01
2.812773220777199934e-01 6.543658412806721003e-01
2.822389539478750153e-01 7.843219707845463518e-01
2.832005858180300373e-01 9.023982437442050752e-01
2.841622176881850592e-01 7.921545619396539450e-01
2.851238495583400812e-01 8.103231695867663120e-01
2.860854814284951586e-01 9.559362176305050696e-01
2.870471132986501805e-01 1.023927720327030499e+00
2.880087451688051470e-01 8.949207559995961958e-01
2.889703770389601689e-01 8.383615218885154263e-01
2.899320089091152464e-01 8.591620379210915814e-01
2.908936407792702683e-01 8.904760849964574732e-01
2.918552726494252902e-01 9.514814117969763174e-01
2.928169045195803122e-01 9.069264432357684314e-01
2.937785363897353341e-01 9.338509059928128409e-01
2.947401682598903561e-01 8.985224042264228217e-01
2.957018001300453780e-01 8.046646771990708658e-01
2.966634320002003999e-01 7.826930901571280685e-01
2.976250638703554219e-01 7.538084185309621432e-01
2.985866957405104993e-01 1.010069793046643127e+00
2.995483276106654658e-01 8.433715456795489729e-01
3.005099594808204877e-01 5.646324555581507809e-01
3.014715913509755651e-01 7.480858109295560610e-01
3.024332232211305871e-01 5.720385929941507186e-01
3.033948550912856090e-01 5.807445448437817959e-01
3.043564869614405755e-01 7.462175455096584642e-01
3.053181188315956529e-01 7.528582679812565459e-01
3.062797507017506748e-01 8.271318538126877229e-01
3.072413825719056968e-01 7.001268044076205399e-01
3.082030144420607187e-01 5.448456376934629475e-01
3.091646463122157407e-01 4.363019703114403569e-01
3.101262781823707626e-01 3.666796172135491361e-01
3.110879100525257845e-01 4.777798662834236154e-01
3.120495419226808065e-01 3.740041559903026780e-01
3.130111737928358284e-01 5.690826991734425633e-01
3.139728056629909059e-01 7.833453585019647392e-01
3.149344375331459278e-01 9.212441139093563436e-01
3.158960694033008942e-01 7.451494323564098465e-01
3.168577012734559162e-01 7.281203596779910470e-01
3.178193331436109936e-01 6.051049926817668734e-01
3.187809650137660156e-01 4.701628429909305851e-01
3.197425968839210375e-01 3.956946120011934909e-01
3.207042287540760039e-01 4.667694326189710807e-01
3.216658606242310814e-01 5.418284225727916237e-01
3.226274924943861033e-01 4.742929036109622132e-01
3.235891243645411253e-01 3.989779489070279794e-01
3.245507562346961472e-01 1.809481569403352808e-01
3.255123881048511691e-01 2.766556176866252770e-01
3.264740199750061911e-01 2.249399212705789353e-01
3.274356518451612130e-01 4.734908744020849269e-01
3.283972837153162350e-01 4.186366760865425363e-01
3.293589155854712569e-01 3.135251501120279727e-01
3.303205474556263344e-01 3.591089106060074698e-01
3.312821793257813563e-01 2.483852934484467312e-01
3.322438111959363227e-01 3.058797493060829709e-01
3.332054430660913447e-01 2.323787519155970926e-01
3.341670749362464221e-01 3.373264071236903305e-02
3.351287068064014441e-01 4.933822255443942595e-02
3.360903386765564660e-01 1.331266673955298074e-01
3.370519705467114324e-01 1.392784583771060625e-01
3.380136024168665099e-01 4.225102094111896633e-01
3.389752342870215318e-01 4.574865149833584610e-01
3.399368661571765537e-01 2.955906556812806230e-01
3.408984980273315757e-01 1.813629439203303662e-01
3.418601298974865976e-01 2.361810481856281285e-01
3.428217617676416196e-01 4.266725931535901850e-01
3.437833936377966415e-01 3.587266558067803146e-01
3.447450255079516634e-01 1.310505278808697938e-01
3.457066573781066854e-01 2.627883305694354021e-01
3.466682892482617628e-01 2.224193299408945279e-01
3.476299211184167848e-01 2.805429354205131176e-01
3.485915529885717512e-01 2.479991146064577379e-01
3.495531848587267731e-01 2.084375034330818721e-01
3.505148167288818506e-01 2.238282843839023428e-01
3.514764485990368725e-01 3.929363073490534930e-01
3.524380804691918945e-01 4.303943736730531100e-01
3.533997123393468609e-01 3.397255385396142913e-01
3.543613442095019384e-01 1.939305932058168480e-01
3.553229760796569603e-01 2.686897018080216526e-01
3.562846079498119822e-01 5.099561409677804136e-01
3.572462398199670042e-01 4.156893011121489678e-01
3.582078716901220261e-01 2.370495197907409590e-01
3.591695035602770480e-01 3.907864043552393696e-01
3.601311354304320700e-01 3.447993039685854910e-01
3.610927673005870919e-01 3.451016313019970028e-01
3.620543991707421139e-01 2.761374676441192832e-01
3.630160310408971913e-01 3.027066792761523573e-01
3.639776629110522133e-01 0.000000000000000000e+00
3.649392947812071797e-01 6.622012786133169016e-02
3.659009266513622016e-01 1.446375879492158845e-01
3.668625585215172791e-01 3.145105904558604948e-01
3.678241903916723010e-01 2.319180606890469676e-01
3.687858222618273230e-01 2.206279834722337796e-01
3.697474541319822894e-01 3.502306278713653853e-01
3.707090860021373668e-01 2.227402648121064033e-01
3.716707178722923888e-01 3.317815257707898979e-01
3.726323497424474107e-01 4.305093456109823080e-01
3.735939816126024327e-01 4.323614582804999884e-01
3.745556134827574546e-01 4.492878465573681979e-01
3.755172453529124765e-01 4.483492804648854246e-01
3.764788772230674985e-01 4.742196619392586854e-01
3.774405090932225204e-01 3.970752901708607396e-01
3.784021409633775423e-01 3.043727497686283812e-01
3.793637728335326198e-01 2.929529560779684516e-01
3.803254047036876417e-01 3.810480473914381605e-01
3.812870365738426082e-01 6.311679487607797512e-01
3.822486684439976301e-01 6.272650173790061956e-01
3.832103003141527076e-01 5.779186325334535468e-01
3.841719321843077295e-01 4.246552679883137671e-01
3.851335640544627514e-01 2.579106384925751172e-01
3.860951959246177734e-01 2.583364679641881878e-01
3.870568277947727953e-01 4.024633507444477232e-01
3.880184596649278173e-01 2.866387999170747491e-01
3.889800915350828392e-01 3.637563890835444624e-01
3.899417234052378611e-01 5.666043538667757673e-01
3.909033552753928831e-01 4.784688482251553410e-01
3.918649871455479050e-01 3.011373942454511621e-01
3.928266190157029270e-01 3.003812671916428201e-01
3.937882508858579489e-01 4.165254106241285115e-01
3.947498827560129708e-01 5.263505705092512699e-01
3.957115146261680483e-01 5.364746485461253656e-01
3.966731464963230702e-01 4.023379150488040068e-01
3.976347783664780366e-01 3.262556622448151700e-01
3.985964102366330586e-01 2.832501794526933736e-01
3.995580421067881360e-01 3.347221135210673992e-01
4.005196739769430470e-01 3.252264723326874218e-01
4.014813058470981244e-01 3.539599143794802671e-01
4.024429377172531463e-01 3.369375494093205248e-01
4.034045695874082238e-01 3.715500773609079488e-01
