# q (1/Angstrom), Intensity (arb)
2.067508526570814575e-02 6.072868900431203656e+02
2.163671713586316769e-02 6.296040674442583622e+02
2.259834900601819310e-02 6.551570138935338719e+02
2.355998087617321851e-02 6.625932387950409748e+02
2.452161274632824739e-02 6.634191937995854005e+02
2.548324461648326933e-02 6.631798870240797896e+02
2.644487648663829821e-02 6.629584082187652712e+02
2.740650835679332709e-02 6.601822534711263870e+02
2.836814022694834903e-02 6.566792176767008868e+02
2.932977209710337443e-02 6.576225326254872243e+02
3.029140396725839637e-02 6.545709293341067223e+02
3.125303583741342178e-02 6.481471928993414622e+02
3.221466770756845066e-02 6.434262673872151481e+02
3.317629957772347260e-02 6.372744290052587530e+02
3.413793144787850148e-02 6.300328102225339535e+02
3.509956331803352342e-02 6.245216438654711055e+02
3.606119518818855230e-02 6.232598402348100990e+02
3.702282705834358117e-02 6.196347545182366048e+02
3.798445892849860311e-02 6.109295085006377803e+02
3.894609079865363199e-02 6.034437927057502975e+02
3.990772266880865393e-02 5.999843243436049534e+02
4.086935453896367587e-02 5.925313257882398830e+02
4.183098640911870475e-02 5.846276701924085728e+02
4.279261827927372669e-02 5.779363072337508811e+02
4.375425014942875557e-02 5.701655750680910160e+02
4.471588201958377751e-02 5.615103614917437653e+02
4.567751388973880639e-02 5.534831605685482145e+02
4.663914575989382832e-02 5.434578376254389696e+02
4.760077763004885720e-02 5.362572326191698266e+02
4.856240950020387914e-02 5.310166250447548464e+02
4.952404137035890108e-02 5.197976169889705034e+02
5.048567324051392302e-02 5.104436688092332020e+02
5.144730511066895190e-02 5.013057855923000261e+02
5.240893698082397384e-02 4.915254848530099707e+02
5.337056885097899578e-02 4.815038333572742317e+02
5.433220072113403160e-02 4.691630473324760828e+02
5.529383259128905354e-02 4.604899018898365739e+02
5.625546446144407547e-02 4.492697706566295892e+02
5.721709633159910435e-02 4.379141425360526796e+02
5.817872820175412629e-02 4.274206175882417824e+02
5.914036007190914823e-02 4.198165493555507624e+02
6.010199194206417017e-02 4.101122213556454312e+02
6.106362381221920599e-02 3.986199228121049032e+02
6.202525568237422793e-02 3.860688906281841923e+02
6.298688755252924987e-02 3.755615654769391085e+02
6.394851942268428568e-02 3.645046475488968554e+02
6.491015129283930762e-02 3.547413698604891579e+02
6.587178316299432956e-02 3.458694782401533985e+02
6.683341503314935150e-02 3.365019121936964552e+02
6.779504690330438732e-02 3.273172358587532926e+02
6.875667877345940926e-02 3.170089347430678117e+02
6.971831064361443120e-02 3.068659661840324588e+02
7.067994251376945314e-02 2.983251604352546451e+02
7.164157438392447508e-02 2.873297527849588846e+02
7.260320625407949702e-02 2.779704101210618319e+02
7.356483812423453283e-02 2.684243284143927326e+02
7.452646999438955477e-02 2.608829100815354423e+02
7.548810186454457671e-02 2.514563433841080666e+02
7.644973373469959865e-02 2.433987067497765793e+02
7.741136560485463447e-02 2.360411302288924844e+02
7.837299747500965641e-02 2.269692952896004385e+02
7.933462934516467835e-02 2.182795411551747691e+02
8.029626121531971417e-02 2.096502494409551787e+02
8.125789308547473611e-02 2.015602834828648611e+02
8.221952495562975805e-02 1.946227095554438620e+02
8.318115682578479386e-02 1.875026496104545117e+02
8.414278869593981580e-02 1.792408459125197453e+02
8.510442056609483774e-02 1.710294097054720908e+02
8.606605243624985968e-02 1.640698639358533342e+02
8.702768430640489550e-02 1.564810773050200794e+02
8.798931617655991744e-02 1.494802514268488096e+02
8.895094804671493938e-02 1.431191382575461830e+02
8.991257991686996132e-02 1.379396162096207377e+02
9.087421178702498326e-02 1.315906978511283114e+02
9.183584365718000520e-02 1.245392812383007310e+02
9.279747552733502713e-02 1.191490284286954591e+02
9.375910739749006295e-02 1.136682358006248705e+02
9.472073926764508489e-02 1.082257912452906794e+02
9.568237113780010683e-02 1.032694485226734997e+02
9.664400300795514265e-02 9.763424751747137975e+01
9.760563487811016459e-02 9.254863292649471873e+01
9.856726674826518653e-02 8.828442943161226708e+01
9.952889861842022234e-02 8.264210322619639726e+01
1.004905304885752443e-01 7.800416353374870937e+01
1.014521623587302801e-01 7.344863355576188724e+01
1.024137942288853020e-01 6.934371710020820956e+01
1.033754260990403240e-01 6.561226093060298581e+01
1.043370579691953459e-01 6.164904025041575153e+01
1.052986898393503817e-01 5.817562524040513949e+01
1.062603217095053898e-01 5.441981343222644796e+01
1.072219535796604256e-01 5.075450874308855731e+01
1.081835854498154614e-01 4.791618331361713246e+01
1.091452173199704695e-01 4.412741665360586296e+01
1.101068491901255053e-01 4.074721818706788667e+01
1.110684810602805411e-01 3.825377922703194855e+01
1.120301129304355492e-01 3.612951213043726995e+01
1.129917448005905850e-01 3.363196550307485211e+01
1.139533766707456208e-01 3.075890309787051535e+01
1.149150085409006289e-01 2.789698183297376488e+01
1.158766404110556647e-01 2.611674576588463026e+01
1.168382722812106728e-01 2.439325539013752220e+01
1.177999041513657086e-01 2.245611744387773001e+01
1.187615360215207305e-01 2.041614327523629413e+01
1.197231678916757525e-01 1.826026963326943431e+01
1.206847997618307744e-01 1.634560166302718542e+01
1.216464316319858102e-01 1.521728174926008847e+01
1.226080635021408183e-01 1.409680371827866097e+01
1.235696953722958541e-01 1.285480422085608154e+01
1.245313272424508899e-01 1.136936549214336978e+01
1.254929591126059119e-01 9.692920831152520122e+00
1.264545909827609338e-01 9.029732614497561372e+00
1.274162228529159557e-01 8.490331902868611280e+00
1.283778547230709777e-01 7.364455964636231755e+00
1.293394865932259996e-01 6.433964892048628315e+00
1.303011184633810493e-01 6.034928407051548760e+00
1.312627503335360435e-01 5.283266911684719958e+00
1.322243822036910932e-01 4.636149816970672077e+00
1.331860140738460874e-01 3.799902639505003066e+00
1.341476459440011371e-01 3.433630202848721780e+00
1.351092778141561590e-01 3.111278244991847686e+00
1.360709096843111809e-01 2.699429351530547194e+00
1.370325415544662029e-01 2.450415913479723429e+00
1.379941734246212526e-01 1.865350566003623811e+00
1.389558052947762468e-01 1.882847741119654472e+00
1.399174371649312965e-01 1.670528418673502102e+00
1.408790690350863184e-01 1.412349376293217773e+00
1.418407009052413403e-01 1.568831154600758282e+00
1.428023327753963623e-01 1.630444556589200289e+00
1.437639646455513842e-01 1.542785396098736328e+00
1.447255965157064062e-01 1.356095547230058429e+00
1.456872283858614281e-01 1.296290782223660898e+00
1.466488602560164778e-01 1.342814725651532370e+00
1.476104921261714720e-01 1.650609930711329554e+00
1.485721239963265217e-01 1.639189730611036566e+00
1.495337558664815436e-01 1.684944481606624578e+00
1.504953877366365655e-01 1.748149400333584680e+00
1.514570196067915875e-01 1.980592157054609004e+00
1.524186514769466094e-01 1.963773834560264220e+00
1.533802833471016314e-01 2.109256367254705111e+00
1.543419152172566811e-01 2.483846630351965956e+00
1.553035470874116752e-01 2.503994583548525554e+00
1.562651789575667249e-01 2.654261713606299367e+00
1.572268108277217469e-01 3.066897360165061315e+00
1.581884426978767688e-01 3.259257229805253786e+00
1.591500745680317908e-01 3.213511608883887760e+00
1.601117064381868405e-01 3.422148827197030840e+00
1.610733383083418346e-01 3.810043133209649824e+00
1.620349701784968843e-01 3.798977875458440678e+00
1.629966020486519063e-01 3.961216822145825489e+00
1.639582339188069282e-01 4.445973667998117662e+00
1.649198657889619501e-01 4.695996656526830293e+00
1.658814976591169721e-01 4.627892177983753186e+00
1.668431295292719940e-01 4.955951691735673847e+00
1.678047613994270160e-01 5.013987271562736936e+00
1.687663932695820379e-01 5.257246634806378438e+00
1.697280251397370598e-01 5.171340268432814469e+00
1.706896570098921095e-01 5.212461922724987318e+00
1.716512888800471037e-01 5.550604956183960326e+00
1.726129207502021534e-01 5.818308028409138188e+00
1.735745526203571754e-01 5.480570697501295996e+00
1.745361844905121973e-01 5.409648254699209957e+00
1.754978163606672192e-01 5.336597372682060580e+00
1.764594482308222689e-01 5.483668482895918572e+00
1.774210801009772631e-01 5.592160831726438630e+00
1.783827119711323128e-01 5.625317961090985364e+00
1.793443438412873348e-01 5.553613378925760458e+00
1.803059757114423567e-01 5.885334155548125779e+00
1.812676075815973786e-01 6.057436934897992842e+00
1.822292394517524006e-01 6.060732285315800993e+00
1.831908713219074225e-01 6.026428776594634940e+00
1.841525031920624444e-01 5.814851845633704386e+00
1.851141350622174664e-01 5.985157496940136213e+00
1.860757669323724883e-01 5.715800655624274640e+00
1.870373988025275380e-01 5.338442936724195675e+00
1.879990306726825322e-01 5.661402565201147041e+00
1.889606625428375819e-01 5.767380421190676287e+00
1.899222944129926038e-01 5.547043027366086676e+00
1.908839262831476258e-01 5.770906006727930304e+00
1.918455581533026477e-01 5.077530007517900401e+00
1.928071900234576974e-01 5.123406502870292201e+00
1.937688218936126916e-01 5.197582127559979170e+00
1.947304537637677413e-01 4.819739458339459048e+00
1.956920856339227632e-01 4.835450823221016492e+00
1.966537175040777852e-01 5.033112039602428922e+00
1.976153493742328071e-01 4.739008293965561336e+00
1.985769812443878291e-01 4.769579930494295184e+00
1.995386131145428510e-01 4.628387419099531996e+00
2.005002449846978729e-01 4.584493584426198254e+00
2.014618768548528949e-01 4.325309090103722554e+00
2.024235087250079168e-01 4.128124476236269658e+00
2.033851405951629665e-01 3.931427073063169075e+00
2.043467724653179884e-01 3.980863007123776498e+00
2.053084043354730381e-01 3.894046630401845732e+00
2.062700362056280046e-01 3.486330985117000125e+00
2.072316680757830543e-01 3.322579388681518253e+00
2.081932999459380762e-01 3.520289987879884563e+00
2.091549318160931259e-01 3.492253046139797590e+00
2.101165636862481478e-01 3.294926987360135229e+00
2.110781955564031698e-01 3.194727234046098374e+00
2.120398274265581640e-01 2.753902746789336220e+00
2.130014592967132137e-01 2.698739939294551249e+00
2.139630911668682356e-01 2.410880845638747161e+00
2.149247230370232575e-01 2.456469466664085388e+00
2.158863549071783072e-01 2.227640891533191336e+00
2.168479867773333014e-01 2.071463495259362020e+00
2.178096186474883234e-01 1.953446542668078934e+00
2.187712505176433453e-01 2.124763046143250733e+00
2.197328823877983950e-01 1.859658502586544415e+00
2.206945142579534169e-01 1.917353193445528348e+00
2.216561461281084666e-01 1.903100787084540002e+00
2.226177779982634330e-01 1.837056304487465042e+00
2.235794098684184827e-01 1.750256689440252700e+00
2.245410417385735047e-01 1.599014717784974948e+00
2.255026736087285544e-01 1.177274672382424114e+00
2.264643054788835763e-01 1.157997118240476908e+00
2.274259373490385983e-01 8.441805017971546476e-01
2.283875692191935924e-01 8.710992139880850971e-01
2.293492010893486421e-01 8.889633557089240412e-01
2.303108329595036641e-01 7.245127913168687428e-01
2.312724648296586860e-01 7.827473180330990488e-01
2.322340966998137357e-01 7.380512332307560541e-01
2.331957285699687299e-01 6.689955308159198921e-01
2.341573604401237518e-01 4.831008347519087920e-01
2.351189923102787738e-01 5.868477614011489152e-01
2.360806241804338235e-01 6.598639032276025773e-01
2.370422560505888454e-01 4.844176293798518884e-01
2.380038879207438951e-01 5.631529383458193649e-01
2.389655197908988615e-01 6.890429429934279426e-01
2.399271516610539112e-01 5.506830614536504243e-01
2.408887835312089332e-01 4.363864975948672509e-01
2.418504154013639829e-01 5.989374285943149800e-01
2.428120472715190048e-01 6.284831722814026023e-01
2.437736791416740267e-01 5.654049058785268755e-01
2.447353110118290209e-01 4.420490071704996637e-01
2.456969428819840706e-01 2.876864137394825605e-01
2.466585747521390926e-01 1.803953410997962692e-01
2.476202066222941145e-01 0.000000000000000000e+00
2.485818384924491642e-01 1.542053675748142894e-01
2.495434703626041584e-01 1.777698067631092727e-01
2.505051022327591803e-01 2.823080666061876798e-01
2.514667341029142023e-01 4.994384747908604538e-01
2.524283659730692242e-01 3.518876204219445469e-01
2.533899978432243016e-01 4.230765329242700545e-01
2.543516297133793236e-01 4.692050883573877229e-01
2.553132615835342900e-01 6.610715503358406409e-01
2.562748934536893120e-01 7.248995389411021506e-01
2.572365253238443894e-01 6.345778993411848035e-01
2.581981571939994113e-01 3.638865079475976927e-01
2.591597890641544333e-01 5.963594685895969860e-01
2.601214209343094552e-01 7.632014592474156700e-01
2.610830528044644772e-01 5.540218614949097287e-01
2.620446846746194991e-01 6.364336685609082167e-01
2.630063165447745210e-01 6.963960234959181150e-01
2.639679484149295430e-01 6.228007867614735460e-01
2.649295802850845649e-01 7.948495370723520637e-01
2.658912121552395869e-01 9.321506789923788006e-01
2.668528440253946088e-01 7.839767894713176588e-01
2.678144758955496307e-01 7.592713217702566908e-01
2.687761077657046527e-01 8.786630198357272548e-01
2.697377396358597301e-01 8.061667481702556870e-01
2.706993715060147521e-01 9.637636771776669775e-01
2.716610033761697185e-01 9.898000545577474441e-01
2.726226352463247404e-01 9.704574177227485166e-01
2.735842671164798179e-01 1.179290096473597060e+00
2.745458989866348398e-01 1.201003307812896992e+00
2.755075308567898618e-01 1.247880267923601849e+00
2.764691627269448837e-01 1.110673889889142174e+00
2.774307945970999056e-01 1.168987462181664938e+00
2.783924264672549276e-01 1.074764366867743348e+00
2.793540583374099495e-01 1.150966889843751062e+00
2.803156902075649715e-01 1.431327384840397343e+00
2.812773220777199934e-01 1.287583407844230976e+00
2.822389539478750153e-01 1.232155807354150312e+00
2.832005858180300373e-01 9.693190852051465356e-01
2.841622176881850592e-01 1.256570117078645410e+00
2.851238495583400812e-01 1.284005048397162341e+00
2.860854814284951586e-01 8.114562418869972760e-01
2.870471132986501805e-01 9.897943725325824005e-01
2.880087451688051470e-01 1.092502322851515828e+00
2.889703770389601689e-01 1.251899402666914796e+00
2.899320089091152464e-01 1.116137258389827025e+00
2.908936407792702683e-01 7.510189035565382198e-01
2.918552726494252902e-01 9.733718002176168227e-01
2.928169045195803122e-01 1.050412620898946159e+00
2.937785363897353341e-01 1.208298007355214310e+00
2.947401682598903561e-01 1.290268134992441418e+00
2.957018001300453780e-01 9.647868814618512090e-01
2.966634320002003999e-01 1.036330766355906263e+00
2.976250638703554219e-01 9.573290186504088695e-01
2.985866957405104993e-01 1.058995734596759775e+00
2.995483276106654658e-01 1.063288092456112111e+00
3.005099594808204877e-01 8.049772343237506789e-01
3.014715913509755651e-01 9.318705295025999646e-01
3.024332232211305871e-01 9.297296231288925128e-01
3.033948550912856090e-01 9.425007095522772715e-01
3.043564869614405755e-01 8.850154701893373499e-01
3.053181188315956529e-01 8.113568729370612687e-01
3.062797507017506748e-01 9.455742778367230983e-01
3.072413825719056968e-01 9.726428981178472100e-01
3.082030144420607187e-01 7.228673678176456008e-01
3.091646463122157407e-01 8.246526724179759071e-01
3.101262781823707626e-01 9.576174046912768745e-01
3.110879100525257845e-01 7.341656724623462082e-01
3.120495419226808065e-01 7.636488830778027648e-01
3.130111737928358284e-01 6.310069923991186158e-01
3.139728056629909059e-01 6.240450731272915164e-01
3.149344375331459278e-01 7.157886197926330851e-01
3.158960694033008942e-01 5.334040696849768892e-01
3.168577012734559162e-01 4.488324594985684257e-01
3.178193331436109936e-01 6.198848507742518166e-01
3.187809650137660156e-01 6.387792811788273184e-01
3.197425968839210375e-01 4.998708571082914887e-01
3.207042287540760039e-01 5.295642076255759889e-01
3.216658606242310814e-01 5.910207275822187967e-01
3.226274924943861033e-01 5.175963289614742280e-01
3.235891243645411253e-01 4.920168874361721123e-01
3.245507562346961472e-01 4.182639179307763300e-01
3.255123881048511691e-01 4.963942581399365395e-01
3.264740199750061911e-01 3.893071158645575736e-01
3.274356518451612130e-01 4.551745864080452009e-01
3.283972837153162350e-01 5.039407169576612944e-01
3.293589155854712569e-01 4.622535535554099795e-01
3.303205474556263344e-01 5.759149449816369781e-01
3.312821793257813563e-01 4.339795877189303042e-01
3.322438111959363227e-01 4.011045446832106620e-01
3.332054430660913447e-01 3.650558660342966277e-01
3.341670749362464221e-01 5.141927132720489624e-01
3.351287068064014441e-01 3.732627803235999409e-01
3.360903386765564660e-01 3.148395192403015130e-01
3.370519705467114324e-01 5.628840714657066258e-01
3.380136024168665099e-01 5.613667390062424545e-01
3.389752342870215318e-01 3.287316223684939587e-01
3.399368661571765537e-01 3.036280497779699772e-01
3.408984980273315757e-01 4.469125151980755106e-01
3.418601298974865976e-01 5.529458999932792551e-01
3.428217617676416196e-01 5.609307537451542203e-01
3.437833936377966415e-01 4.762372050891237052e-01
3.447450255079516634e-01 4.302578051765557632e-01
3.457066573781066854e-01 4.036890069313976426e-01
3.466682892482617628e-01 3.403881666975543396e-01
3.476299211184167848e-01 3.163240833762159809e-01
3.485915529885717512e-01 4.738886316706647506e-01
3.495531848587267731e-01 4.478055507836202764e-01
3.505148167288818506e-01 3.561423722474188480e-01
3.514764485990368725e-01 2.327447794250439017e-01
3.524380804691918945e-01 2.647803084259336970e-01
3.533997123393468609e-01 2.965689540008185077e-01
3.543613442095019384e-01 3.641387769193720203e-01
3.553229760796569603e-01 2.444618253586945400e-01
3.562846079498119822e-01 1.493083415887710430e-01
3.572462398199670042e-01 4.921804217260259406e-01
3.582078716901220261e-01 5.304875651797757996e-01
3.591695035602770480e-01 2.406742840575724074e-01
3.601311354304320700e-01 1.315864731707634405e-01
3.610927673005870919e-01 1.310634977637512577e-01
3.620543991707421139e-01 2.595942723535920038e-01
3.630160310408971913e-01 3.717999245260443786e-01
3.639776629110522133e-01 4.453264603612296924e-01
3.649392947812071797e-01 3.846762367510798697e-01
3.659009266513622016e-01 2.785966209404975302e-01
3.668625585215172791e-01 3.609198414463179461e-01
3.678241903916723010e-01 3.043809585395109707e-01
3.687858222618273230e-01 4.188361729885947682e-01
3.697474541319822894e-01 3.745249849265377406e-01
3.707090860021373668e-01 4.692241426415790784e-01
3.716707178722923888e-01 5.100040304173418804e-01
3.726323497424474107e-01 6.168252849145154926e-01
3.735939816126024327e-01 5.180059668557177588e-01
3.745556134827574546e-01 5.358478289306098930e-01
3.755172453529124765e-01 6.002273504153627925e-01
3.764788772230674985e-01 6.435893982247726797e-01
3.774405090932225204e-01 4.816909790514607437e-01
3.784021409633775423e-01 3.056799214842556012e-01
3.793637728335326198e-01 4.230631530342314761e-01
3.803254047036876417e-01 5.032026816646997247e-01
3.812870365738426082e-01 3.757553831488138485e-01
3.822486684439976301e-01 4.786883813241402663e-01
3.832103003141527076e-01 5.632581027977145993e-01
3.841719321843077295e-01 5.854328399264723259e-01
3.851335640544627514e-01 3.433905472065461595e-01
3.860951959246177734e-01 4.365068304890300510e-01
3.870568277947727953e-01 4.734520153348853455e-01
3.880184596649278173e-01 4.117374592622589091e-01
3.889800915350828392e-01 4.295721455217744733e-01
3.899417234052378611e-01 4.433642367016865649e-01
3.909033552753928831e-01 4.139519147567050084e-01
3.918649871455479050e-01 4.837935898099665621e-01
3.928266190157029270e-01 6.098168964000123538e-01
3.937882508858579489e-01 4.487113326726159812e-01
3.947498827560129708e-01 5.515568337294922685e-01
3.957115146261680483e-01 5.924074789692141962e-01
3.966731464963230702e-01 4.792552439629531591e-01
3.976347783664780366e-01 5.169751035731522393e-01
3.985964102366330586e-01 4.710510049729599302e-01
3.995580421067881360e-01 5.086606989354613972e-01
4.005196739769430470e-01 6.029423388470576128e-01
4.014813058470981244e-01 4.240256197654410641e-01
4.024429377172531463e-01 2.686847624280090940e-01
4.034045695874082238e-01 4.577083176365377426e-01
