# q (1/Angstrom), Intensity (arb)
2.067508526570814575e-02 5.682132376975538364e+02
2.163671713586316769e-02 5.942925764405440532e+02
2.259834900601819310e-02 6.157839198559746592e+02
2.355998087617321851e-02 6.225417643339109190e+02
2.452161274632824739e-02 6.243175889895154569e+02
2.548324461648326933e-02 6.227379102962825073e+02
2.644487648663829821e-02 6.208994612967530884e+02
2.740650835679332709e-02 6.198536953032648853e+02
2.836814022694834903e-02 6.180869743913698358e+02
2.932977209710337443e-02 6.130993358116198806e+02
3.029140396725839637e-02 6.088089745350919202e+02
3.125303583741342178e-02 6.066203998557296018e+02
3.221466770756845066e-02 6.034043970913625117e+02
3.317629957772347260e-02 5.984119963980515422e+02
3.413793144787850148e-02 5.950088755672433081e+02
3.509956331803352342e-02 5.928396398169702479e+02
3.606119518818855230e-02 5.907520667317542120e+02
3.702282705834358117e-02 5.822767771731091671e+02
3.798445892849860311e-02 5.740804359856643941e+02
3.894609079865363199e-02 5.683259632873915734e+02
3.990772266880865393e-02 5.662295492321749180e+02
4.086935453896367587e-02 5.591454535619537864e+02
4.183098640911870475e-02 5.518476224920558479e+02
4.279261827927372669e-02 5.440604962993114668e+02
4.375425014942875557e-02 5.386019046520623306e+02
4.471588201958377751e-02 5.276614001493835531e+02
4.567751388973880639e-02 5.196727885326224623e+02
4.663914575989382832e-02 5.109223595842848340e+02
4.760077763004885720e-02 5.024471398780929690e+02
4.856240950020387914e-02 4.965587782514979835e+02
4.952404137035890108e-02 4.906780864051389131e+02
5.048567324051392302e-02 4.834924498894474141e+02
5.144730511066895190e-02 4.731875700507297893e+02
5.240893698082397384e-02 4.640713038481924855e+02
5.337056885097899578e-02 4.549250153580045435e+02
5.433220072113403160e-02 4.438414655347557414e+02
5.529383259128905354e-02 4.335952415081486038e+02
5.625546446144407547e-02 4.227904100200169069e+02
5.721709633159910435e-02 4.138761783384355795e+02
5.817872820175412629e-02 4.023758089416067492e+02
5.914036007190914823e-02 3.930716557381322218e+02
6.010199194206417017e-02 3.836064428056187694e+02
6.106362381221920599e-02 3.741727709212924537e+02
6.202525568237422793e-02 3.645485827681609408e+02
6.298688755252924987e-02 3.539547855818547077e+02
6.394851942268428568e-02 3.453616614222230510e+02
6.491015129283930762e-02 3.346337699357708289e+02
6.587178316299432956e-02 3.258053838536249032e+02
6.683341503314935150e-02 3.177642359276068760e+02
6.779504690330438732e-02 3.064482666887507776e+02
6.875667877345940926e-02 2.966676873615790555e+02
6.971831064361443120e-02 2.887459485755045421e+02
7.067994251376945314e-02 2.809238222304026067e+02
7.164157438392447508e-02 2.711505049193929153e+02
7.260320625407949702e-02 2.613010607210223952e+02
7.356483812423453283e-02 2.538803653579778654e+02
7.452646999438955477e-02 2.450395685442343847e+02
7.548810186454457671e-02 2.367554743034221190e+02
7.644973373469959865e-02 2.290443459789079554e+02
7.741136560485463447e-02 2.216005868823635865e+02
7.837299747500965641e-02 2.132310784886468582e+02
7.933462934516467835e-02 2.058530964513486481e+02
8.029626121531971417e-02 1.983726142574184053e+02
8.125789308547473611e-02 1.901106447339793704e+02
8.221952495562975805e-02 1.832912929356619998e+02
8.318115682578479386e-02 1.760642773209347354e+02
8.414278869593981580e-02 1.687727782386500337e+02
8.510442056609483774e-02 1.611510245462789044e+02
8.606605243624985968e-02 1.545735836312934737e+02
8.702768430640489550e-02 1.480703113389818668e+02
8.798931617655991744e-02 1.414358817336246261e+02
8.895094804671493938e-02 1.362016161222482822e+02
8.991257991686996132e-02 1.305960806510196903e+02
9.087421178702498326e-02 1.238815276890222776e+02
9.183584365718000520e-02 1.181611874201754944e+02
9.279747552733502713e-02 1.118072094409305777e+02
9.375910739749006295e-02 1.066318726345545542e+02
9.472073926764508489e-02 1.008065990880272835e+02
9.568237113780010683e-02 9.499535761009495616e+01
9.664400300795514265e-02 9.120262494294759392e+01
9.760563487811016459e-02 8.663698563584706847e+01
9.856726674826518653e-02 8.257801645975555971e+01
9.952889861842022234e-02 7.774158714784199731e+01
1.004905304885752443e-01 7.303516097347987568e+01
1.014521623587302801e-01 6.897645935462271893e+01
1.024137942288853020e-01 6.542679526964357706e+01
1.033754260990403240e-01 6.196979338969603646e+01
1.043370579691953459e-01 5.789480798105665116e+01
1.052986898393503817e-01 5.470330063283306288e+01
1.062603217095053898e-01 5.137885368119721363e+01
1.072219535796604256e-01 4.775042917116591923e+01
1.081835854498154614e-01 4.484401908483162913e+01
1.091452173199704695e-01 4.143110337377372332e+01
1.101068491901255053e-01 3.834914948681999647e+01
1.110684810602805411e-01 3.607047045899459192e+01
1.120301129304355492e-01 3.382296852473413651e+01
1.129917448005905850e-01 3.114024332177173449e+01
1.139533766707456208e-01 2.888767848493250057e+01
1.149150085409006289e-01 2.676805984444864350e+01
1.158766404110556647e-01 2.413807972946599989e+01
1.168382722812106728e-01 2.258336085623189149e+01
1.177999041513657086e-01 2.118652638538921451e+01
1.187615360215207305e-01 1.925441340666106527e+01
1.197231678916757525e-01 1.803368363849546085e+01
1.206847997618307744e-01 1.623015014210333362e+01
1.216464316319858102e-01 1.430590073573483778e+01
1.226080635021408183e-01 1.264495117476489483e+01
1.235696953722958541e-01 1.164267758243920170e+01
1.245313272424508899e-01 1.038493317541182392e+01
1.254929591126059119e-01 9.825781134056551736e+00
1.264545909827609338e-01 8.586582525732104898e+00
1.274162228529159557e-01 7.769978393930784932e+00
1.283778547230709777e-01 7.390063495738129262e+00
1.293394865932259996e-01 6.222185262685570706e+00
1.303011184633810493e-01 5.420134685364487837e+00
1.312627503335360435e-01 4.854334228718251154e+00
1.322243822036910932e-01 4.336625486487616143e+00
1.331860140738460874e-01 3.834371437928830062e+00
1.341476459440011371e-01 3.339898264043160481e+00
1.351092778141561590e-01 3.108624213998588459e+00
1.360709096843111809e-01 2.364505171613402013e+00
1.370325415544662029e-01 1.808096886223427902e+00
1.379941734246212526e-01 1.574443768761799589e+00
1.389558052947762468e-01 1.675215800370757790e+00
1.399174371649312965e-01 1.581960760923042386e+00
1.408790690350863184e-01 1.223168433980031722e+00
1.418407009052413403e-01 1.045060784373397667e+00
1.428023327753963623e-01 1.093952047520986071e+00
1.437639646455513842e-01 1.032245222235705029e+00
1.447255965157064062e-01 1.122000801239725121e+00
1.456872283858614281e-01 1.162778825749320788e+00
1.466488602560164778e-01 1.007488899860984333e+00
1.476104921261714720e-01 9.752716053999286316e-01
1.485721239963265217e-01 1.350769289829703013e+00
1.495337558664815436e-01 1.658658844909684404e+00
1.504953877366365655e-01 1.485679820280644492e+00
1.514570196067915875e-01 1.503435177421614810e+00
1.524186514769466094e-01 1.406541231335420861e+00
1.533802833471016314e-01 1.774060685342206511e+00
1.543419152172566811e-01 2.119097824156622067e+00
1.553035470874116752e-01 2.212879531005828682e+00
1.562651789575667249e-01 2.093511775502754801e+00
1.572268108277217469e-01 2.464734217991157550e+00
1.581884426978767688e-01 3.009521645160422310e+00
1.591500745680317908e-01 3.222944389548089816e+00
1.601117064381868405e-01 3.260654262757732624e+00
1.610733383083418346e-01 3.576858302523334032e+00
1.620349701784968843e-01 3.549212888361072515e+00
1.629966020486519063e-01 3.654911832356578572e+00
1.639582339188069282e-01 3.498881597863299220e+00
1.649198657889619501e-01 3.763136201935150638e+00
1.658814976591169721e-01 3.875750404858077758e+00
1.668431295292719940e-01 4.160519315585020195e+00
1.678047613994270160e-01 4.207627991396254430e+00
1.687663932695820379e-01 4.489418898079076570e+00
1.697280251397370598e-01 4.747061786520401228e+00
1.706896570098921095e-01 4.690906163338137702e+00
1.716512888800471037e-01 4.660834801099277058e+00
1.726129207502021534e-01 4.772652722436244943e+00
1.735745526203571754e-01 4.802572748442173634e+00
1.745361844905121973e-01 5.217055165238132730e+00
1.754978163606672192e-01 5.200674101278401906e+00
1.764594482308222689e-01 4.892369719909371639e+00
1.774210801009772631e-01 5.233755424517262611e+00
1.783827119711323128e-01 5.263398724202591694e+00
1.793443438412873348e-01 5.428382963800931549e+00
1.803059757114423567e-01 5.821121407218985411e+00
1.812676075815973786e-01 5.644429396192286674e+00
1.822292394517524006e-01 5.848048872143067456e+00
1.831908713219074225e-01 5.436658625156812974e+00
1.841525031920624444e-01 5.212109418580862297e+00
1.851141350622174664e-01 5.470134700066282107e+00
1.860757669323724883e-01 5.384211625090216558e+00
1.870373988025275380e-01 5.342190422502653746e+00
1.879990306726825322e-01 5.253353410898832010e+00
1.889606625428375819e-01 4.978850511570701798e+00
1.899222944129926038e-01 5.242298616404735156e+00
1.908839262831476258e-01 5.252955204748737117e+00
1.918455581533026477e-01 4.992807331922072933e+00
1.928071900234576974e-01 5.025726669336059160e+00
1.937688218936126916e-01 4.892086044532476308e+00
1.947304537637677413e-01 4.620405789414675723e+00
1.956920856339227632e-01 4.377780437243050216e+00
1.966537175040777852e-01 4.314706643105090222e+00
1.976153493742328071e-01 4.255953389717767266e+00
1.985769812443878291e-01 4.018150550777068730e+00
1.995386131145428510e-01 4.017531739792069345e+00
2.005002449846978729e-01 3.979703074299671073e+00
2.014618768548528949e-01 3.929271068899836905e+00
2.024235087250079168e-01 3.571135915325083232e+00
2.033851405951629665e-01 3.581259950884462029e+00
2.043467724653179884e-01 3.540834542626583925e+00
2.053084043354730381e-01 3.304661026149702252e+00
2.062700362056280046e-01 3.309978186647242637e+00
2.072316680757830543e-01 3.226648595414715714e+00
2.081932999459380762e-01 3.108661688677511137e+00
2.091549318160931259e-01 3.138522629659210139e+00
2.101165636862481478e-01 3.070292751544688059e+00
2.110781955564031698e-01 2.595805969284679549e+00
2.120398274265581640e-01 2.832078608549998933e+00
2.130014592967132137e-01 2.715766748804181674e+00
2.139630911668682356e-01 2.461059195491735352e+00
2.149247230370232575e-01 2.297405622858878615e+00
2.158863549071783072e-01 1.931371881939433877e+00
2.168479867773333014e-01 1.748465979103041690e+00
2.178096186474883234e-01 1.863781352756483045e+00
2.187712505176433453e-01 1.988450240968287375e+00
2.197328823877983950e-01 1.720764419128219203e+00
2.206945142579534169e-01 1.506871678519413393e+00
2.216561461281084666e-01 1.623889880556593113e+00
2.226177779982634330e-01 1.367092602640422427e+00
2.235794098684184827e-01 1.170683846605907519e+00
2.245410417385735047e-01 1.129654995073959611e+00
2.255026736087285544e-01 1.143034364955234139e+00
2.264643054788835763e-01 1.306551530185384280e+00
2.274259373490385983e-01 1.218046679816016109e+00
2.283875692191935924e-01 1.144117049754662219e+00
2.293492010893486421e-01 1.087597027450460274e+00
2.303108329595036641e-01 1.203155871340666039e+00
2.312724648296586860e-01 8.423078250801978584e-01
2.322340966998137357e-01 7.245338146177502381e-01
2.331957285699687299e-01 8.253228181756959714e-01
2.341573604401237518e-01 7.567179458905677336e-01
2.351189923102787738e-01 6.525053869995538491e-01
2.360806241804338235e-01 8.315082895017162912e-01
2.370422560505888454e-01 4.978054081111480400e-01
2.380038879207438951e-01 1.109401272194361354e-01
2.389655197908988615e-01 3.748261518396311942e-01
2.399271516610539112e-01 4.705135655649073101e-01
2.408887835312089332e-01 2.381084709258836085e-01
2.418504154013639829e-01 4.298670981340286801e-01
2.428120472715190048e-01 5.349535115399994822e-01
2.437736791416740267e-01 3.188336683854231524e-01
2.447353110118290209e-01 3.638596941265959117e-01
2.456969428819840706e-01 3.421813836276577092e-01
2.466585747521390926e-01 4.023454712798404387e-01
2.476202066222941145e-01 6.216590305325446764e-01
2.485818384924491642e-01 4.545270338207210159e-01
2.495434703626041584e-01 3.087353613127348240e-01
2.505051022327591803e-01 4.855811730650323454e-01
2.514667341029142023e-01 1.414992532455627838e-01
2.524283659730692242e-01 2.095772223258656197e-01
2.533899978432243016e-01 4.362146597095417633e-01
2.543516297133793236e-01 6.106096879408404732e-01
2.553132615835342900e-01 5.965978428674532097e-01
2.562748934536893120e-01 3.739144080123182334e-01
2.572365253238443894e-01 4.448556451338063766e-01
2.581981571939994113e-01 4.557737576461562412e-01
2.591597890641544333e-01 3.857961149351751828e-01
2.601214209343094552e-01 3.707038907841138098e-01
2.610830528044644772e-01 5.525911868212141087e-01
2.620446846746194991e-01 6.534226728284799890e-01
2.630063165447745210e-01 6.853096614582518953e-01
2.639679484149295430e-01 5.673855785715211653e-01
2.649295802850845649e-01 3.872331754109801238e-01
2.658912121552395869e-01 4.920524155804386623e-01
2.668528440253946088e-01 4.723087662257121622e-01
2.678144758955496307e-01 5.916884414643561740e-01
2.687761077657046527e-01 7.204714071481177484e-01
2.697377396358597301e-01 7.059524690946368253e-01
2.706993715060147521e-01 8.116978343998297873e-01
2.716610033761697185e-01 8.722763256337131565e-01
2.726226352463247404e-01 1.078659662299266131e+00
2.735842671164798179e-01 8.554419947371805222e-01
2.745458989866348398e-01 8.413195882848931717e-01
2.755075308567898618e-01 8.524292198397844800e-01
2.764691627269448837e-01 7.691288991925091523e-01
2.774307945970999056e-01 6.590213507506952340e-01
2.783924264672549276e-01 6.465328297019645731e-01
2.793540583374099495e-01 6.925101714086601135e-01
2.803156902075649715e-01 8.900542027574331883e-01
2.812773220777199934e-01 8.266170974313844511e-01
2.822389539478750153e-01 8.048563690647014823e-01
2.832005858180300373e-01 8.317926619884978834e-01
2.841622176881850592e-01 8.925719099742686069e-01
2.851238495583400812e-01 9.062479171398081235e-01
2.860854814284951586e-01 8.407474032688497800e-01
2.870471132986501805e-01 9.318953656547215303e-01
2.880087451688051470e-01 9.596453571526346593e-01
2.889703770389601689e-01 6.166739588503737934e-01
2.899320089091152464e-01 4.525872236554064898e-01
2.908936407792702683e-01 8.819480009770863660e-01
2.918552726494252902e-01 7.904358896920307131e-01
2.928169045195803122e-01 8.569876758086678592e-01
2.937785363897353341e-01 8.581147248662865934e-01
2.947401682598903561e-01 7.088691142851075710e-01
2.957018001300453780e-01 8.682870994045792656e-01
2.966634320002003999e-01 1.003099952515050575e+00
2.976250638703554219e-01 8.671464831122008832e-01
2.985866957405104993e-01 9.066700869887398540e-01
2.995483276106654658e-01 8.284408094866577699e-01
3.005099594808204877e-01 6.160876502847081326e-01
3.014715913509755651e-01 4.663108945894833823e-01
3.024332232211305871e-01 4.302378104272897019e-01
3.033948550912856090e-01 5.943985866645675742e-01
3.043564869614405755e-01 7.394031450512876802e-01
3.053181188315956529e-01 7.009501967580931137e-01
3.062797507017506748e-01 6.705856115023429709e-01
3.072413825719056968e-01 5.498107565705616651e-01
3.082030144420607187e-01 4.797772783585081413e-01
3.091646463122157407e-01 5.143716419477755153e-01
3.101262781823707626e-01 4.655231171235669763e-01
3.110879100525257845e-01 5.313066101067072111e-01
3.120495419226808065e-01 5.834921742165626313e-01
3.130111737928358284e-01 5.322665594774527165e-01
3.139728056629909059e-01 6.297380936444803012e-01
3.149344375331459278e-01 6.537290624516742810e-01
3.158960694033008942e-01 6.242661682566286174e-01
3.168577012734559162e-01 6.096972917318943530e-01
3.178193331436109936e-01 5.601224714323755904e-01
3.187809650137660156e-01 7.365031157289152475e-01
3.197425968839210375e-01 5.838714640501549979e-01
3.207042287540760039e-01 5.419511464381834287e-01
3.216658606242310814e-01 6.194040166975334216e-01
3.226274924943861033e-01 3.314797603548740312e-01
3.235891243645411253e-01 2.610327159032017619e-01
3.245507562346961472e-01 3.493233709168599432e-01
3.255123881048511691e-01 2.743787611290287032e-01
3.264740199750061911e-01 3.436305783968158778e-01
3.274356518451612130e-01 4.723672773179607987e-01
3.283972837153162350e-01 4.927750988682717548e-01
3.293589155854712569e-01 3.069317574000294258e-01
3.303205474556263344e-01 1.708942986320565183e-01
3.312821793257813563e-01 1.785548856665784001e-01
3.322438111959363227e-01 5.119552201760697585e-01
3.332054430660913447e-01 3.389178755589981051e-01
3.341670749362464221e-01 1.662335308812927792e-01
3.351287068064014441e-01 3.690527885998413637e-01
3.360903386765564660e-01 2.256486191411184450e-01
3.370519705467114324e-01 1.795396465414533793e-01
3.380136024168665099e-01 3.662668672742448450e-01
3.389752342870215318e-01 3.051880346639705976e-01
3.399368661571765537e-01 1.974360234460625918e-01
3.408984980273315757e-01 2.391776254813144931e-01
3.418601298974865976e-01 2.772890363172670902e-01
3.428217617676416196e-01 1.755405576915478605e-01
3.437833936377966415e-01 3.157857200039018153e-01
3.447450255079516634e-01 3.120221561907534635e-01
3.457066573781066854e-01 1.608726937382485289e-01
3.466682892482617628e-01 1.956390400378111849e-01
3.476299211184167848e-01 4.057996105322629887e-01
3.485915529885717512e-01 5.253711198853601161e-01
3.495531848587267731e-01 3.442768201124231098e-01
3.505148167288818506e-01 2.495988218844473749e-01
3.514764485990368725e-01 1.212808806773324477e-02
3.524380804691918945e-01 1.386961061153257901e-01
3.533997123393468609e-01 1.633858904430169900e-01
3.543613442095019384e-01 8.120848022941018485e-02
3.553229760796569603e-01 2.430220021538183062e-01
3.562846079498119822e-01 2.300541723121440896e-01
3.572462398199670042e-01 2.418592127415593040e-01
3.582078716901220261e-01 1.938485284557067700e-01
3.591695035602770480e-01 4.114264316039673020e-01
3.601311354304320700e-01 3.655529457034454310e-01
3.610927673005870919e-01 4.488752575562919844e-01
3.620543991707421139e-01 4.359035343662505113e-01
3.630160310408971913e-01 2.963073168676508828e-01
3.639776629110522133e-01 2.135853507370306659e-01
3.649392947812071797e-01 4.772130925530504442e-02
3.659009266513622016e-01 9.249693736051511905e-02
3.668625585215172791e-01 3.533329682033254926e-01
3.678241903916723010e-01 4.320857043647379214e-01
3.687858222618273230e-01 4.583442720908621482e-01
3.697474541319822894e-01 3.680753869273942769e-01
3.707090860021373668e-01 3.500306454025903236e-01
3.716707178722923888e-01 3.793555127524186332e-01
3.726323497424474107e-01 5.003209262154051373e-01
3.735939816126024327e-01 3.885725253659657596e-01
3.745556134827574546e-01 2.785743223336787366e-01
3.755172453529124765e-01 2.888766442921912869e-01
3.764788772230674985e-01 2.175112065435982345e-01
3.774405090932225204e-01 3.662580065882181657e-01
3.784021409633775423e-01 5.490171433866919415e-01
3.793637728335326198e-01 4.424954820805702127e-01
3.803254047036876417e-01 5.015209996567584483e-01
3.812870365738426082e-01 4.023236817753677030e-01
3.822486684439976301e-01 5.562404722257632272e-01
3.832103003141527076e-01 5.399321988958405427e-01
3.841719321843077295e-01 4.015242233734639399e-01
3.851335640544627514e-01 4.004059605480811967e-01
3.860951959246177734e-01 2.683155515270136959e-01
3.870568277947727953e-01 1.626790634590129514e-01
3.880184596649278173e-01 3.866731204542119826e-01
3.889800915350828392e-01 5.198838114865154125e-01
3.899417234052378611e-01 4.112568766159157008e-01
3.909033552753928831e-01 3.504382893137361066e-01
3.918649871455479050e-01 3.666286645984939696e-01
3.928266190157029270e-01 3.359336022352792384e-01
3.937882508858579489e-01 3.231660053154783441e-01
3.947498827560129708e-01 3.281353503317241405e-01
3.957115146261680483e-01 2.396141991028670759e-01
3.966731464963230702e-01 2.963653911624888337e-01
3.976347783664780366e-01 2.924253493064874476e-01
3.985964102366330586e-01 4.113922348678364926e-01
3.995580421067881360e-01 6.086364248668161281e-01
4.005196739769430470e-01 4.802120962263707327e-01
4.014813058470981244e-01 3.149479842694162812e-01
4.024429377172531463e-01 3.823132140431866333e-01
4.034045695874082238e-01 4.528900555285524376e-01
