# q (1/Angstrom), Intensity (arb)
2.067508526570814575e-02 5.946229503572081967e+02
2.163671713586316769e-02 6.248360762614073565e+02
2.259834900601819310e-02 6.491629817837422252e+02
2.355998087617321851e-02 6.521929547172035200e+02
2.452161274632824739e-02 6.507198431670383343e+02
2.548324461648326933e-02 6.524848070706734688e+02
2.644487648663829821e-02 6.496106300951740877e+02
2.740650835679332709e-02 6.493646450594842463e+02
2.836814022694834903e-02 6.493052164321087503e+02
2.932977209710337443e-02 6.435715023902492931e+02
3.029140396725839637e-02 6.413904104749905173e+02
3.125303583741342178e-02 6.395821818314828988e+02
3.221466770756845066e-02 6.343588429042039252e+02
3.317629957772347260e-02 6.283383212942038654e+02
3.413793144787850148e-02 6.267477796393557128e+02
3.509956331803352342e-02 6.223123957346491579e+02
3.606119518818855230e-02 6.156553622921711622e+02
3.702282705834358117e-02 6.058231765674585176e+02
3.798445892849860311e-02 6.009221040920403993e+02
3.894609079865363199e-02 5.933425957057326059e+02
3.990772266880865393e-02 5.899278119340551712e+02
4.086935453896367587e-02 5.868196080227704670e+02
4.183098640911870475e-02 5.777543584885936525e+02
4.279261827927372669e-02 5.690165077895012473e+02
4.375425014942875557e-02 5.613518667621422082e+02
4.471588201958377751e-02 5.540013888631973487e+02
4.567751388973880639e-02 5.454380813311000793e+02
4.663914575989382832e-02 5.375760471619918235e+02
4.760077763004885720e-02 5.282624909667014208e+02
4.856240950020387914e-02 5.203537344718270106e+02
4.952404137035890108e-02 5.119804435760071328e+02
5.048567324051392302e-02 5.045174861738371987e+02
5.144730511066895190e-02 4.929807897161931578e+02
5.240893698082397384e-02 4.831861981963921835e+02
5.337056885097899578e-02 4.756744586607317729e+02
5.433220072113403160e-02 4.635171146638286359e+02
5.529383259128905354e-02 4.534922306792269637e+02
5.625546446144407547e-02 4.422627974896053615e+02
5.721709633159910435e-02 4.316130435565320340e+02
5.817872820175412629e-02 4.232763889218454096e+02
5.914036007190914823e-02 4.145474388177580636e+02
6.010199194206417017e-02 4.028487143583412262e+02
6.106362381221920599e-02 3.901401651077277393e+02
6.202525568237422793e-02 3.799104365141822086e+02
6.298688755252924987e-02 3.706588888278795366e+02
6.394851942268428568e-02 3.603211747860397054e+02
6.491015129283930762e-02 3.515990412256404625e+02
6.587178316299432956e-02 3.426275858622526016e+02
6.683341503314935150e-02 3.322406263838765881e+02
6.779504690330438732e-02 3.221056165402031297e+02
6.875667877345940926e-02 3.131093936175340104e+02
6.971831064361443120e-02 3.046803471007176540e+02
7.067994251376945314e-02 2.948652693697996483e+02
7.164157438392447508e-02 2.835746051865845629e+02
7.260320625407949702e-02 2.741437691942688275e+02
7.356483812423453283e-02 2.656326747246516220e+02
7.452646999438955477e-02 2.566187088915634718e+02
7.548810186454457671e-02 2.475429745886935677e+02
7.644973373469959865e-02 2.409396158518328548e+02
7.741136560485463447e-02 2.328501892031454190e+02
7.837299747500965641e-02 2.222753414094573827e+02
7.933462934516467835e-02 2.143329309464525068e+02
8.029626121531971417e-02 2.068800581515441195e+02
8.125789308547473611e-02 1.988863181653747176e+02
8.221952495562975805e-02 1.900141403621626637e+02
8.318115682578479386e-02 1.818937395925342742e+02
8.414278869593981580e-02 1.762828314070933402e+02
8.510442056609483774e-02 1.690924055283861946e+02
8.606605243624985968e-02 1.617197892387455056e+02
8.702768430640489550e-02 1.553420286253843869e+02
8.798931617655991744e-02 1.485173524307747073e+02
8.895094804671493938e-02 1.413336477799255988e+02
8.991257991686996132e-02 1.355416315070141025e+02
9.087421178702498326e-02 1.303285735641997007e+02
9.183584365718000520e-02 1.242435075229921893e+02
9.279747552733502713e-02 1.182057662671798681e+02
9.375910739749006295e-02 1.122538281244277698e+02
9.472073926764508489e-02 1.064420932549974310e+02
9.568237113780010683e-02 1.013884959772805985e+02
9.664400300795514265e-02 9.697736538711470189e+01
9.760563487811016459e-02 9.153290035554942961e+01
9.856726674826518653e-02 8.727869274432083557e+01
9.952889861842022234e-02 8.176848671922294898e+01
1.004905304885752443e-01 7.685494944979714660e+01
1.014521623587302801e-01 7.247857311241989464e+01
1.024137942288853020e-01 6.813718723912944597e+01
1.033754260990403240e-01 6.445614086656604513e+01
1.043370579691953459e-01 6.059931866878151396e+01
1.052986898393503817e-01 5.658585320056928936e+01
1.062603217095053898e-01 5.306094250534914636e+01
1.072219535796604256e-01 5.042826487081484288e+01
1.081835854498154614e-01 4.743681927881221583e+01
1.091452173199704695e-01 4.339532589068320334e+01
1.101068491901255053e-01 4.047076713247246005e+01
1.110684810602805411e-01 3.830488240144855183e+01
1.120301129304355492e-01 3.543506747428510550e+01
1.129917448005905850e-01 3.256696308252198691e+01
1.139533766707456208e-01 3.018777741269813220e+01
1.149150085409006289e-01 2.770203378515182990e+01
1.158766404110556647e-01 2.577719390099445107e+01
1.168382722812106728e-01 2.402635355192618860e+01
1.177999041513657086e-01 2.188203685432037915e+01
1.187615360215207305e-01 1.991273441351207296e+01
1.197231678916757525e-01 1.793540031913652655e+01
1.206847997618307744e-01 1.640736305469976131e+01
1.216464316319858102e-01 1.531042356505285440e+01
1.226080635021408183e-01 1.409934840662129929e+01
1.235696953722958541e-01 1.283258603778309848e+01
1.245313272424508899e-01 1.155242469779438608e+01
1.254929591126059119e-01 1.037183527725565568e+01
1.264545909827609338e-01 9.169226877936552000e+00
1.274162228529159557e-01 8.597970870049923775e+00
1.283778547230709777e-01 7.882256073273499197e+00
1.293394865932259996e-01 6.698054484842248968e+00
1.303011184633810493e-01 5.720640718442421502e+00
1.312627503335360435e-01 5.133766753011560269e+00
1.322243822036910932e-01 4.309374816629873095e+00
1.331860140738460874e-01 3.902046086248798673e+00
1.341476459440011371e-01 3.456184558813763630e+00
1.351092778141561590e-01 3.164343369652282689e+00
1.360709096843111809e-01 2.757933917047139971e+00
1.370325415544662029e-01 1.897547562171730817e+00
1.379941734246212526e-01 1.484934808986309918e+00
1.389558052947762468e-01 1.741606934005844209e+00
1.399174371649312965e-01 1.967486853635403321e+00
1.408790690350863184e-01 1.836735211069502327e+00
1.418407009052413403e-01 1.528143467412949263e+00
1.428023327753963623e-01 1.815226663895749937e+00
1.437639646455513842e-01 1.632366583899720780e+00
1.447255965157064062e-01 1.411582129831248977e+00
1.456872283858614281e-01 1.006611148130673428e+00
1.466488602560164778e-01 1.127910083789132045e+00
1.476104921261714720e-01 1.650844931189478615e+00
1.485721239963265217e-01 1.833743460065932140e+00
1.495337558664815436e-01 1.618985460461441761e+00
1.504953877366365655e-01 1.662355573338789583e+00
1.514570196067915875e-01 1.988345919763848002e+00
1.524186514769466094e-01 1.854857625362932083e+00
1.533802833471016314e-01 1.898201872460614226e+00
1.543419152172566811e-01 2.209360246044720810e+00
1.553035470874116752e-01 2.250743432201950611e+00
1.562651789575667249e-01 2.669352504620004396e+00
1.572268108277217469e-01 3.281851292823638744e+00
1.581884426978767688e-01 3.262473222998632849e+00
1.591500745680317908e-01 3.183882845681573315e+00
1.601117064381868405e-01 3.319328925744496672e+00
1.610733383083418346e-01 3.648535323373764072e+00
1.620349701784968843e-01 3.764125554028758813e+00
1.629966020486519063e-01 3.953629382104242751e+00
1.639582339188069282e-01 4.008426002160600632e+00
1.649198657889619501e-01 4.199547281140535659e+00
1.658814976591169721e-01 4.356203420264570525e+00
1.668431295292719940e-01 4.679008673479479796e+00
1.678047613994270160e-01 5.005233530275720710e+00
1.687663932695820379e-01 5.138069756544769717e+00
1.697280251397370598e-01 5.211429018465462804e+00
1.706896570098921095e-01 5.413279128302232124e+00
1.716512888800471037e-01 5.479919822300679755e+00
1.726129207502021534e-01 5.146610282826998173e+00
1.735745526203571754e-01 4.935818164728029700e+00
1.745361844905121973e-01 5.200217358418882441e+00
1.754978163606672192e-01 5.257861846709126041e+00
1.764594482308222689e-01 5.293956495923122674e+00
1.774210801009772631e-01 5.431363753500921376e+00
1.783827119711323128e-01 5.640266889847158183e+00
1.793443438412873348e-01 5.638720805195461594e+00
1.803059757114423567e-01 5.828084740974134093e+00
1.812676075815973786e-01 5.958262775717130921e+00
1.822292394517524006e-01 6.159745021083228522e+00
1.831908713219074225e-01 6.035314583874548333e+00
1.841525031920624444e-01 5.869421715406371476e+00
1.851141350622174664e-01 5.672914804978727688e+00
1.860757669323724883e-01 5.500581351293931220e+00
1.870373988025275380e-01 5.349015472456937204e+00
1.879990306726825322e-01 5.439806712372863728e+00
1.889606625428375819e-01 5.539894778864066893e+00
1.899222944129926038e-01 5.546917295110116441e+00
1.908839262831476258e-01 5.700250477290708773e+00
1.918455581533026477e-01 5.318500264032842040e+00
1.928071900234576974e-01 5.467807243474634760e+00
1.937688218936126916e-01 5.194450026904810613e+00
1.947304537637677413e-01 4.934642888105233993e+00
1.956920856339227632e-01 4.783219737274720273e+00
1.966537175040777852e-01 4.620424032454629071e+00
1.976153493742328071e-01 4.546928958425038303e+00
1.985769812443878291e-01 4.606669894114361341e+00
1.995386131145428510e-01 4.613097987490643703e+00
2.005002449846978729e-01 4.266928448815637154e+00
2.014618768548528949e-01 3.938856914481959848e+00
2.024235087250079168e-01 4.107557284409793397e+00
2.033851405951629665e-01 3.953846312485332248e+00
2.043467724653179884e-01 4.031361125725801742e+00
2.053084043354730381e-01 3.779544274487019351e+00
2.062700362056280046e-01 3.642427464597247422e+00
2.072316680757830543e-01 3.549949664728501375e+00
2.081932999459380762e-01 3.402410260304492340e+00
2.091549318160931259e-01 3.308430306955141731e+00
2.101165636862481478e-01 3.094532623672790805e+00
2.110781955564031698e-01 2.989643781200580719e+00
2.120398274265581640e-01 2.657161820811356989e+00
2.130014592967132137e-01 2.574398146405272314e+00
2.139630911668682356e-01 2.424672790799693445e+00
2.149247230370232575e-01 2.360732866324713797e+00
2.158863549071783072e-01 2.157373509510225773e+00
2.168479867773333014e-01 1.984669688486103922e+00
2.178096186474883234e-01 1.637451500669250493e+00
2.187712505176433453e-01 1.802494880433830104e+00
2.197328823877983950e-01 1.736312501331742197e+00
2.206945142579534169e-01 1.783806555628991930e+00
2.216561461281084666e-01 1.963482657938939724e+00
2.226177779982634330e-01 1.741347188784232003e+00
2.235794098684184827e-01 9.651997281594972833e-01
2.245410417385735047e-01 1.189249717487154356e+00
2.255026736087285544e-01 1.336239275933902348e+00
2.264643054788835763e-01 1.127844026562044633e+00
2.274259373490385983e-01 1.119329803382061783e+00
2.283875692191935924e-01 9.423038206734162259e-01
2.293492010893486421e-01 9.336161412617691724e-01
2.303108329595036641e-01 8.370113852550815636e-01
2.312724648296586860e-01 7.288665532660658641e-01
2.322340966998137357e-01 7.233312114038668028e-01
2.331957285699687299e-01 5.319452328203624347e-01
2.341573604401237518e-01 4.784421427468927845e-01
2.351189923102787738e-01 7.009960367167948903e-01
2.360806241804338235e-01 6.350286941569471821e-01
2.370422560505888454e-01 5.523062386745181129e-01
2.380038879207438951e-01 5.164179949814489134e-01
2.389655197908988615e-01 4.816419193312952984e-01
2.399271516610539112e-01 5.415238795753936074e-01
2.408887835312089332e-01 4.413757363814134749e-01
2.418504154013639829e-01 5.509180713482422220e-01
2.428120472715190048e-01 4.791789424887227256e-01
2.437736791416740267e-01 5.397056019003692029e-01
2.447353110118290209e-01 3.152292003471011128e-01
2.456969428819840706e-01 3.200097947666478149e-01
2.466585747521390926e-01 4.959791839537430747e-01
2.476202066222941145e-01 2.617288481153359214e-01
2.485818384924491642e-01 4.050512159372630094e-01
2.495434703626041584e-01 3.541238739152134940e-01
2.505051022327591803e-01 5.268612078311143421e-01
2.514667341029142023e-01 7.350287661207559609e-01
2.524283659730692242e-01 4.815277527574330918e-01
2.533899978432243016e-01 3.820825403736378689e-01
2.543516297133793236e-01 4.301626092583923366e-01
2.553132615835342900e-01 6.454735637705333318e-01
2.562748934536893120e-01 5.664409269494647958e-01
2.572365253238443894e-01 6.444716120476812193e-01
2.581981571939994113e-01 5.320913224455523505e-01
2.591597890641544333e-01 6.366576826601004768e-01
2.601214209343094552e-01 8.220205955431758582e-01
2.610830528044644772e-01 5.864872953720343673e-01
2.620446846746194991e-01 4.670705961410241969e-01
2.630063165447745210e-01 3.971931213872110789e-01
2.639679484149295430e-01 3.227532307394831435e-01
2.649295802850845649e-01 5.754247649835591005e-01
2.658912121552395869e-01 6.100257342442283459e-01
2.668528440253946088e-01 4.652372940885811659e-01
2.678144758955496307e-01 7.508398422940132377e-01
2.687761077657046527e-01 1.192807616206675192e+00
2.697377396358597301e-01 9.185079807046960809e-01
2.706993715060147521e-01 9.389560530043254971e-01
2.716610033761697185e-01 6.864991891330980422e-01
2.726226352463247404e-01 8.600309444387157498e-01
2.735842671164798179e-01 1.024476984489211873e+00
2.745458989866348398e-01 9.084756453954661026e-01
2.755075308567898618e-01 9.901722804393386923e-01
2.764691627269448837e-01 1.005846940547314716e+00
2.774307945970999056e-01 9.064257072666492832e-01
2.783924264672549276e-01 9.598366021208377674e-01
2.793540583374099495e-01 1.018060322408743446e+00
2.803156902075649715e-01 1.149053402631121656e+00
2.812773220777199934e-01 1.163722871166903872e+00
2.822389539478750153e-01 1.048634203314836810e+00
2.832005858180300373e-01 8.143673675893730035e-01
2.841622176881850592e-01 8.352082496486517016e-01
2.851238495583400812e-01 9.489310462162556803e-01
2.860854814284951586e-01 7.995461447505469721e-01
2.870471132986501805e-01 9.116474591612053757e-01
2.880087451688051470e-01 9.067384076800166781e-01
2.889703770389601689e-01 8.343372326823796925e-01
2.899320089091152464e-01 1.069999613137106564e+00
2.908936407792702683e-01 8.360150191692490296e-01
2.918552726494252902e-01 9.237887985334580776e-01
2.928169045195803122e-01 8.922109189197158230e-01
2.937785363897353341e-01 9.039298120692080829e-01
2.947401682598903561e-01 1.010893822572835887e+00
2.957018001300453780e-01 8.628164672319620365e-01
2.966634320002003999e-01 9.947340282555217073e-01
2.976250638703554219e-01 8.395391907029612355e-01
2.985866957405104993e-01 8.233272400180062789e-01
2.995483276106654658e-01 7.861889014136629328e-01
3.005099594808204877e-01 6.463246286593324896e-01
3.014715913509755651e-01 9.817752440305227424e-01
3.024332232211305871e-01 8.058597440517907273e-01
3.033948550912856090e-01 7.811224727200638540e-01
3.043564869614405755e-01 6.518179309488658646e-01
3.053181188315956529e-01 6.000252882446055480e-01
3.062797507017506748e-01 8.466594882345077622e-01
3.072413825719056968e-01 9.382544013937561544e-01
3.082030144420607187e-01 8.080976181753527499e-01
3.091646463122157407e-01 6.418193224126831353e-01
3.101262781823707626e-01 7.695173356740276915e-01
3.110879100525257845e-01 7.563656821396023133e-01
3.120495419226808065e-01 8.382640249247508279e-01
3.130111737928358284e-01 8.087749270369855026e-01
3.139728056629909059e-01 5.730484668963740091e-01
3.149344375331459278e-01 4.232432663088907532e-01
3.158960694033008942e-01 4.948714782879477525e-01
3.168577012734559162e-01 4.949424631839498545e-01
3.178193331436109936e-01 5.175130972750494607e-01
3.187809650137660156e-01 5.784631541919544873e-01
3.197425968839210375e-01 4.484151390616055721e-01
3.207042287540760039e-01 4.711582863965091406e-01
3.216658606242310814e-01 5.175654540208114440e-01
3.226274924943861033e-01 3.925845989429035399e-01
3.235891243645411253e-01 3.466822566103360259e-01
3.245507562346961472e-01 2.789016003494744211e-01
3.255123881048511691e-01 3.807077686358404378e-01
3.264740199750061911e-01 4.453500814154622844e-01
3.274356518451612130e-01 4.078859575667443949e-01
3.283972837153162350e-01 3.574513347127492580e-01
3.293589155854712569e-01 2.261943668171539912e-01
3.303205474556263344e-01 3.860285530402371990e-01
3.312821793257813563e-01 4.580923223669977062e-01
3.322438111959363227e-01 3.708586888343994303e-01
3.332054430660913447e-01 3.029082283449717750e-01
3.341670749362464221e-01 4.236151943654995478e-01
3.351287068064014441e-01 3.628055837803785266e-01
3.360903386765564660e-01 3.981758731980420407e-01
3.370519705467114324e-01 4.171821496723531197e-01
3.380136024168665099e-01 4.617088699580484956e-01
3.389752342870215318e-01 2.818792700951107122e-01
3.399368661571765537e-01 2.501442087266347869e-01
3.408984980273315757e-01 3.674588791281969691e-01
3.418601298974865976e-01 3.550139477594953519e-01
3.428217617676416196e-01 2.438376563738415825e-01
3.437833936377966415e-01 1.590417211226125005e-01
3.447450255079516634e-01 2.366686422821437930e-01
3.457066573781066854e-01 3.011129890345927151e-01
3.466682892482617628e-01 3.692218705493672815e-01
3.476299211184167848e-01 2.939489663359573512e-01
3.485915529885717512e-01 2.819413337320391122e-01
3.495531848587267731e-01 3.168329925447714857e-01
3.505148167288818506e-01 3.815204469399162690e-01
3.514764485990368725e-01 1.255363880939484034e-01
3.524380804691918945e-01 2.505447623438392668e-01
3.533997123393468609e-01 3.989714508934625314e-01
3.543613442095019384e-01 2.739966642038815792e-01
3.553229760796569603e-01 1.390092151493362849e-01
3.562846079498119822e-01 2.043054991941595233e-01
3.572462398199670042e-01 4.915673353837242132e-01
3.582078716901220261e-01 4.131320221077068311e-01
3.591695035602770480e-01 2.607291697535067954e-01
3.601311354304320700e-01 2.277451853876577559e-01
3.610927673005870919e-01 1.871003681423424325e-01
3.620543991707421139e-01 3.186578217736375507e-01
3.630160310408971913e-01 2.998226619196344700e-01
3.639776629110522133e-01 2.381734839650384572e-01
3.649392947812071797e-01 3.093007214890697298e-01
3.659009266513622016e-01 1.322553812444802190e-01
3.668625585215172791e-01 1.832935536650062147e-01
3.678241903916723010e-01 3.095190132094423063e-01
3.687858222618273230e-01 4.880027877919808077e-01
3.697474541319822894e-01 4.518633302260397500e-01
3.707090860021373668e-01 4.549243500127246875e-01
3.716707178722923888e-01 5.134965579689385606e-01
3.726323497424474107e-01 5.482864760994203834e-01
3.735939816126024327e-01 4.753178928672987524e-01
3.745556134827574546e-01 4.773833033858885244e-01
3.755172453529124765e-01 4.286057887938348188e-01
3.764788772230674985e-01 6.137792204273324614e-01
3.774405090932225204e-01 6.224400917748695861e-01
3.784021409633775423e-01 4.520866985528932958e-01
3.793637728335326198e-01 3.972739262175934982e-01
3.803254047036876417e-01 3.935013565519973611e-01
3.812870365738426082e-01 4.036717618805241159e-01
3.822486684439976301e-01 5.160442437822929662e-01
3.832103003141527076e-01 5.359712430303389397e-01
3.841719321843077295e-01 5.278132536281816556e-01
3.851335640544627514e-01 3.701501459376999037e-01
3.860951959246177734e-01 3.445936423535016502e-01
3.870568277947727953e-01 3.403951874999080474e-01
3.880184596649278173e-01 2.451073097620337649e-01
3.889800915350828392e-01 2.972694291268069833e-01
3.899417234052378611e-01 2.786256231372519210e-01
3.909033552753928831e-01 4.294507985157416385e-01
3.918649871455479050e-01 5.919868402616721426e-01
3.928266190157029270e-01 5.472349098278002089e-01
3.937882508858579489e-01 3.686751831427734771e-01
3.947498827560129708e-01 3.513787174566083138e-01
3.957115146261680483e-01 5.092763078163535795e-01
3.966731464963230702e-01 4.069361145357426324e-01
3.976347783664780366e-01 5.253323968712741987e-01
3.985964102366330586e-01 5.624930157651952811e-01
3.995580421067881360e-01 4.682569038368242786e-01
4.005196739769430470e-01 5.152008939173740032e-01
4.014813058470981244e-01 5.686584972991504117e-01
4.024429377172531463e-01 3.420531734989182837e-01
4.034045695874082238e-01 3.595840383245665350e-01
