# q (1/Angstrom), Intensity (arb)
2.067508526570814575e-02 6.070175382817362788e+02
2.163671713586316769e-02 6.353563417123859836e+02
2.259834900601819310e-02 6.562751507672697926e+02
2.355998087617321851e-02 6.611617712683371337e+02
2.452161274632824739e-02 6.626960757644949354e+02
2.548324461648326933e-02 6.626917437792849341e+02
2.644487648663829821e-02 6.635152932532630530e+02
2.740650835679332709e-02 6.583615273443690512e+02
2.836814022694834903e-02 6.554924497911852086e+02
2.932977209710337443e-02 6.550330430547688820e+02
3.029140396725839637e-02 6.516598032673647367e+02
3.125303583741342178e-02 6.476225720964137054e+02
3.221466770756845066e-02 6.406928700424675753e+02
3.317629957772347260e-02 6.374184314228041330e+02
3.413793144787850148e-02 6.346808616928814217e+02
3.509956331803352342e-02 6.306707099543235699e+02
3.606119518818855230e-02 6.261220970190612434e+02
3.702282705834358117e-02 6.185843379190951055e+02
3.798445892849860311e-02 6.115279481702124258e+02
3.894609079865363199e-02 6.047515743468652545e+02
3.990772266880865393e-02 5.986046560860062300e+02
4.086935453896367587e-02 5.927914790836817929e+02
4.183098640911870475e-02 5.878141365468565027e+02
4.279261827927372669e-02 5.814817249645930133e+02
4.375425014942875557e-02 5.716680173443414787e+02
4.471588201958377751e-02 5.617181644351629757e+02
4.567751388973880639e-02 5.542995485488995655e+02
4.663914575989382832e-02 5.484310628272120312e+02
4.760077763004885720e-02 5.392884830915603516e+02
4.856240950020387914e-02 5.293330005227928723e+02
4.952404137035890108e-02 5.199878427522187394e+02
5.048567324051392302e-02 5.100055927930076223e+02
5.144730511066895190e-02 5.014017626918531505e+02
5.240893698082397384e-02 4.934159223274348847e+02
5.337056885097899578e-02 4.835183474767572420e+02
5.433220072113403160e-02 4.718132657371553478e+02
5.529383259128905354e-02 4.597930771547162863e+02
5.625546446144407547e-02 4.479522130070550361e+02
5.721709633159910435e-02 4.386464173929316530e+02
5.817872820175412629e-02 4.278345170465511274e+02
5.914036007190914823e-02 4.165711808990293434e+02
6.010199194206417017e-02 4.076257009022906459e+02
6.106362381221920599e-02 3.976303227504961910e+02
6.202525568237422793e-02 3.870012333012594468e+02
6.298688755252924987e-02 3.760798740616498321e+02
6.394851942268428568e-02 3.660015033057027836e+02
6.491015129283930762e-02 3.569008662805483141e+02
6.587178316299432956e-02 3.454566030048464427e+02
6.683341503314935150e-02 3.355401653133370132e+02
6.779504690330438732e-02 3.268167591455097067e+02
6.875667877345940926e-02 3.172592335185959769e+02
6.971831064361443120e-02 3.070861165300283915e+02
7.067994251376945314e-02 2.976460520334596254e+02
7.164157438392447508e-02 2.883842777757520821e+02
7.260320625407949702e-02 2.783283129676954104e+02
7.356483812423453283e-02 2.709509485372416293e+02
7.452646999438955477e-02 2.614428350517249555e+02
7.548810186454457671e-02 2.521691417240567432e+02
7.644973373469959865e-02 2.440333865572777086e+02
7.741136560485463447e-02 2.350053584137749567e+02
7.837299747500965641e-02 2.261102430274527819e+02
7.933462934516467835e-02 2.189392196939160726e+02
8.029626121531971417e-02 2.102911539665542193e+02
8.125789308547473611e-02 2.027151827322347231e+02
8.221952495562975805e-02 1.953616939850567178e+02
8.318115682578479386e-02 1.871495843068053091e+02
8.414278869593981580e-02 1.791631505048141264e+02
8.510442056609483774e-02 1.710096108730425897e+02
8.606605243624985968e-02 1.640006054937407498e+02
8.702768430640489550e-02 1.570926671649976356e+02
8.798931617655991744e-02 1.502263861514403800e+02
8.895094804671493938e-02 1.436381846203078680e+02
8.991257991686996132e-02 1.370249343214235012e+02
9.087421178702498326e-02 1.307873496112802343e+02
9.183584365718000520e-02 1.251636534729910863e+02
9.279747552733502713e-02 1.197538597319373963e+02
9.375910739749006295e-02 1.138527033259231160e+02
9.472073926764508489e-02 1.082415816580041223e+02
9.568237113780010683e-02 1.025306462544998141e+02
9.664400300795514265e-02 9.784117633963967364e+01
9.760563487811016459e-02 9.247106499589642681e+01
9.856726674826518653e-02 8.721096473326849718e+01
9.952889861842022234e-02 8.258282276333798677e+01
1.004905304885752443e-01 7.799483369175752046e+01
1.014521623587302801e-01 7.360375716155988357e+01
1.024137942288853020e-01 6.923175340749592976e+01
1.033754260990403240e-01 6.516191586423165916e+01
1.043370579691953459e-01 6.136828978610240881e+01
1.052986898393503817e-01 5.807951683117310893e+01
1.062603217095053898e-01 5.404600287719182461e+01
1.072219535796604256e-01 4.963682344403113689e+01
1.081835854498154614e-01 4.715582637105167407e+01
1.091452173199704695e-01 4.446642961088235779e+01
1.101068491901255053e-01 4.151353025869295266e+01
1.110684810602805411e-01 3.838877137868396971e+01
1.120301129304355492e-01 3.552633880122285603e+01
1.129917448005905850e-01 3.281331473139022137e+01
1.139533766707456208e-01 3.051621154020719473e+01
1.149150085409006289e-01 2.855927155672262430e+01
1.158766404110556647e-01 2.624901994260448035e+01
1.168382722812106728e-01 2.370472919684561930e+01
1.177999041513657086e-01 2.190371221298732252e+01
1.187615360215207305e-01 2.016554514843167567e+01
1.197231678916757525e-01 1.889485139651850787e+01
1.206847997618307744e-01 1.720246640269001404e+01
1.216464316319858102e-01 1.523352956550145976e+01
1.226080635021408183e-01 1.379066627666895428e+01
1.235696953722958541e-01 1.242150013506658368e+01
1.245313272424508899e-01 1.137288619491385688e+01
1.254929591126059119e-01 1.025988777461559920e+01
1.264545909827609338e-01 9.304345685019129064e+00
1.274162228529159557e-01 8.166119423632419938e+00
1.283778547230709777e-01 7.378759093485165010e+00
1.293394865932259996e-01 6.342519748181516093e+00
1.303011184633810493e-01 5.558335258652995492e+00
1.312627503335360435e-01 4.860819705915204736e+00
1.322243822036910932e-01 4.495509467766755307e+00
1.331860140738460874e-01 4.043068818767952877e+00
1.341476459440011371e-01 3.430513982172342935e+00
1.351092778141561590e-01 3.085238567722274894e+00
1.360709096843111809e-01 2.500664485518303337e+00
1.370325415544662029e-01 2.325824697095402627e+00
1.379941734246212526e-01 2.229810121376672782e+00
1.389558052947762468e-01 1.541115197624076671e+00
1.399174371649312965e-01 1.487193218689363050e+00
1.408790690350863184e-01 1.483556816625185348e+00
1.418407009052413403e-01 1.215562356726664461e+00
1.428023327753963623e-01 1.237180699025870467e+00
1.437639646455513842e-01 1.270500852758324584e+00
1.447255965157064062e-01 1.232681618786482858e+00
1.456872283858614281e-01 1.242026803744071373e+00
1.466488602560164778e-01 1.376372662015043602e+00
1.476104921261714720e-01 1.350727826235033291e+00
1.485721239963265217e-01 9.880928505982033982e-01
1.495337558664815436e-01 1.245581906969015051e+00
1.504953877366365655e-01 1.794522100297587741e+00
1.514570196067915875e-01 1.830616459559966103e+00
1.524186514769466094e-01 1.875237961282305577e+00
1.533802833471016314e-01 1.974098683590060688e+00
1.543419152172566811e-01 2.395501917924661939e+00
1.553035470874116752e-01 2.331438021848420306e+00
1.562651789575667249e-01 2.417528277914581025e+00
1.572268108277217469e-01 2.953322703660745674e+00
1.581884426978767688e-01 3.253785297906865992e+00
1.591500745680317908e-01 3.284640297165605460e+00
1.601117064381868405e-01 3.397383382250488637e+00
1.610733383083418346e-01 3.508232393477648259e+00
1.620349701784968843e-01 3.538396530659881023e+00
1.629966020486519063e-01 3.759780486616495665e+00
1.639582339188069282e-01 4.075019193838272713e+00
1.649198657889619501e-01 4.230393474111817653e+00
1.658814976591169721e-01 4.346690888105680273e+00
1.668431295292719940e-01 4.944713108816866765e+00
1.678047613994270160e-01 5.080058562450076920e+00
1.687663932695820379e-01 5.023233141423922632e+00
1.697280251397370598e-01 5.122441596568208411e+00
1.706896570098921095e-01 5.136716998848484650e+00
1.716512888800471037e-01 5.110229251842746123e+00
1.726129207502021534e-01 5.289368189333387704e+00
1.735745526203571754e-01 5.357465668254512536e+00
1.745361844905121973e-01 5.118397937531554476e+00
1.754978163606672192e-01 5.349341288241515002e+00
1.764594482308222689e-01 5.781281171605865410e+00
1.774210801009772631e-01 5.934968853448577164e+00
1.783827119711323128e-01 5.930037763099274883e+00
1.793443438412873348e-01 5.619640037670905031e+00
1.803059757114423567e-01 5.595310550985747255e+00
1.812676075815973786e-01 5.407292943304423005e+00
1.822292394517524006e-01 5.157931677058179787e+00
1.831908713219074225e-01 5.550929623301765758e+00
1.841525031920624444e-01 5.687126840662067195e+00
1.851141350622174664e-01 5.635957333667501956e+00
1.860757669323724883e-01 5.602536635935095433e+00
1.870373988025275380e-01 5.785004461091116212e+00
1.879990306726825322e-01 5.372378447149642966e+00
1.889606625428375819e-01 5.255002268784252806e+00
1.899222944129926038e-01 5.501818361056809437e+00
1.908839262831476258e-01 5.672909923079707539e+00
1.918455581533026477e-01 5.440525783944025306e+00
1.928071900234576974e-01 5.200896570009355457e+00
1.937688218936126916e-01 5.294911042787123989e+00
1.947304537637677413e-01 5.132592042742775362e+00
1.956920856339227632e-01 4.927467305945040010e+00
1.966537175040777852e-01 4.836485061129074836e+00
1.976153493742328071e-01 5.167475966663950260e+00
1.985769812443878291e-01 4.724029033812353617e+00
1.995386131145428510e-01 4.414479050342347222e+00
2.005002449846978729e-01 4.652813718375568897e+00
2.014618768548528949e-01 4.653295355470067562e+00
2.024235087250079168e-01 4.488164601535018505e+00
2.033851405951629665e-01 3.968502347113151529e+00
2.043467724653179884e-01 3.951018928948588638e+00
2.053084043354730381e-01 3.849832895088873386e+00
2.062700362056280046e-01 3.514429577341704913e+00
2.072316680757830543e-01 3.392368588001570373e+00
2.081932999459380762e-01 3.360050757177059921e+00
2.091549318160931259e-01 2.967670756901934936e+00
2.101165636862481478e-01 2.709626431690011827e+00
2.110781955564031698e-01 2.733468338848716428e+00
2.120398274265581640e-01 2.802181159251293963e+00
2.130014592967132137e-01 2.639652042964410583e+00
2.139630911668682356e-01 2.393187864740205839e+00
2.149247230370232575e-01 2.275229494861171986e+00
2.158863549071783072e-01 2.160585451807790491e+00
2.168479867773333014e-01 2.309743611599195390e+00
2.178096186474883234e-01 1.902911920918342048e+00
2.187712505176433453e-01 1.551804139247668246e+00
2.197328823877983950e-01 1.705929676496822367e+00
2.206945142579534169e-01 1.558694074686812314e+00
2.216561461281084666e-01 1.597540512296898640e+00
2.226177779982634330e-01 1.592184250700203307e+00
2.235794098684184827e-01 1.373903989062455366e+00
2.245410417385735047e-01 1.175762701694946344e+00
2.255026736087285544e-01 1.253826374338757432e+00
2.264643054788835763e-01 1.108843592424992863e+00
2.274259373490385983e-01 1.100186025787987631e+00
2.283875692191935924e-01 1.099060662597434401e+00
2.293492010893486421e-01 8.084861072741240662e-01
2.303108329595036641e-01 6.833645045591687506e-01
2.312724648296586860e-01 9.264327222808219631e-01
2.322340966998137357e-01 8.289617317062329960e-01
2.331957285699687299e-01 7.893125612749045672e-01
2.341573604401237518e-01 7.175033654955491613e-01
2.351189923102787738e-01 8.531762121957839895e-01
2.360806241804338235e-01 4.714959446228625950e-01
2.370422560505888454e-01 4.321053652079775986e-01
2.380038879207438951e-01 4.106796857965342440e-01
2.389655197908988615e-01 4.733496959019305450e-01
2.399271516610539112e-01 3.700752912873177536e-01
2.408887835312089332e-01 3.209454173273371680e-01
2.418504154013639829e-01 4.362607102696962613e-01
2.428120472715190048e-01 2.602655531920667897e-01
2.437736791416740267e-01 1.208736371251362129e-01
2.447353110118290209e-01 2.639607570066253572e-01
2.456969428819840706e-01 2.029692631199964126e-01
2.466585747521390926e-01 3.007187646583382445e-01
2.476202066222941145e-01 5.476119035026343340e-01
2.485818384924491642e-01 5.242167829613180174e-01
2.495434703626041584e-01 4.296310897464188372e-01
2.505051022327591803e-01 3.686469789666162455e-01
2.514667341029142023e-01 3.200787303806968964e-01
2.524283659730692242e-01 4.631280435263427364e-01
2.533899978432243016e-01 5.191817783651551110e-01
2.543516297133793236e-01 2.742951848118693192e-01
2.553132615835342900e-01 3.933408947814740486e-01
2.562748934536893120e-01 4.372787939337925422e-01
2.572365253238443894e-01 4.053151222687247923e-01
2.581981571939994113e-01 2.216488426192420036e-01
2.591597890641544333e-01 3.097355134278636513e-01
2.601214209343094552e-01 5.690288129799441208e-01
2.610830528044644772e-01 5.452882425660305898e-01
2.620446846746194991e-01 2.769668251450525531e-01
2.630063165447745210e-01 4.120764144982764776e-01
2.639679484149295430e-01 9.863452691049268140e-01
2.649295802850845649e-01 7.112005954415501208e-01
2.658912121552395869e-01 7.786596510799483895e-01
2.668528440253946088e-01 5.751202655565421651e-01
2.678144758955496307e-01 6.199809726404161836e-01
2.687761077657046527e-01 6.770177673530604068e-01
2.697377396358597301e-01 9.706131921127436613e-01
2.706993715060147521e-01 8.637145876179026516e-01
2.716610033761697185e-01 7.036514119651187116e-01
2.726226352463247404e-01 7.684728640388591714e-01
2.735842671164798179e-01 9.243184283074512564e-01
2.745458989866348398e-01 7.456417658090508382e-01
2.755075308567898618e-01 9.036570823799223717e-01
2.764691627269448837e-01 1.005734168244988069e+00
2.774307945970999056e-01 1.098280369306383619e+00
2.783924264672549276e-01 9.318705022499216284e-01
2.793540583374099495e-01 8.726429277434277765e-01
2.803156902075649715e-01 7.732329651237250800e-01
2.812773220777199934e-01 8.675679947212806553e-01
2.822389539478750153e-01 1.101929275178537893e+00
2.832005858180300373e-01 1.118886016516153603e+00
2.841622176881850592e-01 9.687614640669224286e-01
2.851238495583400812e-01 8.813990273892464700e-01
2.860854814284951586e-01 9.515257345550161006e-01
2.870471132986501805e-01 1.040958180206104089e+00
2.880087451688051470e-01 1.114277936957957849e+00
2.889703770389601689e-01 1.041837930124223988e+00
2.899320089091152464e-01 1.013663614571019167e+00
2.908936407792702683e-01 9.100992574417894332e-01
2.918552726494252902e-01 8.827987954015341643e-01
2.928169045195803122e-01 8.549792368938646803e-01
2.937785363897353341e-01 1.208890362539388974e+00
2.947401682598903561e-01 1.007680288817454084e+00
2.957018001300453780e-01 1.075716760613385503e+00
2.966634320002003999e-01 1.118996307530892409e+00
2.976250638703554219e-01 9.695131876800360260e-01
2.985866957405104993e-01 8.297763453923820975e-01
2.995483276106654658e-01 7.987402097255156264e-01
3.005099594808204877e-01 7.175817596394509224e-01
3.014715913509755651e-01 7.956086280779928188e-01
3.024332232211305871e-01 8.308465861174916256e-01
3.033948550912856090e-01 7.761666517047842717e-01
3.043564869614405755e-01 6.558827687670358841e-01
3.053181188315956529e-01 7.669088816734728198e-01
3.062797507017506748e-01 7.229973235206124116e-01
3.072413825719056968e-01 5.739106938161349092e-01
3.082030144420607187e-01 6.693628254801602395e-01
3.091646463122157407e-01 6.081003520424843600e-01
3.101262781823707626e-01 6.550703534640405223e-01
3.110879100525257845e-01 6.952793202867226796e-01
3.120495419226808065e-01 5.295829043886683962e-01
3.130111737928358284e-01 5.614192794972829859e-01
3.139728056629909059e-01 6.054054602035243704e-01
3.149344375331459278e-01 8.594722896718138827e-01
3.158960694033008942e-01 6.924188568615257111e-01
3.168577012734559162e-01 7.653678625104767264e-01
3.178193331436109936e-01 6.451790382866562368e-01
3.187809650137660156e-01 6.574697287741848584e-01
3.197425968839210375e-01 4.684846261770942988e-01
3.207042287540760039e-01 5.658188672279429454e-01
3.216658606242310814e-01 5.426515640850446687e-01
3.226274924943861033e-01 4.724315290916791810e-01
3.235891243645411253e-01 2.480539625057183173e-01
3.245507562346961472e-01 1.860643702307243075e-01
3.255123881048511691e-01 3.563653030154760870e-01
3.264740199750061911e-01 4.943346905273671155e-01
3.274356518451612130e-01 3.615250348831970939e-01
3.283972837153162350e-01 4.155318306094955005e-01
3.293589155854712569e-01 3.439867536929526182e-01
3.303205474556263344e-01 4.038937733640572958e-01
3.312821793257813563e-01 3.344180843612889475e-01
3.322438111959363227e-01 4.026494455383016202e-01
3.332054430660913447e-01 3.420263868943038688e-01
3.341670749362464221e-01 3.316207325450442056e-01
3.351287068064014441e-01 1.815939990646207036e-01
3.360903386765564660e-01 2.711250020647923975e-01
3.370519705467114324e-01 2.015180882990534883e-01
3.380136024168665099e-01 3.621495859858718802e-01
3.389752342870215318e-01 3.296526987449865942e-01
3.399368661571765537e-01 3.646669273343725592e-01
3.408984980273315757e-01 3.299404895500437362e-01
3.418601298974865976e-01 1.353911524052229254e-01
3.428217617676416196e-01 1.099941634025114467e-01
3.437833936377966415e-01 2.799316896449610681e-01
3.447450255079516634e-01 3.707378502067903980e-01
3.457066573781066854e-01 3.484265908357890851e-01
3.466682892482617628e-01 1.929625796581113661e-01
3.476299211184167848e-01 2.089807603998288243e-01
3.485915529885717512e-01 1.242207225156413131e-01
3.495531848587267731e-01 2.549232364123668049e-01
3.505148167288818506e-01 2.154763542872792925e-01
3.514764485990368725e-01 1.909105615908082143e-01
3.524380804691918945e-01 2.226395019467446446e-01
3.533997123393468609e-01 3.804677461785566095e-01
3.543613442095019384e-01 4.257029425304033055e-01
3.553229760796569603e-01 3.399062965016277360e-01
3.562846079498119822e-01 3.186186622280189340e-01
3.572462398199670042e-01 3.144341894824975725e-01
3.582078716901220261e-01 2.493950663262189948e-01
3.591695035602770480e-01 2.590581582598296961e-01
3.601311354304320700e-01 2.243274779199921909e-01
3.610927673005870919e-01 3.502907418337422030e-01
3.620543991707421139e-01 1.690054214892846574e-01
3.630160310408971913e-01 3.256030735097326101e-02
3.639776629110522133e-01 1.109649781637465082e-01
3.649392947812071797e-01 1.864355464806237705e-01
3.659009266513622016e-01 4.372749300078631052e-01
3.668625585215172791e-01 5.953068658724127715e-01
3.678241903916723010e-01 4.993114867250767475e-01
3.687858222618273230e-01 4.203988738746424758e-01
3.697474541319822894e-01 4.602731467271645727e-01
3.707090860021373668e-01 4.720509806667934072e-01
3.716707178722923888e-01 3.867459297710809096e-01
3.726323497424474107e-01 2.943749039258669598e-01
3.735939816126024327e-01 4.165155345353888094e-01
3.745556134827574546e-01 4.136976249545121220e-01
3.755172453529124765e-01 4.566073569251543063e-01
3.764788772230674985e-01 4.699432256126101493e-01
3.774405090932225204e-01 3.684423773980824990e-01
3.784021409633775423e-01 4.741560345597797266e-01
3.793637728335326198e-01 4.904717922973773625e-01
3.803254047036876417e-01 3.473304527134537523e-01
3.812870365738426082e-01 2.456688579522250393e-01
3.822486684439976301e-01 3.041223729267947817e-01
3.832103003141527076e-01 3.742189105257729409e-01
3.841719321843077295e-01 3.607544062856646860e-01
3.851335640544627514e-01 1.958276958324525197e-01
3.860951959246177734e-01 2.008928884104399515e-01
3.870568277947727953e-01 2.990080380985595809e-01
3.880184596649278173e-01 4.366127224079470182e-01
3.889800915350828392e-01 3.717717078780857776e-01
3.899417234052378611e-01 3.745072610173885153e-01
3.909033552753928831e-01 5.911637969919603108e-01
3.918649871455479050e-01 6.417356357660679578e-01
3.928266190157029270e-01 5.254076958005455822e-01
3.937882508858579489e-01 5.134794277428014198e-01
3.947498827560129708e-01 4.140371051084841270e-01
3.957115146261680483e-01 5.689248060665477169e-01
3.966731464963230702e-01 5.444677846878249738e-01
3.976347783664780366e-01 5.254621504027632284e-01
3.985964102366330586e-01 4.988464128063796466e-01
3.995580421067881360e-01 4.861497909398018180e-01
4.005196739769430470e-01 3.314512683179557939e-01
4.014813058470981244e-01 2.119531652631891916e-01
4.024429377172531463e-01 3.166501549298246232e-01
4.034045695874082238e-01 3.284114094992283128e-01
