# q (1/Angstrom), Intensity (arb)
2.067508526570814575e-02 6.002870284167461250e+02
2.163671713586316769e-02 6.266701453816406229e+02
2.259834900601819310e-02 6.473914252270977840e+02
2.355998087617321851e-02 6.526400211004807943e+02
2.452161274632824739e-02 6.559944924454861166e+02
2.548324461648326933e-02 6.566149565492521560e+02
2.644487648663829821e-02 6.546707007826869358e+02
2.740650835679332709e-02 6.575429961930833542e+02
2.836814022694834903e-02 6.560276206424684915e+02
2.932977209710337443e-02 6.523811539870636125e+02
3.029140396725839637e-02 6.479247300315740858e+02
3.125303583741342178e-02 6.423233492848484047e+02
3.221466770756845066e-02 6.368662050664802337e+02
3.317629957772347260e-02 6.314961531805544155e+02
3.413793144787850148e-02 6.264533328786400261e+02
3.509956331803352342e-02 6.245067136585920480e+02
3.606119518818855230e-02 6.214744706085072039e+02
3.702282705834358117e-02 6.157995784213649131e+02
3.798445892849860311e-02 6.087473257189358264e+02
3.894609079865363199e-02 6.039674579199805748e+02
3.990772266880865393e-02 5.964141003199678153e+02
4.086935453896367587e-02 5.882071010763772847e+02
4.183098640911870475e-02 5.803444308764782136e+02
4.279261827927372669e-02 5.732329959965372836e+02
4.375425014942875557e-02 5.652902396615862699e+02
4.471588201958377751e-02 5.575105059379329759e+02
4.567751388973880639e-02 5.509909684555279910e+02
4.663914575989382832e-02 5.424826985601550859e+02
4.760077763004885720e-02 5.341785978801751753e+02
4.856240950020387914e-02 5.268467329981874627e+02
4.952404137035890108e-02 5.168423243501497382e+02
5.048567324051392302e-02 5.087516808102851655e+02
5.144730511066895190e-02 4.997138283779278254e+02
5.240893698082397384e-02 4.906835405770635248e+02
5.337056885097899578e-02 4.790061096238555933e+02
5.433220072113403160e-02 4.686765949741722466e+02
5.529383259128905354e-02 4.577613538087862821e+02
5.625546446144407547e-02 4.467160413265247598e+02
5.721709633159910435e-02 4.363557805833398788e+02
5.817872820175412629e-02 4.266154471915170916e+02
5.914036007190914823e-02 4.181553320385224310e+02
6.010199194206417017e-02 4.075475785858741915e+02
6.106362381221920599e-02 3.956177061850270320e+02
6.202525568237422793e-02 3.840925152269525142e+02
6.298688755252924987e-02 3.747471055466922962e+02
6.394851942268428568e-02 3.652233037512081637e+02
6.491015129283930762e-02 3.535993401771689832e+02
6.587178316299432956e-02 3.430573322017398823e+02
6.683341503314935150e-02 3.328057008995385786e+02
6.779504690330438732e-02 3.252897012415538711e+02
6.875667877345940926e-02 3.144906903239423741e+02
6.971831064361443120e-02 3.049828834526430796e+02
7.067994251376945314e-02 2.956070695422942549e+02
7.164157438392447508e-02 2.856100637010364949e+02
7.260320625407949702e-02 2.769846521529159986e+02
7.356483812423453283e-02 2.686507897272047103e+02
7.452646999438955477e-02 2.595651641845678341e+02
7.548810186454457671e-02 2.510878439947937864e+02
7.644973373469959865e-02 2.425691704330165237e+02
7.741136560485463447e-02 2.335235225227516196e+02
7.837299747500965641e-02 2.247987728928081310e+02
7.933462934516467835e-02 2.164347133303354838e+02
8.029626121531971417e-02 2.076008560459989667e+02
8.125789308547473611e-02 2.013553181343244205e+02
8.221952495562975805e-02 1.942852823230611250e+02
8.318115682578479386e-02 1.853591579111774195e+02
8.414278869593981580e-02 1.786800655781485148e+02
8.510442056609483774e-02 1.707141797809963748e+02
8.606605243624985968e-02 1.631703989005180233e+02
8.702768430640489550e-02 1.557631611389397222e+02
8.798931617655991744e-02 1.501233578648758566e+02
8.895094804671493938e-02 1.435038117749734852e+02
8.991257991686996132e-02 1.362995204906998765e+02
9.087421178702498326e-02 1.309233338845058938e+02
9.183584365718000520e-02 1.249788559913433801e+02
9.279747552733502713e-02 1.192409109027895511e+02
9.375910739749006295e-02 1.129702209307681500e+02
9.472073926764508489e-02 1.073877588626970692e+02
9.568237113780010683e-02 1.021682970300891782e+02
9.664400300795514265e-02 9.709895108775782546e+01
9.760563487811016459e-02 9.217011188526780074e+01
9.856726674826518653e-02 8.739243794400282184e+01
9.952889861842022234e-02 8.151078748945731434e+01
1.004905304885752443e-01 7.730351716993875755e+01
1.014521623587302801e-01 7.281350942443410190e+01
1.024137942288853020e-01 6.847366134375579350e+01
1.033754260990403240e-01 6.500115935570991610e+01
1.043370579691953459e-01 6.119483742855682351e+01
1.052986898393503817e-01 5.770590496295316996e+01
1.062603217095053898e-01 5.396609577227070531e+01
1.072219535796604256e-01 5.045570231963406371e+01
1.081835854498154614e-01 4.665046156005843159e+01
1.091452173199704695e-01 4.370595175162406321e+01
1.101068491901255053e-01 4.124400545927181838e+01
1.110684810602805411e-01 3.800163784009865253e+01
1.120301129304355492e-01 3.538081940902537070e+01
1.129917448005905850e-01 3.338924983575160610e+01
1.139533766707456208e-01 3.047243373937872235e+01
1.149150085409006289e-01 2.787675557735195042e+01
1.158766404110556647e-01 2.590501940078067022e+01
1.168382722812106728e-01 2.383984560726017676e+01
1.177999041513657086e-01 2.184738229763413742e+01
1.187615360215207305e-01 2.040149358010145875e+01
1.197231678916757525e-01 1.808031633923912196e+01
1.206847997618307744e-01 1.618117663242641058e+01
1.216464316319858102e-01 1.502107637751226221e+01
1.226080635021408183e-01 1.370335698089976617e+01
1.235696953722958541e-01 1.233650774192241784e+01
1.245313272424508899e-01 1.129281792628491132e+01
1.254929591126059119e-01 1.004126207868909759e+01
1.264545909827609338e-01 9.009869632632938163e+00
1.274162228529159557e-01 8.080107159843695541e+00
1.283778547230709777e-01 7.654154380021193305e+00
1.293394865932259996e-01 7.006908340599441232e+00
1.303011184633810493e-01 5.915810025215513690e+00
1.312627503335360435e-01 5.190436856086439121e+00
1.322243822036910932e-01 4.307819558427379292e+00
1.331860140738460874e-01 3.771667069409026851e+00
1.341476459440011371e-01 3.473905095405140031e+00
1.351092778141561590e-01 2.915295039376104569e+00
1.360709096843111809e-01 2.857566715705214477e+00
1.370325415544662029e-01 2.307585696113171991e+00
1.379941734246212526e-01 1.604548402441896116e+00
1.389558052947762468e-01 1.509847617262963126e+00
1.399174371649312965e-01 1.383151487831081994e+00
1.408790690350863184e-01 1.399933603734634602e+00
1.418407009052413403e-01 1.326151187937995246e+00
1.428023327753963623e-01 1.288705416028193440e+00
1.437639646455513842e-01 1.220495958443585494e+00
1.447255965157064062e-01 1.072143165694779299e+00
1.456872283858614281e-01 1.031804642083887558e+00
1.466488602560164778e-01 1.230542866860989903e+00
1.476104921261714720e-01 1.676716294807384600e+00
1.485721239963265217e-01 1.602537651490813175e+00
1.495337558664815436e-01 1.454786094267486618e+00
1.504953877366365655e-01 1.822552792940999922e+00
1.514570196067915875e-01 1.913266444912089526e+00
1.524186514769466094e-01 1.711360143079126317e+00
1.533802833471016314e-01 1.917827709804143410e+00
1.543419152172566811e-01 2.262790105865477130e+00
1.553035470874116752e-01 2.508067482228348410e+00
1.562651789575667249e-01 2.436309435435155990e+00
1.572268108277217469e-01 2.784204335836871991e+00
1.581884426978767688e-01 3.181382354065181772e+00
1.591500745680317908e-01 3.312634025231432133e+00
1.601117064381868405e-01 3.511928385667353325e+00
1.610733383083418346e-01 3.588839374459507070e+00
1.620349701784968843e-01 3.795550839689145306e+00
1.629966020486519063e-01 4.018297993690293168e+00
1.639582339188069282e-01 3.951459204130006952e+00
1.649198657889619501e-01 4.007437888524844283e+00
1.658814976591169721e-01 4.188604223933459991e+00
1.668431295292719940e-01 4.627842748126159478e+00
1.678047613994270160e-01 4.799077505619848694e+00
1.687663932695820379e-01 4.808322218500368450e+00
1.697280251397370598e-01 4.798340052321886873e+00
1.706896570098921095e-01 4.935366299556598335e+00
1.716512888800471037e-01 5.056928345403967739e+00
1.726129207502021534e-01 5.102826826516785985e+00
1.735745526203571754e-01 5.176670866568507279e+00
1.745361844905121973e-01 5.160789451348499313e+00
1.754978163606672192e-01 5.224551351789990861e+00
1.764594482308222689e-01 5.612051258650602392e+00
1.774210801009772631e-01 5.621784106693915817e+00
1.783827119711323128e-01 5.757790540587567563e+00
1.793443438412873348e-01 5.752062689098092818e+00
1.803059757114423567e-01 5.925335494102668576e+00
1.812676075815973786e-01 6.217321168444545521e+00
1.822292394517524006e-01 6.042743416506631604e+00
1.831908713219074225e-01 6.065480370013446532e+00
1.841525031920624444e-01 6.125000120452792629e+00
1.851141350622174664e-01 5.809814644460235655e+00
1.860757669323724883e-01 5.727522171696687536e+00
1.870373988025275380e-01 5.618693924104199766e+00
1.879990306726825322e-01 5.669473704346241760e+00
1.889606625428375819e-01 5.507754958414182056e+00
1.899222944129926038e-01 5.553726146656572382e+00
1.908839262831476258e-01 5.503486417716111134e+00
1.918455581533026477e-01 5.170139580687028058e+00
1.928071900234576974e-01 5.049964428574359232e+00
1.937688218936126916e-01 4.925162137861505585e+00
1.947304537637677413e-01 4.780089881701741206e+00
1.956920856339227632e-01 4.664546309871560936e+00
1.966537175040777852e-01 4.897798758096520544e+00
1.976153493742328071e-01 4.593397510306090226e+00
1.985769812443878291e-01 4.476901210544909304e+00
1.995386131145428510e-01 4.683003113029318598e+00
2.005002449846978729e-01 4.471554838275029198e+00
2.014618768548528949e-01 4.163821637771665252e+00
2.024235087250079168e-01 4.048408132883533739e+00
2.033851405951629665e-01 3.813410081943597874e+00
2.043467724653179884e-01 3.852649225433196989e+00
2.053084043354730381e-01 3.551666782446524451e+00
2.062700362056280046e-01 3.224159506399701058e+00
2.072316680757830543e-01 3.041534994387340873e+00
2.081932999459380762e-01 3.263900366928201180e+00
2.091549318160931259e-01 3.305981964893042857e+00
2.101165636862481478e-01 3.194921136412201434e+00
2.110781955564031698e-01 3.021834088728017065e+00
2.120398274265581640e-01 2.670170239340350804e+00
2.130014592967132137e-01 2.231744819659457590e+00
2.139630911668682356e-01 2.125137147882714572e+00
2.149247230370232575e-01 2.266433671077791701e+00
2.158863549071783072e-01 2.204734186926444295e+00
2.168479867773333014e-01 1.903382288925804744e+00
2.178096186474883234e-01 1.801100095668406453e+00
2.187712505176433453e-01 2.012766933808944003e+00
2.197328823877983950e-01 1.755431576507099578e+00
2.206945142579534169e-01 1.798426510982352511e+00
2.216561461281084666e-01 1.925376423541489856e+00
2.226177779982634330e-01 1.815985297939167964e+00
2.235794098684184827e-01 1.639695841639731810e+00
2.245410417385735047e-01 1.499141719662702599e+00
2.255026736087285544e-01 1.212616521097430677e+00
2.264643054788835763e-01 1.141465501500722013e+00
2.274259373490385983e-01 1.123290697649075298e+00
2.283875692191935924e-01 9.018449282716325399e-01
2.293492010893486421e-01 9.416409835018519914e-01
2.303108329595036641e-01 9.918079511110526880e-01
2.312724648296586860e-01 9.925379021869957796e-01
2.322340966998137357e-01 8.319380344703191099e-01
2.331957285699687299e-01 4.109712639877294293e-01
2.341573604401237518e-01 3.109270084902391318e-01
2.351189923102787738e-01 6.172551926854694671e-01
2.360806241804338235e-01 7.830458216330136167e-01
2.370422560505888454e-01 4.867498923743482919e-01
2.380038879207438951e-01 5.027037938817748852e-01
2.389655197908988615e-01 5.191221085354236209e-01
2.399271516610539112e-01 3.524484943963592798e-01
2.408887835312089332e-01 3.546538590088523790e-01
2.418504154013639829e-01 4.502414762638800028e-01
2.428120472715190048e-01 4.945406018617930499e-01
2.437736791416740267e-01 5.094951483112559742e-01
2.447353110118290209e-01 3.512983224496721846e-01
2.456969428819840706e-01 2.845337774446292656e-01
2.466585747521390926e-01 3.413548857981822948e-01
2.476202066222941145e-01 2.150964475568635237e-01
2.485818384924491642e-01 3.453539925129973653e-01
2.495434703626041584e-01 1.831957340870076223e-01
2.505051022327591803e-01 2.003269448443916190e-01
2.514667341029142023e-01 4.412573374719066521e-01
2.524283659730692242e-01 4.313798063561726792e-01
2.533899978432243016e-01 4.228480945219921239e-01
2.543516297133793236e-01 5.228386239667344171e-01
2.553132615835342900e-01 5.836050401570744839e-01
2.562748934536893120e-01 6.970936271822409935e-01
2.572365253238443894e-01 1.087430415846903031e+00
2.581981571939994113e-01 6.112097246755432423e-01
2.591597890641544333e-01 4.960944593962750560e-01
2.601214209343094552e-01 5.705159705986311280e-01
2.610830528044644772e-01 4.786820719482172137e-01
2.620446846746194991e-01 3.934773135452012127e-01
2.630063165447745210e-01 4.309767743056376332e-01
2.639679484149295430e-01 3.855029072402835766e-01
2.649295802850845649e-01 5.655050951379507751e-01
2.658912121552395869e-01 6.362530155258454556e-01
2.668528440253946088e-01 4.024111266411836141e-01
2.678144758955496307e-01 4.866145408287287921e-01
2.687761077657046527e-01 8.584272016344876022e-01
2.697377396358597301e-01 6.461505766073081247e-01
2.706993715060147521e-01 7.861626471565408281e-01
2.716610033761697185e-01 8.607551549082685938e-01
2.726226352463247404e-01 9.644313346455355429e-01
2.735842671164798179e-01 1.048446886603976225e+00
2.745458989866348398e-01 1.158951295824849126e+00
2.755075308567898618e-01 1.016698874236350747e+00
2.764691627269448837e-01 9.404289903222107228e-01
2.774307945970999056e-01 9.971078133719544212e-01
2.783924264672549276e-01 1.005083554009267743e+00
2.793540583374099495e-01 9.772607276140270471e-01
2.803156902075649715e-01 8.840601542500365895e-01
2.812773220777199934e-01 1.026652207606922218e+00
2.822389539478750153e-01 1.113993061549404473e+00
2.832005858180300373e-01 9.268740073357655262e-01
2.841622176881850592e-01 1.023905005864286011e+00
2.851238495583400812e-01 1.089445098320737770e+00
2.860854814284951586e-01 8.562878850531916441e-01
2.870471132986501805e-01 9.375499421337423200e-01
2.880087451688051470e-01 9.995455305487546127e-01
2.889703770389601689e-01 9.687420965583761756e-01
2.899320089091152464e-01 1.045548172602462245e+00
2.908936407792702683e-01 8.645784613562135235e-01
2.918552726494252902e-01 9.810726244552334663e-01
2.928169045195803122e-01 8.489271646633014257e-01
2.937785363897353341e-01 9.111432688739746766e-01
2.947401682598903561e-01 8.420230381053563917e-01
2.957018001300453780e-01 7.193512949457456784e-01
2.966634320002003999e-01 8.977361131466921051e-01
2.976250638703554219e-01 8.223817125836525577e-01
2.985866957405104993e-01 1.074284405660002051e+00
2.995483276106654658e-01 1.065202741626993799e+00
3.005099594808204877e-01 7.244251944117330311e-01
3.014715913509755651e-01 8.854182880589256399e-01
3.024332232211305871e-01 8.045596985589114070e-01
3.033948550912856090e-01 7.915968819321435035e-01
3.043564869614405755e-01 8.198469571964075442e-01
3.053181188315956529e-01 7.758501953156908826e-01
3.062797507017506748e-01 7.187870321100326976e-01
3.072413825719056968e-01 6.803391342664788510e-01
3.082030144420607187e-01 5.036734605319068692e-01
3.091646463122157407e-01 5.240317920385813011e-01
3.101262781823707626e-01 7.062989464185918109e-01
3.110879100525257845e-01 5.786733053612849176e-01
3.120495419226808065e-01 7.440337725807992797e-01
3.130111737928358284e-01 6.238531176708796977e-01
3.139728056629909059e-01 4.664813831818577228e-01
3.149344375331459278e-01 3.774683532987559431e-01
3.158960694033008942e-01 4.154548362120671356e-01
3.168577012734559162e-01 3.766909041757990906e-01
3.178193331436109936e-01 4.745448767543116730e-01
3.187809650137660156e-01 5.645496767329483134e-01
3.197425968839210375e-01 4.128800044482865417e-01
3.207042287540760039e-01 4.655898827659648020e-01
3.216658606242310814e-01 5.607353190965476131e-01
3.226274924943861033e-01 5.275107586699405715e-01
3.235891243645411253e-01 4.124771743834365623e-01
3.245507562346961472e-01 3.875400928264802758e-01
3.255123881048511691e-01 3.667104961604614743e-01
3.264740199750061911e-01 3.321256887049841566e-01
3.274356518451612130e-01 3.868755731484867511e-01
3.283972837153162350e-01 2.887995961016649460e-01
3.293589155854712569e-01 1.301849794472929034e-01
3.303205474556263344e-01 4.830626640416966211e-01
3.312821793257813563e-01 3.655827297168094958e-01
3.322438111959363227e-01 3.239754073796490275e-01
3.332054430660913447e-01 2.921295372830243764e-01
3.341670749362464221e-01 2.728312487660744523e-01
3.351287068064014441e-01 9.603842080290903027e-02
3.360903386765564660e-01 2.351076791131383459e-01
3.370519705467114324e-01 3.506576085620736194e-01
3.380136024168665099e-01 4.025720220556436857e-01
3.389752342870215318e-01 2.086987320002755553e-01
3.399368661571765537e-01 2.198597560428154907e-01
3.408984980273315757e-01 3.827768480414057706e-01
3.418601298974865976e-01 3.202206068316719723e-01
3.428217617676416196e-01 2.173371066846279120e-01
3.437833936377966415e-01 3.055547786145069722e-01
3.447450255079516634e-01 1.805766500410790343e-01
3.457066573781066854e-01 2.465420925038515065e-01
3.466682892482617628e-01 2.728183295855011181e-01
3.476299211184167848e-01 2.129761056727588198e-01
3.485915529885717512e-01 3.975770721689890763e-01
3.495531848587267731e-01 4.397520300360078238e-01
3.505148167288818506e-01 1.839002791142725357e-01
3.514764485990368725e-01 6.003823960757515010e-02
3.524380804691918945e-01 1.802446125694494583e-01
3.533997123393468609e-01 2.433470353316202761e-01
3.543613442095019384e-01 2.146992139040477809e-01
3.553229760796569603e-01 9.875448788435647884e-02
3.562846079498119822e-01 0.000000000000000000e+00
3.572462398199670042e-01 4.430525452066369496e-01
3.582078716901220261e-01 4.964828250488402261e-01
3.591695035602770480e-01 1.687166035232188221e-01
3.601311354304320700e-01 1.636301956808274838e-01
3.610927673005870919e-01 8.142911140802411296e-02
3.620543991707421139e-01 2.791905930400879754e-01
3.630160310408971913e-01 1.957877198810393793e-01
3.639776629110522133e-01 1.903780631834983694e-01
3.649392947812071797e-01 2.111970900047452915e-01
3.659009266513622016e-01 1.697230922249097773e-01
3.668625585215172791e-01 1.733054750903839647e-01
3.678241903916723010e-01 1.953443373618135581e-01
3.687858222618273230e-01 2.777356608039163177e-01
3.697474541319822894e-01 3.489279045764028808e-01
3.707090860021373668e-01 4.264560133844881307e-01
3.716707178722923888e-01 4.842788648386964212e-01
3.726323497424474107e-01 5.178674097463051851e-01
3.735939816126024327e-01 4.766573008974823722e-01
3.745556134827574546e-01 4.084121172308030623e-01
3.755172453529124765e-01 3.594495823566781212e-01
3.764788772230674985e-01 4.542353239160448197e-01
3.774405090932225204e-01 4.721873759483230515e-01
3.784021409633775423e-01 4.067292998338096766e-01
3.793637728335326198e-01 3.676957612316762436e-01
3.803254047036876417e-01 3.117274691175069279e-01
3.812870365738426082e-01 4.556388738701642183e-01
3.822486684439976301e-01 6.183954535597422364e-01
3.832103003141527076e-01 6.045231518388227698e-01
3.841719321843077295e-01 5.367097045716207049e-01
3.851335640544627514e-01 3.029982238503414749e-01
3.860951959246177734e-01 4.054440851412444147e-01
3.870568277947727953e-01 2.556401021752066072e-01
3.880184596649278173e-01 2.860852776598150626e-01
3.889800915350828392e-01 4.547736844165406467e-01
3.899417234052378611e-01 5.619563520187682570e-01
3.909033552753928831e-01 4.013337546646305043e-01
3.918649871455479050e-01 3.634766767997739123e-01
3.928266190157029270e-01 3.557690697133715219e-01
3.937882508858579489e-01 3.272511140905614013e-01
3.947498827560129708e-01 3.188919578181099723e-01
3.957115146261680483e-01 4.169555762271102139e-01
3.966731464963230702e-01 3.721718050963112034e-01
3.976347783664780366e-01 4.073152488916598202e-01
3.985964102366330586e-01 4.450764863584808495e-01
3.995580421067881360e-01 4.548605138671213410e-01
4.005196739769430470e-01 5.054896818198919561e-01
4.014813058470981244e-01 3.513559884937471622e-01
4.024429377172531463e-01 3.210962219378288296e-01
4.034045695874082238e-01 4.732399936161826304e-01
