# q (1/Angstrom), Intensity (arb)
2.067508526570814575e-02 6.000960691187531211e+02
2.163671713586316769e-02 6.217812820928285191e+02
2.259834900601819310e-02 6.475150837529238288e+02
2.355998087617321851e-02 6.567304731286850483e+02
2.452161274632824739e-02 6.588042682084086437e+02
2.548324461648326933e-02 6.585451913235646089e+02
2.644487648663829821e-02 6.585674621387944399e+02
2.740650835679332709e-02 6.577518264075299612e+02
2.836814022694834903e-02 6.549451214254745537e+02
2.932977209710337443e-02 6.499674224561251776e+02
3.029140396725839637e-02 6.457376140662846637e+02
3.125303583741342178e-02 6.439657766301995707e+02
3.221466770756845066e-02 6.383688929680472484e+02
3.317629957772347260e-02 6.344444869075435918e+02
3.413793144787850148e-02 6.315847205786255927e+02
3.509956331803352342e-02 6.286410739336465667e+02
3.606119518818855230e-02 6.236759851261253971e+02
3.702282705834358117e-02 6.147060622865452615e+02
3.798445892849860311e-02 6.092010877548946155e+02
3.894609079865363199e-02 6.041147675667501744e+02
3.990772266880865393e-02 5.999824455604989453e+02
4.086935453896367587e-02 5.902187686657132417e+02
4.183098640911870475e-02 5.808608656416107578e+02
4.279261827927372669e-02 5.749062301104875132e+02
4.375425014942875557e-02 5.663663447000559472e+02
4.471588201958377751e-02 5.578117681379482065e+02
4.567751388973880639e-02 5.482856286866029905e+02
4.663914575989382832e-02 5.397047635658674380e+02
4.760077763004885720e-02 5.325512610289844133e+02
4.856240950020387914e-02 5.264488960876225292e+02
4.952404137035890108e-02 5.185484423367188356e+02
5.048567324051392302e-02 5.081363268136044553e+02
5.144730511066895190e-02 4.990776564507798412e+02
5.240893698082397384e-02 4.896370339373721094e+02
5.337056885097899578e-02 4.813021624570961308e+02
5.433220072113403160e-02 4.711217823406095704e+02
5.529383259128905354e-02 4.584413914446928970e+02
5.625546446144407547e-02 4.487554114253622970e+02
5.721709633159910435e-02 4.379009879316395200e+02
5.817872820175412629e-02 4.275398462035905141e+02
5.914036007190914823e-02 4.173356496356959155e+02
6.010199194206417017e-02 4.062761699749761988e+02
6.106362381221920599e-02 3.962693105752999827e+02
6.202525568237422793e-02 3.838245917835698720e+02
6.298688755252924987e-02 3.735660375164597440e+02
6.394851942268428568e-02 3.653851819058216961e+02
6.491015129283930762e-02 3.555286016053151457e+02
6.587178316299432956e-02 3.459659568063000847e+02
6.683341503314935150e-02 3.361140635471367091e+02
6.779504690330438732e-02 3.252158966235172102e+02
6.875667877345940926e-02 3.152606639051278989e+02
6.971831064361443120e-02 3.068823147361192696e+02
7.067994251376945314e-02 2.980078015458760774e+02
7.164157438392447508e-02 2.871063883288096008e+02
7.260320625407949702e-02 2.796882431824270725e+02
7.356483812423453283e-02 2.691020028845379670e+02
7.452646999438955477e-02 2.597147657841670139e+02
7.548810186454457671e-02 2.511022772530029954e+02
7.644973373469959865e-02 2.423092375352624117e+02
7.741136560485463447e-02 2.352512914812008660e+02
7.837299747500965641e-02 2.260591450629868575e+02
7.933462934516467835e-02 2.169917832065929986e+02
8.029626121531971417e-02 2.079649193617474339e+02
8.125789308547473611e-02 2.000955926697413076e+02
8.221952495562975805e-02 1.929962857938311345e+02
8.318115682578479386e-02 1.858420764443160351e+02
8.414278869593981580e-02 1.781864603094405481e+02
8.510442056609483774e-02 1.710359953829756705e+02
8.606605243624985968e-02 1.642611508413112631e+02
8.702768430640489550e-02 1.564194658820632071e+02
8.798931617655991744e-02 1.499250739167819688e+02
8.895094804671493938e-02 1.436652170668175188e+02
8.991257991686996132e-02 1.368047207953193265e+02
9.087421178702498326e-02 1.306262136883207461e+02
9.183584365718000520e-02 1.237503566950845055e+02
9.279747552733502713e-02 1.192729704029730726e+02
9.375910739749006295e-02 1.136861818078910318e+02
9.472073926764508489e-02 1.073536967415770249e+02
9.568237113780010683e-02 1.016690225819425848e+02
9.664400300795514265e-02 9.647154955190299574e+01
9.760563487811016459e-02 9.144512530910627390e+01
9.856726674826518653e-02 8.721389990564193795e+01
9.952889861842022234e-02 8.198520322971486962e+01
1.004905304885752443e-01 7.736176985707655263e+01
1.014521623587302801e-01 7.294993730151921341e+01
1.024137942288853020e-01 6.890279388161526697e+01
1.033754260990403240e-01 6.502273549783754447e+01
1.043370579691953459e-01 6.122529375876808899e+01
1.052986898393503817e-01 5.767365527688768623e+01
1.062603217095053898e-01 5.402810720105739506e+01
1.072219535796604256e-01 5.051362954187130327e+01
1.081835854498154614e-01 4.738783400940457824e+01
1.091452173199704695e-01 4.370635375066314765e+01
1.101068491901255053e-01 4.075615011851864722e+01
1.110684810602805411e-01 3.814110784872045912e+01
1.120301129304355492e-01 3.574081063187458085e+01
1.129917448005905850e-01 3.328945046224502846e+01
1.139533766707456208e-01 3.086210677871700270e+01
1.149150085409006289e-01 2.780170390445024964e+01
1.158766404110556647e-01 2.530628080863304064e+01
1.168382722812106728e-01 2.369876596132467483e+01
1.177999041513657086e-01 2.189395469747947232e+01
1.187615360215207305e-01 1.963729620028925282e+01
1.197231678916757525e-01 1.778414974512690705e+01
1.206847997618307744e-01 1.617163364020677108e+01
1.216464316319858102e-01 1.486310539264395558e+01
1.226080635021408183e-01 1.367052631408026286e+01
1.235696953722958541e-01 1.256732214368122058e+01
1.245313272424508899e-01 1.113886694472227745e+01
1.254929591126059119e-01 9.955496975327243092e+00
1.264545909827609338e-01 8.693284319372917679e+00
1.274162228529159557e-01 7.901720041717858578e+00
1.283778547230709777e-01 7.230435741167571706e+00
1.293394865932259996e-01 6.722657278345153031e+00
1.303011184633810493e-01 5.510620583389481908e+00
1.312627503335360435e-01 5.039963967144110768e+00
1.322243822036910932e-01 4.323787976295438540e+00
1.331860140738460874e-01 3.763897292482333512e+00
1.341476459440011371e-01 3.291988783457060919e+00
1.351092778141561590e-01 2.931061022907659463e+00
1.360709096843111809e-01 2.716373828460337592e+00
1.370325415544662029e-01 2.161571022864322345e+00
1.379941734246212526e-01 1.781142195538429007e+00
1.389558052947762468e-01 1.677353625821549343e+00
1.399174371649312965e-01 1.633950292891377387e+00
1.408790690350863184e-01 1.335115111561499646e+00
1.418407009052413403e-01 1.281350354387431167e+00
1.428023327753963623e-01 1.393096269990856229e+00
1.437639646455513842e-01 1.400830780396734809e+00
1.447255965157064062e-01 1.241153004061875009e+00
1.456872283858614281e-01 1.120332128058038279e+00
1.466488602560164778e-01 9.615221731891416823e-01
1.476104921261714720e-01 1.613261238203040904e+00
1.485721239963265217e-01 1.447453741398494032e+00
1.495337558664815436e-01 1.426638938505373488e+00
1.504953877366365655e-01 1.628691932916932927e+00
1.514570196067915875e-01 1.908110000314277244e+00
1.524186514769466094e-01 1.983572539420428882e+00
1.533802833471016314e-01 2.324674336015373655e+00
1.543419152172566811e-01 2.514255292236025952e+00
1.553035470874116752e-01 2.444800827843220503e+00
1.562651789575667249e-01 2.262410060109541377e+00
1.572268108277217469e-01 2.754974911289249206e+00
1.581884426978767688e-01 2.786541623633659981e+00
1.591500745680317908e-01 2.851685745159848295e+00
1.601117064381868405e-01 3.086027735713553710e+00
1.610733383083418346e-01 3.530770765841808156e+00
1.620349701784968843e-01 3.493832428031094395e+00
1.629966020486519063e-01 3.638603796427940296e+00
1.639582339188069282e-01 3.998536754039157870e+00
1.649198657889619501e-01 4.105503523948783595e+00
1.658814976591169721e-01 4.235104449470171062e+00
1.668431295292719940e-01 4.345225036228523408e+00
1.678047613994270160e-01 4.488749240395563334e+00
1.687663932695820379e-01 4.986533841202568595e+00
1.697280251397370598e-01 4.978329402631256784e+00
1.706896570098921095e-01 5.231502424477483260e+00
1.716512888800471037e-01 5.574173731560588152e+00
1.726129207502021534e-01 5.436142149711979954e+00
1.735745526203571754e-01 5.036418476266572242e+00
1.745361844905121973e-01 5.020664232246446090e+00
1.754978163606672192e-01 5.340681223667623101e+00
1.764594482308222689e-01 5.666087371749362944e+00
1.774210801009772631e-01 5.405568579486502045e+00
1.783827119711323128e-01 5.483766852146207071e+00
1.793443438412873348e-01 5.832822584394211418e+00
1.803059757114423567e-01 5.859442151298349444e+00
1.812676075815973786e-01 5.940447944091346244e+00
1.822292394517524006e-01 6.110071566799202714e+00
1.831908713219074225e-01 5.954537653626747584e+00
1.841525031920624444e-01 5.696977462986886565e+00
1.851141350622174664e-01 5.807090304268310632e+00
1.860757669323724883e-01 5.565186299294573757e+00
1.870373988025275380e-01 5.432893574114942226e+00
1.879990306726825322e-01 5.411489668964154731e+00
1.889606625428375819e-01 5.573467325104822123e+00
1.899222944129926038e-01 5.426707943669374146e+00
1.908839262831476258e-01 5.320025705154797890e+00
1.918455581533026477e-01 4.994365949395653814e+00
1.928071900234576974e-01 5.187194230232432091e+00
1.937688218936126916e-01 5.106117178672469947e+00
1.947304537637677413e-01 4.667750675878952649e+00
1.956920856339227632e-01 4.608914333874974290e+00
1.966537175040777852e-01 4.531936688556911008e+00
1.976153493742328071e-01 4.545930791404959592e+00
1.985769812443878291e-01 4.699441139924690702e+00
1.995386131145428510e-01 4.472649866480967518e+00
2.005002449846978729e-01 4.434534201176369095e+00
2.014618768548528949e-01 4.206338936577669330e+00
2.024235087250079168e-01 3.912723450713222917e+00
2.033851405951629665e-01 3.792702155608612458e+00
2.043467724653179884e-01 3.788777750027165325e+00
2.053084043354730381e-01 3.812430923196291843e+00
2.062700362056280046e-01 3.477032172787904329e+00
2.072316680757830543e-01 3.180431544007007005e+00
2.081932999459380762e-01 3.262170172034597471e+00
2.091549318160931259e-01 3.242090037886971032e+00
2.101165636862481478e-01 3.052570701588145141e+00
2.110781955564031698e-01 2.889374984474294195e+00
2.120398274265581640e-01 2.539715358966422087e+00
2.130014592967132137e-01 2.452960435493956481e+00
2.139630911668682356e-01 2.399958628460741039e+00
2.149247230370232575e-01 2.216993439260317444e+00
2.158863549071783072e-01 2.149433069423420051e+00
2.168479867773333014e-01 2.023092595615732847e+00
2.178096186474883234e-01 2.096977995862069122e+00
2.187712505176433453e-01 2.078363438416921838e+00
2.197328823877983950e-01 1.761390195873083542e+00
2.206945142579534169e-01 1.635729385848222250e+00
2.216561461281084666e-01 1.640144898785578675e+00
2.226177779982634330e-01 1.643097621231561334e+00
2.235794098684184827e-01 1.259545063355393069e+00
2.245410417385735047e-01 1.244375103350133571e+00
2.255026736087285544e-01 1.334854754112836162e+00
2.264643054788835763e-01 1.313415572738232839e+00
2.274259373490385983e-01 9.872667540816308929e-01
2.283875692191935924e-01 8.438439151892715984e-01
2.293492010893486421e-01 1.568252801491681225e+00
2.303108329595036641e-01 1.958785747499515395e+00
2.312724648296586860e-01 2.782549865782364407e+00
2.322340966998137357e-01 1.341748628146451239e+00
2.331957285699687299e-01 6.517998851962651941e-01
2.341573604401237518e-01 3.066843580109264167e-01
2.351189923102787738e-01 2.133972751106547605e-01
2.360806241804338235e-01 2.219409755501793313e-01
2.370422560505888454e-01 2.669289820865543561e-01
2.380038879207438951e-01 2.545377296653619226e-01
2.389655197908988615e-01 3.337825687418316534e-01
2.399271516610539112e-01 3.731772956679044739e-01
2.408887835312089332e-01 4.067205858691025355e-01
2.418504154013639829e-01 4.928099492013160443e-01
2.428120472715190048e-01 5.054390356310705101e-01
2.437736791416740267e-01 4.708300327919623385e-01
2.447353110118290209e-01 3.391643634451853018e-01
2.456969428819840706e-01 2.932486265721649943e-01
2.466585747521390926e-01 3.372025235290436740e-01
2.476202066222941145e-01 2.605264498233950121e-01
2.485818384924491642e-01 3.542957083596505186e-01
2.495434703626041584e-01 3.722231103849367173e-01
2.505051022327591803e-01 4.249501099639374502e-01
2.514667341029142023e-01 4.188496160946613145e-01
2.524283659730692242e-01 2.760197668042145835e-01
2.533899978432243016e-01 3.768306924256279444e-01
2.543516297133793236e-01 1.565401765777956200e-01
2.553132615835342900e-01 2.639490099239552023e-01
2.562748934536893120e-01 4.107662595292502772e-01
2.572365253238443894e-01 3.571724797329594026e-01
2.581981571939994113e-01 3.485036025512329161e-01
2.591597890641544333e-01 5.662957553530283406e-01
2.601214209343094552e-01 6.258393608568368904e-01
2.610830528044644772e-01 4.730060846236057159e-01
2.620446846746194991e-01 4.613434945429268907e-01
2.630063165447745210e-01 4.150349647189202074e-01
2.639679484149295430e-01 2.805955400966269053e-01
2.649295802850845649e-01 6.764958473353921420e-01
2.658912121552395869e-01 8.100839357375839711e-01
2.668528440253946088e-01 5.060844913443709459e-01
2.678144758955496307e-01 5.692837752400805584e-01
2.687761077657046527e-01 9.188585011724299534e-01
2.697377396358597301e-01 6.583912491068879547e-01
2.706993715060147521e-01 6.640428035696359643e-01
2.716610033761697185e-01 6.715587805625133910e-01
2.726226352463247404e-01 9.844164464265041659e-01
2.735842671164798179e-01 8.583053989871665124e-01
2.745458989866348398e-01 9.831313462006328052e-01
2.755075308567898618e-01 7.538850046735348087e-01
2.764691627269448837e-01 7.984751097859188462e-01
2.774307945970999056e-01 8.719659335536178446e-01
2.783924264672549276e-01 1.079041981547057105e+00
2.793540583374099495e-01 1.097020438496002726e+00
2.803156902075649715e-01 1.050212058135699067e+00
2.812773220777199934e-01 9.803868222472189586e-01
2.822389539478750153e-01 9.850998979693414981e-01
2.832005858180300373e-01 7.899848006020917524e-01
2.841622176881850592e-01 7.979531159383022043e-01
2.851238495583400812e-01 8.765717722901484876e-01
2.860854814284951586e-01 6.554273596835571425e-01
2.870471132986501805e-01 8.808960194015931222e-01
2.880087451688051470e-01 9.499249979459385429e-01
2.889703770389601689e-01 9.204765976161581875e-01
2.899320089091152464e-01 9.208539007459570769e-01
2.908936407792702683e-01 7.366461632045613328e-01
2.918552726494252902e-01 1.031882830481748670e+00
2.928169045195803122e-01 8.350466564157237315e-01
2.937785363897353341e-01 7.911896874119435097e-01
2.947401682598903561e-01 9.546870738330177630e-01
2.957018001300453780e-01 8.761459046047939125e-01
2.966634320002003999e-01 1.027666370652223549e+00
2.976250638703554219e-01 8.181708985149711566e-01
2.985866957405104993e-01 1.086919094370767169e+00
2.995483276106654658e-01 1.017580941778692960e+00
3.005099594808204877e-01 8.059846114717608145e-01
3.014715913509755651e-01 8.008458050862614641e-01
3.024332232211305871e-01 5.239997741525463937e-01
3.033948550912856090e-01 6.125562991239803523e-01
3.043564869614405755e-01 7.821897783357627532e-01
3.053181188315956529e-01 7.182134002555855545e-01
3.062797507017506748e-01 8.631273806621528877e-01
3.072413825719056968e-01 8.131124011241901428e-01
3.082030144420607187e-01 5.876323768966500438e-01
3.091646463122157407e-01 7.527301004789990202e-01
3.101262781823707626e-01 8.090666923936460364e-01
3.110879100525257845e-01 6.752233144699886225e-01
3.120495419226808065e-01 6.025247132165567621e-01
3.130111737928358284e-01 6.962703092147854989e-01
3.139728056629909059e-01 6.164084752962182279e-01
3.149344375331459278e-01 4.648643617185399535e-01
3.158960694033008942e-01 5.217205592075977449e-01
3.168577012734559162e-01 4.486391881132298920e-01
3.178193331436109936e-01 4.074313501184825270e-01
3.187809650137660156e-01 4.147287976800519971e-01
3.197425968839210375e-01 4.080434947785605004e-01
3.207042287540760039e-01 4.125455923158050098e-01
3.216658606242310814e-01 4.910240541672479253e-01
3.226274924943861033e-01 3.554599612383242402e-01
3.235891243645411253e-01 2.563319580693601552e-01
3.245507562346961472e-01 2.280384266493200585e-01
3.255123881048511691e-01 3.109004057795274889e-01
3.264740199750061911e-01 3.306917319384510279e-01
3.274356518451612130e-01 5.782711018125041846e-01
3.283972837153162350e-01 4.721347584472042058e-01
3.293589155854712569e-01 4.457811610563524596e-01
3.303205474556263344e-01 5.585738082484859035e-01
3.312821793257813563e-01 4.060745301203780855e-01
3.322438111959363227e-01 3.937283580498842639e-01
3.332054430660913447e-01 3.773646796049838770e-01
3.341670749362464221e-01 4.728013085232838364e-01
3.351287068064014441e-01 2.756640388210485071e-01
3.360903386765564660e-01 8.531431192524507878e-02
3.370519705467114324e-01 1.254954061696018641e-01
3.380136024168665099e-01 3.773444830669845373e-01
3.389752342870215318e-01 3.880986916050090940e-01
3.399368661571765537e-01 3.757511144323082419e-01
3.408984980273315757e-01 4.927650753154395602e-01
3.418601298974865976e-01 1.981567268499730972e-01
3.428217617676416196e-01 1.513792238789584133e-01
3.437833936377966415e-01 2.535734664143980410e-01
3.447450255079516634e-01 3.260503817673665594e-01
3.457066573781066854e-01 2.253882340513193583e-01
3.466682892482617628e-01 3.003000463552076837e-01
3.476299211184167848e-01 2.546839357387113978e-01
3.485915529885717512e-01 3.369208501333247341e-01
3.495531848587267731e-01 3.614248666878623339e-01
3.505148167288818506e-01 3.032224068980333698e-01
3.514764485990368725e-01 2.464121724087995347e-01
3.524380804691918945e-01 2.376673555117605474e-01
3.533997123393468609e-01 2.772610146343801318e-01
3.543613442095019384e-01 2.356945823121883166e-01
3.553229760796569603e-01 7.731168995554327239e-02
3.562846079498119822e-01 1.296772147811289244e-01
3.572462398199670042e-01 4.095585926868494653e-01
3.582078716901220261e-01 4.404477453330351011e-01
3.591695035602770480e-01 2.718721691532728357e-01
3.601311354304320700e-01 9.687894581269773653e-02
3.610927673005870919e-01 2.163753646128512287e-01
3.620543991707421139e-01 2.151403135514797782e-01
3.630160310408971913e-01 1.614738892402840520e-01
3.639776629110522133e-01 2.711544024905698791e-01
3.649392947812071797e-01 2.738743516190780269e-01
3.659009266513622016e-01 2.858993068118458325e-01
3.668625585215172791e-01 2.529907263524613370e-01
3.678241903916723010e-01 2.547067913257308192e-01
3.687858222618273230e-01 2.838611813102147607e-01
3.697474541319822894e-01 3.416008054869124066e-01
3.707090860021373668e-01 4.790681629245163720e-01
3.716707178722923888e-01 6.392894388934209360e-01
3.726323497424474107e-01 5.961967620143369118e-01
3.735939816126024327e-01 5.169250427825105021e-01
3.745556134827574546e-01 4.361134182878849685e-01
3.755172453529124765e-01 3.306626209871659228e-01
3.764788772230674985e-01 4.907359309668350988e-01
3.774405090932225204e-01 3.983330458088580883e-01
3.784021409633775423e-01 2.409141143298221266e-01
3.793637728335326198e-01 3.668381774328643985e-01
3.803254047036876417e-01 4.606236989733503151e-01
3.812870365738426082e-01 4.069322514776132493e-01
3.822486684439976301e-01 5.874028065278125155e-01
3.832103003141527076e-01 6.190984539361963357e-01
3.841719321843077295e-01 4.242984320971032730e-01
3.851335640544627514e-01 3.710113509126635734e-01
3.860951959246177734e-01 3.480521869520707412e-01
3.870568277947727953e-01 1.988752858504660992e-01
3.880184596649278173e-01 2.730566011438284590e-01
3.889800915350828392e-01 3.038414495661179160e-01
3.899417234052378611e-01 4.264057112414683104e-01
3.909033552753928831e-01 3.806188130162091454e-01
3.918649871455479050e-01 4.213963055493792353e-01
3.928266190157029270e-01 4.835010537090695948e-01
3.937882508858579489e-01 4.140167904280325217e-01
3.947498827560129708e-01 4.773670560903795490e-01
3.957115146261680483e-01 4.428642206800219583e-01
3.966731464963230702e-01 2.954765938689476457e-01
3.976347783664780366e-01 4.398054992963693621e-01
3.985964102366330586e-01 4.067097568852346967e-01
3.995580421067881360e-01 3.499642306982906348e-01
4.005196739769430470e-01 4.478915963754381835e-01
4.014813058470981244e-01 4.070052030056494630e-01
4.024429377172531463e-01 2.954372209192897003e-01
4.034045695874082238e-01 3.484049452699196081e-01
