# q (1/Angstrom), Intensity (arb)
2.067508526570814575e-02 5.996112115813286891e+02
2.163671713586316769e-02 6.252270647831588803e+02
2.259834900601819310e-02 6.506276252880456923e+02
2.355998087617321851e-02 6.602944638299367170e+02
2.452161274632824739e-02 6.624333273680875891e+02
2.548324461648326933e-02 6.597272625619640394e+02
2.644487648663829821e-02 6.595775332259649986e+02
2.740650835679332709e-02 6.611863581882610106e+02
2.836814022694834903e-02 6.595875160759183018e+02
2.932977209710337443e-02 6.551569979221761741e+02
3.029140396725839637e-02 6.501726801844523607e+02
3.125303583741342178e-02 6.420866337175121998e+02
3.221466770756845066e-02 6.365264835282488320e+02
3.317629957772347260e-02 6.337592458577421439e+02
3.413793144787850148e-02 6.311157432081355410e+02
3.509956331803352342e-02 6.249086541056294664e+02
3.606119518818855230e-02 6.213049198671818658e+02
3.702282705834358117e-02 6.190071577853666440e+02
3.798445892849860311e-02 6.115142932706335159e+02
3.894609079865363199e-02 6.058751516251193152e+02
3.990772266880865393e-02 5.979698624755258152e+02
4.086935453896367587e-02 5.903252369402748627e+02
4.183098640911870475e-02 5.841031276370016485e+02
4.279261827927372669e-02 5.784535441658032369e+02
4.375425014942875557e-02 5.688918891395197761e+02
4.471588201958377751e-02 5.591810559693742562e+02
4.567751388973880639e-02 5.517044210735313072e+02
4.663914575989382832e-02 5.422225112397497924e+02
4.760077763004885720e-02 5.353829481622739195e+02
4.856240950020387914e-02 5.272637893860718350e+02
4.952404137035890108e-02 5.189220975447640285e+02
5.048567324051392302e-02 5.108711878965194160e+02
5.144730511066895190e-02 5.005577632220222881e+02
5.240893698082397384e-02 4.919921923656536933e+02
5.337056885097899578e-02 4.812499966247578413e+02
5.433220072113403160e-02 4.712913627825121239e+02
5.529383259128905354e-02 4.594372239411325154e+02
5.625546446144407547e-02 4.477773522003266748e+02
5.721709633159910435e-02 4.371691017913130395e+02
5.817872820175412629e-02 4.277163566243531250e+02
5.914036007190914823e-02 4.172624629602181585e+02
6.010199194206417017e-02 4.067123940749626740e+02
6.106362381221920599e-02 3.952971454969917318e+02
6.202525568237422793e-02 3.847467815143178314e+02
6.298688755252924987e-02 3.753044070251596054e+02
6.394851942268428568e-02 3.658723359363007717e+02
6.491015129283930762e-02 3.562092501349069948e+02
6.587178316299432956e-02 3.448115315138834944e+02
6.683341503314935150e-02 3.334410371730285760e+02
6.779504690330438732e-02 3.251204938117212464e+02
6.875667877345940926e-02 3.151993820025181208e+02
6.971831064361443120e-02 3.054355656541919757e+02
7.067994251376945314e-02 2.956135169325733614e+02
7.164157438392447508e-02 2.860046388152696863e+02
7.260320625407949702e-02 2.775107915468641409e+02
7.356483812423453283e-02 2.689539380538284377e+02
7.452646999438955477e-02 2.597216094867225706e+02
7.548810186454457671e-02 2.502880851016026043e+02
7.644973373469959865e-02 2.417988846941041459e+02
7.741136560485463447e-02 2.342744095168926037e+02
7.837299747500965641e-02 2.258303512568300278e+02
7.933462934516467835e-02 2.164346206754425452e+02
8.029626121531971417e-02 2.088725658208984726e+02
8.125789308547473611e-02 2.014740080673597902e+02
8.221952495562975805e-02 1.939041833250535376e+02
8.318115682578479386e-02 1.857175196347542681e+02
8.414278869593981580e-02 1.775961511129407597e+02
8.510442056609483774e-02 1.700323064901258192e+02
8.606605243624985968e-02 1.625788411723305842e+02
8.702768430640489550e-02 1.555020489890001727e+02
8.798931617655991744e-02 1.498529513615703195e+02
8.895094804671493938e-02 1.439989072272610713e+02
8.991257991686996132e-02 1.379545392422378427e+02
9.087421178702498326e-02 1.305078711248335708e+02
9.183584365718000520e-02 1.241291972838115498e+02
9.279747552733502713e-02 1.187338529201166892e+02
9.375910739749006295e-02 1.134501303878118676e+02
9.472073926764508489e-02 1.074860000235675983e+02
9.568237113780010683e-02 1.022522876337912123e+02
9.664400300795514265e-02 9.588569307913985540e+01
9.760563487811016459e-02 9.070838421355902881e+01
9.856726674826518653e-02 8.641806933547195513e+01
9.952889861842022234e-02 8.126342197900669362e+01
1.004905304885752443e-01 7.688306169833661841e+01
1.014521623587302801e-01 7.328621358533784758e+01
1.024137942288853020e-01 6.950329531491779278e+01
1.033754260990403240e-01 6.561716403595455915e+01
1.043370579691953459e-01 6.146033907114431827e+01
1.052986898393503817e-01 5.766045274040569524e+01
1.062603217095053898e-01 5.395193189768031772e+01
1.072219535796604256e-01 5.027561329479969743e+01
1.081835854498154614e-01 4.664218958611470356e+01
1.091452173199704695e-01 4.338724250962411588e+01
1.101068491901255053e-01 4.127038496917388954e+01
1.110684810602805411e-01 3.853755601156836974e+01
1.120301129304355492e-01 3.562658006012317458e+01
1.129917448005905850e-01 3.294025351211472241e+01
1.139533766707456208e-01 3.026027484451929084e+01
1.149150085409006289e-01 2.808713394232466953e+01
1.158766404110556647e-01 2.571803917893893754e+01
1.168382722812106728e-01 2.406703721964836262e+01
1.177999041513657086e-01 2.265073432654659058e+01
1.187615360215207305e-01 2.050090682006172926e+01
1.197231678916757525e-01 1.849628869783681040e+01
1.206847997618307744e-01 1.675105845291342987e+01
1.216464316319858102e-01 1.541797806747696953e+01
1.226080635021408183e-01 1.384284787524027394e+01
1.235696953722958541e-01 1.281383572001441351e+01
1.245313272424508899e-01 1.154847726251591311e+01
1.254929591126059119e-01 1.020278861220474198e+01
1.264545909827609338e-01 8.669043091761402309e+00
1.274162228529159557e-01 8.213389409933466112e+00
1.283778547230709777e-01 7.563092848047556771e+00
1.293394865932259996e-01 6.395835946966116126e+00
1.303011184633810493e-01 5.393498789902821500e+00
1.312627503335360435e-01 4.833343712506202650e+00
1.322243822036910932e-01 4.232892033424885625e+00
1.331860140738460874e-01 3.800631728735044845e+00
1.341476459440011371e-01 3.433841409552385926e+00
1.351092778141561590e-01 2.904511019059430765e+00
1.360709096843111809e-01 2.759676517670936136e+00
1.370325415544662029e-01 2.159629702695692544e+00
1.379941734246212526e-01 1.739611637574899561e+00
1.389558052947762468e-01 2.163452160585066508e+00
1.399174371649312965e-01 1.967719198305999839e+00
1.408790690350863184e-01 1.522446848736716873e+00
1.418407009052413403e-01 1.505403279435135744e+00
1.428023327753963623e-01 1.368383956584239058e+00
1.437639646455513842e-01 1.306466210098466973e+00
1.447255965157064062e-01 1.066517611462291626e+00
1.456872283858614281e-01 1.036640357637214294e+00
1.466488602560164778e-01 1.395522921714732689e+00
1.476104921261714720e-01 1.620409255244968705e+00
1.485721239963265217e-01 1.665299319009022838e+00
1.495337558664815436e-01 1.664965104414314112e+00
1.504953877366365655e-01 1.615385961209575783e+00
1.514570196067915875e-01 1.903912098094728833e+00
1.524186514769466094e-01 1.926120615790789969e+00
1.533802833471016314e-01 2.062964630099045849e+00
1.543419152172566811e-01 2.680739494833904502e+00
1.553035470874116752e-01 2.403726101908265633e+00
1.562651789575667249e-01 2.329386866600312800e+00
1.572268108277217469e-01 2.745617347743333880e+00
1.581884426978767688e-01 2.965294703120459729e+00
1.591500745680317908e-01 3.204544400408810390e+00
1.601117064381868405e-01 3.361741535733557384e+00
1.610733383083418346e-01 3.655390944928161190e+00
1.620349701784968843e-01 3.656638172961908850e+00
1.629966020486519063e-01 3.715485519993180219e+00
1.639582339188069282e-01 3.957127709297754592e+00
1.649198657889619501e-01 4.283620896369360054e+00
1.658814976591169721e-01 4.386366586382543176e+00
1.668431295292719940e-01 4.574356090339744441e+00
1.678047613994270160e-01 4.846051374925700372e+00
1.687663932695820379e-01 5.163332062070075779e+00
1.697280251397370598e-01 5.230273976854888929e+00
1.706896570098921095e-01 5.460401035267565817e+00
1.716512888800471037e-01 5.275188584030090055e+00
1.726129207502021534e-01 5.501082729450743614e+00
1.735745526203571754e-01 5.147795964534989110e+00
1.745361844905121973e-01 5.306772575487180177e+00
1.754978163606672192e-01 5.383923631599831339e+00
1.764594482308222689e-01 5.586011309691521376e+00
1.774210801009772631e-01 5.559429065084387389e+00
1.783827119711323128e-01 5.745428688244089699e+00
1.793443438412873348e-01 5.709714552962005030e+00
1.803059757114423567e-01 5.825237407300768666e+00
1.812676075815973786e-01 6.105005069718544064e+00
1.822292394517524006e-01 6.202374993215158838e+00
1.831908713219074225e-01 6.228270957555967158e+00
1.841525031920624444e-01 5.839997005692424636e+00
1.851141350622174664e-01 5.427266756348604559e+00
1.860757669323724883e-01 5.323737064899965787e+00
1.870373988025275380e-01 5.606421521101911054e+00
1.879990306726825322e-01 5.533584161922593836e+00
1.889606625428375819e-01 5.739373022435856342e+00
1.899222944129926038e-01 5.575725497632372907e+00
1.908839262831476258e-01 5.522058443267486183e+00
1.918455581533026477e-01 5.177179010568906392e+00
1.928071900234576974e-01 5.396388930995975386e+00
1.937688218936126916e-01 5.124722718428802892e+00
1.947304537637677413e-01 4.822651853322938109e+00
1.956920856339227632e-01 4.956684086930785327e+00
1.966537175040777852e-01 4.735406566861573907e+00
1.976153493742328071e-01 4.430994576489247549e+00
1.985769812443878291e-01 4.484377376995993814e+00
1.995386131145428510e-01 4.650022760222007889e+00
2.005002449846978729e-01 4.522814607492144034e+00
2.014618768548528949e-01 4.142670828390713211e+00
2.024235087250079168e-01 3.828274823584692399e+00
2.033851405951629665e-01 3.613899158753266505e+00
2.043467724653179884e-01 3.868177322782358374e+00
2.053084043354730381e-01 3.863392713811766299e+00
2.062700362056280046e-01 3.577771112640085960e+00
2.072316680757830543e-01 3.330417738949023487e+00
2.081932999459380762e-01 3.300451206639937851e+00
2.091549318160931259e-01 3.185968600102853543e+00
2.101165636862481478e-01 2.907734241558763699e+00
2.110781955564031698e-01 2.809577329545337676e+00
2.120398274265581640e-01 2.491175095981432719e+00
2.130014592967132137e-01 2.315151339152794918e+00
2.139630911668682356e-01 2.164302761973111444e+00
2.149247230370232575e-01 2.198045305324949794e+00
2.158863549071783072e-01 1.943422546782581861e+00
2.168479867773333014e-01 2.057559966490892123e+00
2.178096186474883234e-01 1.888649590378630450e+00
2.187712505176433453e-01 1.883482079298044454e+00
2.197328823877983950e-01 1.502066700304418134e+00
2.206945142579534169e-01 1.698823784996452702e+00
2.216561461281084666e-01 1.894329431376213790e+00
2.226177779982634330e-01 1.721206387883206901e+00
2.235794098684184827e-01 1.455418380174211990e+00
2.245410417385735047e-01 1.444066607773006439e+00
2.255026736087285544e-01 1.344957289429494551e+00
2.264643054788835763e-01 1.244650032995025413e+00
2.274259373490385983e-01 1.062876767488432961e+00
2.283875692191935924e-01 1.160928882416708774e+00
2.293492010893486421e-01 1.086882081586523441e+00
2.303108329595036641e-01 8.962083801526432580e-01
2.312724648296586860e-01 9.108886602021719625e-01
2.322340966998137357e-01 9.983903781366052499e-01
2.331957285699687299e-01 6.225484354616988014e-01
2.341573604401237518e-01 4.202989735446358566e-01
2.351189923102787738e-01 5.785445707398011450e-01
2.360806241804338235e-01 7.352165712909446427e-01
2.370422560505888454e-01 7.415889719947976744e-01
2.380038879207438951e-01 5.798827162950352943e-01
2.389655197908988615e-01 5.670983343050934877e-01
2.399271516610539112e-01 6.780887451666046672e-01
2.408887835312089332e-01 5.590716772117012567e-01
2.418504154013639829e-01 7.724799611629684648e-01
2.428120472715190048e-01 6.825746507613317249e-01
2.437736791416740267e-01 6.042253010641758237e-01
2.447353110118290209e-01 4.090133334989154434e-01
2.456969428819840706e-01 2.508460813783806032e-01
2.466585747521390926e-01 0.000000000000000000e+00
2.476202066222941145e-01 2.496960138195092327e-02
2.485818384924491642e-01 1.540044855802840118e-01
2.495434703626041584e-01 3.583917826279758856e-01
2.505051022327591803e-01 4.531730860928639970e-01
2.514667341029142023e-01 5.258932063719576888e-01
2.524283659730692242e-01 3.577927337355824022e-01
2.533899978432243016e-01 2.538179401152085291e-01
2.543516297133793236e-01 4.018241901237900038e-01
2.553132615835342900e-01 4.975294564330958735e-01
2.562748934536893120e-01 4.985774189052563088e-01
2.572365253238443894e-01 4.093012417900574462e-01
2.581981571939994113e-01 4.099203148390806462e-01
2.591597890641544333e-01 5.523080050720672318e-01
2.601214209343094552e-01 6.222424551768241940e-01
2.610830528044644772e-01 4.762717428839984279e-01
2.620446846746194991e-01 5.845367972543584756e-01
2.630063165447745210e-01 4.776925944265997259e-01
2.639679484149295430e-01 3.337018101163096162e-01
2.649295802850845649e-01 6.948806904415825159e-01
2.658912121552395869e-01 7.501554413468731752e-01
2.668528440253946088e-01 5.384821523749003802e-01
2.678144758955496307e-01 6.307029866404043617e-01
2.687761077657046527e-01 8.854987103584299746e-01
2.697377396358597301e-01 7.608077645122328647e-01
2.706993715060147521e-01 7.520953068995872570e-01
2.716610033761697185e-01 6.398516328434382672e-01
2.726226352463247404e-01 9.519180770442794426e-01
2.735842671164798179e-01 1.109528110909597132e+00
2.745458989866348398e-01 1.072567748221885608e+00
2.755075308567898618e-01 1.105269401289973530e+00
2.764691627269448837e-01 1.079574543047769453e+00
2.774307945970999056e-01 9.917712335543775737e-01
2.783924264672549276e-01 9.575862771433953924e-01
2.793540583374099495e-01 9.094588325670684981e-01
2.803156902075649715e-01 1.021532818775931162e+00
2.812773220777199934e-01 8.097929608388376721e-01
2.822389539478750153e-01 9.941345409090942553e-01
2.832005858180300373e-01 9.804858440314987433e-01
2.841622176881850592e-01 8.886313232261890960e-01
2.851238495583400812e-01 9.374774873829458954e-01
2.860854814284951586e-01 7.418093020880363042e-01
2.870471132986501805e-01 9.212691022698678012e-01
2.880087451688051470e-01 1.038033220932511824e+00
2.889703770389601689e-01 1.072984488725190033e+00
2.899320089091152464e-01 1.179165641066390435e+00
2.908936407792702683e-01 8.151339391912877375e-01
2.918552726494252902e-01 8.902509883098694843e-01
2.928169045195803122e-01 8.566969074338146584e-01
2.937785363897353341e-01 8.590316576200365262e-01
2.947401682598903561e-01 9.367621298879846847e-01
2.957018001300453780e-01 6.897985921190858960e-01
2.966634320002003999e-01 9.374137367045598523e-01
2.976250638703554219e-01 8.468371129165142008e-01
2.985866957405104993e-01 8.819814617534156298e-01
2.995483276106654658e-01 9.807401378878601861e-01
3.005099594808204877e-01 7.279022897613920406e-01
3.014715913509755651e-01 6.723825377119219127e-01
3.024332232211305871e-01 7.631978895346094305e-01
3.033948550912856090e-01 8.931564383003944840e-01
3.043564869614405755e-01 6.715853297372795794e-01
3.053181188315956529e-01 5.645047794167190602e-01
3.062797507017506748e-01 8.015353922445243029e-01
3.072413825719056968e-01 8.024084584685020616e-01
3.082030144420607187e-01 6.085441984906232449e-01
3.091646463122157407e-01 6.960337655453230354e-01
3.101262781823707626e-01 6.804986116182512035e-01
3.110879100525257845e-01 7.280754045685817744e-01
3.120495419226808065e-01 7.003246634330864140e-01
3.130111737928358284e-01 7.270955810131489727e-01
3.139728056629909059e-01 4.725870442599493515e-01
3.149344375331459278e-01 4.612431081861245730e-01
3.158960694033008942e-01 5.311786854467968055e-01
3.168577012734559162e-01 4.124475976792325582e-01
3.178193331436109936e-01 4.539701002135281271e-01
3.187809650137660156e-01 5.960512002457605263e-01
3.197425968839210375e-01 5.114240164236711905e-01
3.207042287540760039e-01 5.692080963460419696e-01
3.216658606242310814e-01 6.480267495276272882e-01
3.226274924943861033e-01 3.582683678917639725e-01
3.235891243645411253e-01 3.794976477651452740e-01
3.245507562346961472e-01 4.011393833152467892e-01
3.255123881048511691e-01 3.648219101524574626e-01
3.264740199750061911e-01 2.841888325613979305e-01
3.274356518451612130e-01 5.513793880125561486e-01
3.283972837153162350e-01 4.405628653883155721e-01
3.293589155854712569e-01 2.917089703617037344e-01
3.303205474556263344e-01 4.592760879678117192e-01
3.312821793257813563e-01 4.997895096804398918e-01
3.322438111959363227e-01 3.446622287769187665e-01
3.332054430660913447e-01 3.127709430125094059e-01
3.341670749362464221e-01 3.821062922285634045e-01
3.351287068064014441e-01 1.739097769739998967e-01
3.360903386765564660e-01 1.326747318597654157e-01
3.370519705467114324e-01 4.817589614945987364e-01
3.380136024168665099e-01 6.689095252525376623e-01
3.389752342870215318e-01 3.917969277021100538e-01
3.399368661571765537e-01 3.179307490796681179e-01
3.408984980273315757e-01 4.494790909073991259e-01
3.418601298974865976e-01 3.524554493604163952e-01
3.428217617676416196e-01 2.852049357874051339e-01
3.437833936377966415e-01 3.982451685796313257e-01
3.447450255079516634e-01 3.824187440837540919e-01
3.457066573781066854e-01 1.739658110612936071e-01
3.466682892482617628e-01 4.313612570874738594e-01
3.476299211184167848e-01 4.292423024531366593e-01
3.485915529885717512e-01 3.846163772244963752e-01
3.495531848587267731e-01 2.923870764032265868e-01
3.505148167288818506e-01 2.791661983727031782e-01
3.514764485990368725e-01 1.753063098143172738e-01
3.524380804691918945e-01 2.923264711995656739e-01
3.533997123393468609e-01 4.390854745301666640e-01
3.543613442095019384e-01 4.837460025907382999e-01
3.553229760796569603e-01 2.498637072793314928e-01
3.562846079498119822e-01 9.155038745842603021e-02
3.572462398199670042e-01 4.345503635348357818e-01
3.582078716901220261e-01 4.185287603251381938e-01
3.591695035602770480e-01 2.995433870455173064e-01
3.601311354304320700e-01 1.258846065620602417e-01
3.610927673005870919e-01 1.174599486085270428e-01
3.620543991707421139e-01 1.513247433481659243e-01
3.630160310408971913e-01 2.413324611094580519e-01
3.639776629110522133e-01 3.448371412194504160e-01
3.649392947812071797e-01 2.554589424145916610e-01
3.659009266513622016e-01 2.592322099955985948e-01
3.668625585215172791e-01 3.341959280380919495e-01
3.678241903916723010e-01 3.033199257669672022e-01
3.687858222618273230e-01 3.236456288986673258e-01
3.697474541319822894e-01 4.582086176696691382e-01
3.707090860021373668e-01 4.889237797357317561e-01
3.716707178722923888e-01 5.073989375012537550e-01
3.726323497424474107e-01 5.573580004360572104e-01
3.735939816126024327e-01 4.112990680724877279e-01
3.745556134827574546e-01 3.317894156670995187e-01
3.755172453529124765e-01 4.341431711994587772e-01
3.764788772230674985e-01 4.340091254797329157e-01
3.774405090932225204e-01 5.092004686167150851e-01
3.784021409633775423e-01 3.758097746454964749e-01
3.793637728335326198e-01 3.489201370869920993e-01
3.803254047036876417e-01 2.732704775708114653e-01
3.812870365738426082e-01 1.905821562068616970e-01
3.822486684439976301e-01 4.566830842339655305e-01
3.832103003141527076e-01 4.697909585658308629e-01
3.841719321843077295e-01 3.500322105172379850e-01
3.851335640544627514e-01 2.512849042304630132e-01
3.860951959246177734e-01 3.096533221773292155e-01
3.870568277947727953e-01 2.708353950973396707e-01
3.880184596649278173e-01 3.292116996106102533e-01
3.889800915350828392e-01 3.997140440097446401e-01
3.899417234052378611e-01 4.191453267945028927e-01
3.909033552753928831e-01 3.972881646781871723e-01
3.918649871455479050e-01 3.640624411233304158e-01
3.928266190157029270e-01 4.666412319060633251e-01
3.937882508858579489e-01 2.930230881997104575e-01
3.947498827560129708e-01 3.782164825619958037e-01
3.957115146261680483e-01 4.427820296380353682e-01
3.966731464963230702e-01 3.653342219213477904e-01
3.976347783664780366e-01 4.862625938113893653e-01
3.985964102366330586e-01 3.741218688978591445e-01
3.995580421067881360e-01 2.766494376918444686e-01
4.005196739769430470e-01 4.167605289790756729e-01
4.014813058470981244e-01 5.137565022670464998e-01
4.024429377172531463e-01 2.738032516090456170e-01
4.034045695874082238e-01 2.820067921007272105e-01
