# q (1/Angstrom), Intensity (arb)
2.067508526570814575e-02 5.902096328232501037e+02
2.163671713586316769e-02 6.146179002214769298e+02
2.259834900601819310e-02 6.384933659179181404e+02
2.355998087617321851e-02 6.444350336607708414e+02
2.452161274632824739e-02 6.441981445571267386e+02
2.548324461648326933e-02 6.476431481540427058e+02
2.644487648663829821e-02 6.455391596850082578e+02
2.740650835679332709e-02 6.415240471790252741e+02
2.836814022694834903e-02 6.406547728557442269e+02
2.932977209710337443e-02 6.361735639161224753e+02
3.029140396725839637e-02 6.335851591343358677e+02
3.125303583741342178e-02 6.312784173010362565e+02
3.221466770756845066e-02 6.273153884155505011e+02
3.317629957772347260e-02 6.192072110491948251e+02
3.413793144787850148e-02 6.134898520737067429e+02
3.509956331803352342e-02 6.090886676300942781e+02
3.606119518818855230e-02 6.080880345255453676e+02
3.702282705834358117e-02 6.000395658673942307e+02
3.798445892849860311e-02 5.953751397254500262e+02
3.894609079865363199e-02 5.870970300410923528e+02
3.990772266880865393e-02 5.808015387077393825e+02
4.086935453896367587e-02 5.763899764148615077e+02
4.183098640911870475e-02 5.722336137960494398e+02
4.279261827927372669e-02 5.641377306906655349e+02
4.375425014942875557e-02 5.553409039328058725e+02
4.471588201958377751e-02 5.457620892250663474e+02
4.567751388973880639e-02 5.395307918240148410e+02
4.663914575989382832e-02 5.340158146626954476e+02
4.760077763004885720e-02 5.234121460130339756e+02
4.856240950020387914e-02 5.143962270764353661e+02
4.952404137035890108e-02 5.051402083266998488e+02
5.048567324051392302e-02 4.964696707283019350e+02
5.144730511066895190e-02 4.869712336541237505e+02
5.240893698082397384e-02 4.784811856168503255e+02
5.337056885097899578e-02 4.700324937344573755e+02
5.433220072113403160e-02 4.594913510356674351e+02
5.529383259128905354e-02 4.481619070419596369e+02
5.625546446144407547e-02 4.380007792342980224e+02
5.721709633159910435e-02 4.280187050814620306e+02
5.817872820175412629e-02 4.171052272712246349e+02
5.914036007190914823e-02 4.071376559546446856e+02
6.010199194206417017e-02 3.967656436119197565e+02
6.106362381221920599e-02 3.875225060211411119e+02
6.202525568237422793e-02 3.773999503885600575e+02
6.298688755252924987e-02 3.677325428558933140e+02
6.394851942268428568e-02 3.589022536113009778e+02
6.491015129283930762e-02 3.474742862096232443e+02
6.587178316299432956e-02 3.370988561222457633e+02
6.683341503314935150e-02 3.277675682407135014e+02
6.779504690330438732e-02 3.192220128207231937e+02
6.875667877345940926e-02 3.095658731426731833e+02
6.971831064361443120e-02 3.006853847400079189e+02
7.067994251376945314e-02 2.906168649438598095e+02
7.164157438392447508e-02 2.802450784398439509e+02
7.260320625407949702e-02 2.726468054894886563e+02
7.356483812423453283e-02 2.642858626344371942e+02
7.452646999438955477e-02 2.548109153580873283e+02
7.548810186454457671e-02 2.460280162245152837e+02
7.644973373469959865e-02 2.381373072010104579e+02
7.741136560485463447e-02 2.293410323112046285e+02
7.837299747500965641e-02 2.203309645931138334e+02
7.933462934516467835e-02 2.116932694528476020e+02
8.029626121531971417e-02 2.039274727769737012e+02
8.125789308547473611e-02 1.967213870631935890e+02
8.221952495562975805e-02 1.888724080778021914e+02
8.318115682578479386e-02 1.808088386078628673e+02
8.414278869593981580e-02 1.735608617942593810e+02
8.510442056609483774e-02 1.669789239237979928e+02
8.606605243624985968e-02 1.595730741719704895e+02
8.702768430640489550e-02 1.533605990384685356e+02
8.798931617655991744e-02 1.469448634830273193e+02
8.895094804671493938e-02 1.400781018621453313e+02
8.991257991686996132e-02 1.340803339355658181e+02
9.087421178702498326e-02 1.280918126716405538e+02
9.183584365718000520e-02 1.220904618301842390e+02
9.279747552733502713e-02 1.160193788139023638e+02
9.375910739749006295e-02 1.101096206315797730e+02
9.472073926764508489e-02 1.048746829963558866e+02
9.568237113780010683e-02 9.945285606283076163e+01
9.664400300795514265e-02 9.444658125601475263e+01
9.760563487811016459e-02 8.943019853332796743e+01
9.856726674826518653e-02 8.520239681819084865e+01
9.952889861842022234e-02 7.946669777976953242e+01
1.004905304885752443e-01 7.496775947294068487e+01
1.014521623587302801e-01 7.114533851159080768e+01
1.024137942288853020e-01 6.757411526726136231e+01
1.033754260990403240e-01 6.434447349061983346e+01
1.043370579691953459e-01 5.983912886055547631e+01
1.052986898393503817e-01 5.609381327898563541e+01
1.062603217095053898e-01 5.244428397469563663e+01
1.072219535796604256e-01 4.873720699026662828e+01
1.081835854498154614e-01 4.566066733339613393e+01
1.091452173199704695e-01 4.303804810323905627e+01
1.101068491901255053e-01 4.011393328635207922e+01
1.110684810602805411e-01 3.793660036875268560e+01
1.120301129304355492e-01 3.548848674799221214e+01
1.129917448005905850e-01 3.257350507749367807e+01
1.139533766707456208e-01 2.943116476587414709e+01
1.149150085409006289e-01 2.723627025468404383e+01
1.158766404110556647e-01 2.508169483162725655e+01
1.168382722812106728e-01 2.347615588686919352e+01
1.177999041513657086e-01 2.188039156966743093e+01
1.187615360215207305e-01 1.993530133253417702e+01
1.197231678916757525e-01 1.764872532066667787e+01
1.206847997618307744e-01 1.600609982139231136e+01
1.216464316319858102e-01 1.437104722720881611e+01
1.226080635021408183e-01 1.345287010180816623e+01
1.235696953722958541e-01 1.270812917637575978e+01
1.245313272424508899e-01 1.119821667262852216e+01
1.254929591126059119e-01 9.715976769923319267e+00
1.264545909827609338e-01 8.823502332520245517e+00
1.274162228529159557e-01 8.176328013445015586e+00
1.283778547230709777e-01 7.205213782732315053e+00
1.293394865932259996e-01 6.520367765707085539e+00
1.303011184633810493e-01 5.460009090544620136e+00
1.312627503335360435e-01 4.859512161092212068e+00
1.322243822036910932e-01 4.143981516851106051e+00
1.331860140738460874e-01 3.767495780893391100e+00
1.341476459440011371e-01 3.284658704196147028e+00
1.351092778141561590e-01 2.987712984975658514e+00
1.360709096843111809e-01 2.421935558273784039e+00
1.370325415544662029e-01 2.075357377413986626e+00
1.379941734246212526e-01 1.616012169407468946e+00
1.389558052947762468e-01 1.439449720619126794e+00
1.399174371649312965e-01 1.686679830686021120e+00
1.408790690350863184e-01 1.420652033830549499e+00
1.418407009052413403e-01 1.137811328367369867e+00
1.428023327753963623e-01 1.523867775869774732e+00
1.437639646455513842e-01 1.582760267195638448e+00
1.447255965157064062e-01 1.226304404041311358e+00
1.456872283858614281e-01 1.111310010343778742e+00
1.466488602560164778e-01 1.209975437353790539e+00
1.476104921261714720e-01 1.750058712301381547e+00
1.485721239963265217e-01 1.731839206414480969e+00
1.495337558664815436e-01 1.523420958673082026e+00
1.504953877366365655e-01 1.744303285971191997e+00
1.514570196067915875e-01 2.135915440489956296e+00
1.524186514769466094e-01 1.960472570134342618e+00
1.533802833471016314e-01 2.181913783783837602e+00
1.543419152172566811e-01 2.609634703028376634e+00
1.553035470874116752e-01 2.692956535969830867e+00
1.562651789575667249e-01 2.565605073238966582e+00
1.572268108277217469e-01 2.944636882142106060e+00
1.581884426978767688e-01 3.258500634910589611e+00
1.591500745680317908e-01 3.383377093515345990e+00
1.601117064381868405e-01 3.534004227344091476e+00
1.610733383083418346e-01 3.542019984956411349e+00
1.620349701784968843e-01 3.638707913145136530e+00
1.629966020486519063e-01 4.024515123443809017e+00
1.639582339188069282e-01 4.155599189986851627e+00
1.649198657889619501e-01 4.148043040449856278e+00
1.658814976591169721e-01 4.309234374463915884e+00
1.668431295292719940e-01 4.716156660071565199e+00
1.678047613994270160e-01 4.906077167620065183e+00
1.687663932695820379e-01 5.154191896887539315e+00
1.697280251397370598e-01 5.287114106640192546e+00
1.706896570098921095e-01 5.217298005643939973e+00
1.716512888800471037e-01 5.409831026715053781e+00
1.726129207502021534e-01 5.314191021649961044e+00
1.735745526203571754e-01 4.889822835800895717e+00
1.745361844905121973e-01 5.095714765075374686e+00
1.754978163606672192e-01 5.154116287820020403e+00
1.764594482308222689e-01 5.290205143031919022e+00
1.774210801009772631e-01 5.304967368472684797e+00
1.783827119711323128e-01 5.220103667953992499e+00
1.793443438412873348e-01 5.273599152797547873e+00
1.803059757114423567e-01 5.512509695664832066e+00
1.812676075815973786e-01 5.853635328402248206e+00
1.822292394517524006e-01 5.784608111135540298e+00
1.831908713219074225e-01 5.470822744334100207e+00
1.841525031920624444e-01 5.577973995223523218e+00
1.851141350622174664e-01 5.659039098077787600e+00
1.860757669323724883e-01 5.639166537805643031e+00
1.870373988025275380e-01 5.455903620655998765e+00
1.879990306726825322e-01 5.483553555443663186e+00
1.889606625428375819e-01 5.607849596046374785e+00
1.899222944129926038e-01 5.324042578421249061e+00
1.908839262831476258e-01 5.369323701917210201e+00
1.918455581533026477e-01 4.974421805694522192e+00
1.928071900234576974e-01 4.713829674959686855e+00
1.937688218936126916e-01 4.864611646224165753e+00
1.947304537637677413e-01 4.890254049655926138e+00
1.956920856339227632e-01 4.857400806526861459e+00
1.966537175040777852e-01 4.750526804222772626e+00
1.976153493742328071e-01 4.311116009750190159e+00
1.985769812443878291e-01 4.419437641037422537e+00
1.995386131145428510e-01 4.422700439915988824e+00
2.005002449846978729e-01 4.335313149057686388e+00
2.014618768548528949e-01 4.297230556213342823e+00
2.024235087250079168e-01 3.924823097827765395e+00
2.033851405951629665e-01 3.753588791684911996e+00
2.043467724653179884e-01 3.969286232229439548e+00
2.053084043354730381e-01 3.606395433850956067e+00
2.062700362056280046e-01 3.259659796418219457e+00
2.072316680757830543e-01 3.111793152923695516e+00
2.081932999459380762e-01 3.102719497392463666e+00
2.091549318160931259e-01 3.096614125842521048e+00
2.101165636862481478e-01 3.035854184153251367e+00
2.110781955564031698e-01 3.107810524973636745e+00
2.120398274265581640e-01 2.712050047391265650e+00
2.130014592967132137e-01 2.167857251454822887e+00
2.139630911668682356e-01 2.044010471906386073e+00
2.149247230370232575e-01 2.259967779760035711e+00
2.158863549071783072e-01 2.182612666754099706e+00
2.168479867773333014e-01 1.944135432480024406e+00
2.178096186474883234e-01 1.958882532115129749e+00
2.187712505176433453e-01 2.071700904571457613e+00
2.197328823877983950e-01 1.923254951337710850e+00
2.206945142579534169e-01 1.811126014466491796e+00
2.216561461281084666e-01 1.768624724647345658e+00
2.226177779982634330e-01 1.640397719880347438e+00
2.235794098684184827e-01 1.507244828595517561e+00
2.245410417385735047e-01 1.424928294974474596e+00
2.255026736087285544e-01 1.191257264829243212e+00
2.264643054788835763e-01 1.261543673885142880e+00
2.274259373490385983e-01 1.204180122144524745e+00
2.283875692191935924e-01 1.038376899197469783e+00
2.293492010893486421e-01 9.475464222663632086e-01
2.303108329595036641e-01 7.835333246615441283e-01
2.312724648296586860e-01 8.008915030894883103e-01
2.322340966998137357e-01 7.533442740600406751e-01
2.331957285699687299e-01 5.206092118165024374e-01
2.341573604401237518e-01 3.200081581381652995e-01
2.351189923102787738e-01 5.300569615675669866e-01
2.360806241804338235e-01 4.198725583826821151e-01
2.370422560505888454e-01 3.762835575540179889e-01
2.380038879207438951e-01 3.895072283319009898e-01
2.389655197908988615e-01 3.997797568275096580e-01
2.399271516610539112e-01 3.819756992191827294e-01
2.408887835312089332e-01 3.612214716472124110e-01
2.418504154013639829e-01 4.601590453592940833e-01
2.428120472715190048e-01 5.749689885062529981e-01
2.437736791416740267e-01 6.959642944271564602e-01
2.447353110118290209e-01 5.675937475019949829e-01
2.456969428819840706e-01 3.471177256633630748e-01
2.466585747521390926e-01 3.804626763211942375e-01
2.476202066222941145e-01 3.311069701138222854e-01
2.485818384924491642e-01 4.678221915181133284e-01
2.495434703626041584e-01 5.467899001322287234e-01
2.505051022327591803e-01 4.294307444147200670e-01
2.514667341029142023e-01 6.425289806891179012e-01
2.524283659730692242e-01 3.017012181647125146e-01
2.533899978432243016e-01 3.719470254534691378e-01
2.543516297133793236e-01 3.012240560056440586e-01
2.553132615835342900e-01 4.601213049255541421e-01
2.562748934536893120e-01 5.395389757116149099e-01
2.572365253238443894e-01 5.063581941967250089e-01
2.581981571939994113e-01 4.291487768064641273e-01
2.591597890641544333e-01 4.949931633122304220e-01
2.601214209343094552e-01 5.940090832321978098e-01
2.610830528044644772e-01 4.528795768904316787e-01
2.620446846746194991e-01 4.080660304363910029e-01
2.630063165447745210e-01 4.131508934671650479e-01
2.639679484149295430e-01 3.478417054317297641e-01
2.649295802850845649e-01 5.683825191793339116e-01
2.658912121552395869e-01 5.427045595553501300e-01
2.668528440253946088e-01 2.794005947179272198e-01
2.678144758955496307e-01 5.510022274592749625e-01
2.687761077657046527e-01 9.655775110074387158e-01
2.697377396358597301e-01 8.385244925693911000e-01
2.706993715060147521e-01 7.523324457570517154e-01
2.716610033761697185e-01 6.343979563849231340e-01
2.726226352463247404e-01 8.296035065101499129e-01
2.735842671164798179e-01 9.249102472795556196e-01
2.745458989866348398e-01 9.966801702797596363e-01
2.755075308567898618e-01 9.620043383605221265e-01
2.764691627269448837e-01 8.439812323185300613e-01
2.774307945970999056e-01 6.064541755915087151e-01
2.783924264672549276e-01 6.826936520227988581e-01
2.793540583374099495e-01 7.946763881851381939e-01
2.803156902075649715e-01 9.264735823931218306e-01
2.812773220777199934e-01 9.734160252857471107e-01
2.822389539478750153e-01 1.080520868607145246e+00
2.832005858180300373e-01 8.703548259821083377e-01
2.841622176881850592e-01 7.654517386721870764e-01
2.851238495583400812e-01 9.493645907229577574e-01
2.860854814284951586e-01 7.167175200277640101e-01
2.870471132986501805e-01 1.071968143654004280e+00
2.880087451688051470e-01 1.095772253648419792e+00
2.889703770389601689e-01 1.077552683583775206e+00
2.899320089091152464e-01 1.067002051199146706e+00
2.908936407792702683e-01 7.864611859457646403e-01
2.918552726494252902e-01 8.190246033559560601e-01
2.928169045195803122e-01 8.408504091613515641e-01
2.937785363897353341e-01 9.157470019688069840e-01
2.947401682598903561e-01 8.900398636949695685e-01
2.957018001300453780e-01 8.285379356911377613e-01
2.966634320002003999e-01 9.162402523993549153e-01
2.976250638703554219e-01 7.616308136612239821e-01
2.985866957405104993e-01 9.116360360478807934e-01
2.995483276106654658e-01 9.461270329145818891e-01
3.005099594808204877e-01 8.293160913943147250e-01
3.014715913509755651e-01 9.062330622451355566e-01
3.024332232211305871e-01 7.235643299832261732e-01
3.033948550912856090e-01 7.400195685153789782e-01
3.043564869614405755e-01 7.480883913508051819e-01
3.053181188315956529e-01 5.838632573090585254e-01
3.062797507017506748e-01 7.361298763560171210e-01
3.072413825719056968e-01 7.895376893962833265e-01
3.082030144420607187e-01 6.472398555239493589e-01
3.091646463122157407e-01 7.753629517259419401e-01
3.101262781823707626e-01 9.238453936626527252e-01
3.110879100525257845e-01 7.132188999386386286e-01
3.120495419226808065e-01 8.357720734050069211e-01
3.130111737928358284e-01 9.506786594145992808e-01
3.139728056629909059e-01 7.262612965476762383e-01
3.149344375331459278e-01 4.727965682236821010e-01
3.158960694033008942e-01 3.790867566975322234e-01
3.168577012734559162e-01 4.446362270754882218e-01
3.178193331436109936e-01 4.717653955156606571e-01
3.187809650137660156e-01 5.109371569180076733e-01
3.197425968839210375e-01 3.890301188112772479e-01
3.207042287540760039e-01 4.307769030727364168e-01
3.216658606242310814e-01 5.673831007659124737e-01
3.226274924943861033e-01 4.221317708308163219e-01
3.235891243645411253e-01 2.286337547009367199e-01
3.245507562346961472e-01 1.415840404939459063e-01
3.255123881048511691e-01 2.764184879083408930e-01
3.264740199750061911e-01 4.558976381642558806e-01
3.274356518451612130e-01 6.734995898676991999e-01
3.283972837153162350e-01 4.879807867061352056e-01
3.293589155854712569e-01 2.999820022401493702e-01
3.303205474556263344e-01 4.051886261973400849e-01
3.312821793257813563e-01 3.183312675795306745e-01
3.322438111959363227e-01 2.584080377392155015e-01
3.332054430660913447e-01 2.086847408808019111e-01
3.341670749362464221e-01 3.683687828532207220e-01
3.351287068064014441e-01 1.966592885172993022e-01
3.360903386765564660e-01 1.793468927639700894e-01
3.370519705467114324e-01 1.790602083010028878e-01
3.380136024168665099e-01 2.928516130524947414e-01
3.389752342870215318e-01 2.606251991169621363e-01
3.399368661571765537e-01 3.593136529696572268e-01
3.408984980273315757e-01 4.289329500714842425e-01
3.418601298974865976e-01 4.006508320675408186e-01
3.428217617676416196e-01 2.975150550854017695e-01
3.437833936377966415e-01 4.290246069237007021e-01
3.447450255079516634e-01 2.749060167547163758e-01
3.457066573781066854e-01 3.002216184841124402e-01
3.466682892482617628e-01 4.469840284553434628e-01
3.476299211184167848e-01 4.469752980735428594e-01
3.485915529885717512e-01 5.084508930530518001e-01
3.495531848587267731e-01 4.866251456808967646e-01
3.505148167288818506e-01 3.167685553071493132e-01
3.514764485990368725e-01 2.354996294065045959e-01
3.524380804691918945e-01 2.830578288139591336e-01
3.533997123393468609e-01 3.335405341334762852e-01
3.543613442095019384e-01 2.701386970475176952e-01
3.553229760796569603e-01 8.037690690468579646e-02
3.562846079498119822e-01 1.178582732416799672e-01
3.572462398199670042e-01 4.337382014210469094e-01
3.582078716901220261e-01 4.060992956727282888e-01
3.591695035602770480e-01 2.757352569985194179e-01
3.601311354304320700e-01 2.686547279676219091e-01
3.610927673005870919e-01 2.237930973219199871e-01
3.620543991707421139e-01 2.260056140784527656e-01
3.630160310408971913e-01 2.018564673908080920e-01
3.639776629110522133e-01 2.834486213939726440e-01
3.649392947812071797e-01 3.314907014559409504e-01
3.659009266513622016e-01 2.736044062670650590e-01
3.668625585215172791e-01 2.445043887425555340e-01
3.678241903916723010e-01 2.181821238100418725e-01
3.687858222618273230e-01 3.843460262998128485e-01
3.697474541319822894e-01 2.393805677699383239e-01
3.707090860021373668e-01 3.690853160613549733e-01
3.716707178722923888e-01 4.695342239796218564e-01
3.726323497424474107e-01 5.561847434617277486e-01
3.735939816126024327e-01 4.787501260182125407e-01
3.745556134827574546e-01 3.736228448560936499e-01
3.755172453529124765e-01 2.572199247056410343e-01
3.764788772230674985e-01 3.090256866547420600e-01
3.774405090932225204e-01 3.296789024031845372e-01
3.784021409633775423e-01 2.966415768425889610e-01
3.793637728335326198e-01 2.830763007251171359e-01
3.803254047036876417e-01 1.650178796099766032e-01
3.812870365738426082e-01 2.371245957930803172e-01
3.822486684439976301e-01 5.730749160692809596e-01
3.832103003141527076e-01 4.771769575374840144e-01
3.841719321843077295e-01 3.769799202599344312e-01
3.851335640544627514e-01 3.648777655679857901e-01
3.860951959246177734e-01 3.094088069029936605e-01
3.870568277947727953e-01 2.584433886603996200e-01
3.880184596649278173e-01 2.144415595339701497e-01
3.889800915350828392e-01 3.650734539727586991e-01
3.899417234052378611e-01 3.576250588910880879e-01
3.909033552753928831e-01 4.605032394564396725e-01
3.918649871455479050e-01 4.782435734823664575e-01
3.928266190157029270e-01 5.020637547119441990e-01
3.937882508858579489e-01 4.361230859589255715e-01
3.947498827560129708e-01 3.521108079681702918e-01
3.957115146261680483e-01 4.550822926442883443e-01
3.966731464963230702e-01 3.337814436899186887e-01
3.976347783664780366e-01 4.557103355724407834e-01
3.985964102366330586e-01 5.365437100458301245e-01
3.995580421067881360e-01 5.215366027104337832e-01
4.005196739769430470e-01 6.826344508202168981e-01
4.014813058470981244e-01 5.482972576227851391e-01
4.024429377172531463e-01 3.562098730347678099e-01
4.034045695874082238e-01 4.627342020855849114e-01
