# q (1/Angstrom), Intensity (arb)
2.067508526570814575e-02 5.884158043541253846e+02
2.163671713586316769e-02 6.147276522919133868e+02
2.259834900601819310e-02 6.348011528867067454e+02
2.355998087617321851e-02 6.390268957915274086e+02
2.452161274632824739e-02 6.438591659213981302e+02
2.548324461648326933e-02 6.457455220732472299e+02
2.644487648663829821e-02 6.458521032829345359e+02
2.740650835679332709e-02 6.444527993224701277e+02
2.836814022694834903e-02 6.390521211365995669e+02
2.932977209710337443e-02 6.356298737149384124e+02
3.029140396725839637e-02 6.331487526412663556e+02
3.125303583741342178e-02 6.318099783762942252e+02
3.221466770756845066e-02 6.273223128027664188e+02
3.317629957772347260e-02 6.192902253237142531e+02
3.413793144787850148e-02 6.157034975203117710e+02
3.509956331803352342e-02 6.115614502226707145e+02
3.606119518818855230e-02 6.093045930166863400e+02
3.702282705834358117e-02 6.028897121666758494e+02
3.798445892849860311e-02 5.940295222713068597e+02
3.894609079865363199e-02 5.888013221848530065e+02
3.990772266880865393e-02 5.849176981101725232e+02
4.086935453896367587e-02 5.776365067721031892e+02
4.183098640911870475e-02 5.704992090548796568e+02
4.279261827927372669e-02 5.645589838914595475e+02
4.375425014942875557e-02 5.536464427575164109e+02
4.471588201958377751e-02 5.445143786838524420e+02
4.567751388973880639e-02 5.386943536401088295e+02
4.663914575989382832e-02 5.325986956038967719e+02
4.760077763004885720e-02 5.233800599510539087e+02
4.856240950020387914e-02 5.135973568750894174e+02
4.952404137035890108e-02 5.052522358622015872e+02
5.048567324051392302e-02 4.991836875848698014e+02
5.144730511066895190e-02 4.901346453697456695e+02
5.240893698082397384e-02 4.792407416071907278e+02
5.337056885097899578e-02 4.695822851158438311e+02
5.433220072113403160e-02 4.601080389723759367e+02
5.529383259128905354e-02 4.478099235159337468e+02
5.625546446144407547e-02 4.391173138211308924e+02
5.721709633159910435e-02 4.286508912789465739e+02
5.817872820175412629e-02 4.170763355992951347e+02
5.914036007190914823e-02 4.073347360331827076e+02
6.010199194206417017e-02 3.968232269466527100e+02
6.106362381221920599e-02 3.867332944972936843e+02
6.202525568237422793e-02 3.759060177309983146e+02
6.298688755252924987e-02 3.665987704881164859e+02
6.394851942268428568e-02 3.578769586187834761e+02
6.491015129283930762e-02 3.491687874735320065e+02
6.587178316299432956e-02 3.385666001988553262e+02
6.683341503314935150e-02 3.249666562914168821e+02
6.779504690330438732e-02 3.163276859924860673e+02
6.875667877345940926e-02 3.075986756722784889e+02
6.971831064361443120e-02 2.985412138849412145e+02
7.067994251376945314e-02 2.900772862918176997e+02
7.164157438392447508e-02 2.808455242638954701e+02
7.260320625407949702e-02 2.722248048403287726e+02
7.356483812423453283e-02 2.630951397759718020e+02
7.452646999438955477e-02 2.535355148616373810e+02
7.548810186454457671e-02 2.446524645957884445e+02
7.644973373469959865e-02 2.358178284911828655e+02
7.741136560485463447e-02 2.286050306019584752e+02
7.837299747500965641e-02 2.203061172533729746e+02
7.933462934516467835e-02 2.120783740403677200e+02
8.029626121531971417e-02 2.033282256315045231e+02
8.125789308547473611e-02 1.958294266063699354e+02
8.221952495562975805e-02 1.882081471370022712e+02
8.318115682578479386e-02 1.825198701887503603e+02
8.414278869593981580e-02 1.754175242857367607e+02
8.510442056609483774e-02 1.670014375951877241e+02
8.606605243624985968e-02 1.603657275443888750e+02
8.702768430640489550e-02 1.541167066904181127e+02
8.798931617655991744e-02 1.468016020912988040e+02
8.895094804671493938e-02 1.403897284099175522e+02
8.991257991686996132e-02 1.339778541078428020e+02
9.087421178702498326e-02 1.282648854912574734e+02
9.183584365718000520e-02 1.222913615025872787e+02
9.279747552733502713e-02 1.157517520944182507e+02
9.375910739749006295e-02 1.102335776851456188e+02
9.472073926764508489e-02 1.056031958218311360e+02
9.568237113780010683e-02 1.003047431248240144e+02
9.664400300795514265e-02 9.501649664068605716e+01
9.760563487811016459e-02 8.979250319641522537e+01
9.856726674826518653e-02 8.510954473311679180e+01
9.952889861842022234e-02 7.997808790629123621e+01
1.004905304885752443e-01 7.604713859252613872e+01
1.014521623587302801e-01 7.154872807735827678e+01
1.024137942288853020e-01 6.792182030258393866e+01
1.033754260990403240e-01 6.393610507879766658e+01
1.043370579691953459e-01 6.012508596096368763e+01
1.052986898393503817e-01 5.644090410041975758e+01
1.062603217095053898e-01 5.301766809689699755e+01
1.072219535796604256e-01 4.997221413492553665e+01
1.081835854498154614e-01 4.677004827693343714e+01
1.091452173199704695e-01 4.304686772141349138e+01
1.101068491901255053e-01 4.025837081398542239e+01
1.110684810602805411e-01 3.765549249965191336e+01
1.120301129304355492e-01 3.546130541203799424e+01
1.129917448005905850e-01 3.301061273424507192e+01
1.139533766707456208e-01 3.004394950315350243e+01
1.149150085409006289e-01 2.778524671243838284e+01
1.158766404110556647e-01 2.561921456584471812e+01
1.168382722812106728e-01 2.346581295761572150e+01
1.177999041513657086e-01 2.158864729988706443e+01
1.187615360215207305e-01 1.984372417661915122e+01
1.197231678916757525e-01 1.792643717607722564e+01
1.206847997618307744e-01 1.619294815162024648e+01
1.216464316319858102e-01 1.494215761461936509e+01
1.226080635021408183e-01 1.384724679549558246e+01
1.235696953722958541e-01 1.272524680340777792e+01
1.245313272424508899e-01 1.108448658999225955e+01
1.254929591126059119e-01 9.877998119751701722e+00
1.264545909827609338e-01 8.888407214322111116e+00
1.274162228529159557e-01 8.080532058723946420e+00
1.283778547230709777e-01 7.216025805183402753e+00
1.293394865932259996e-01 6.422522227920573812e+00
1.303011184633810493e-01 5.728634709955603199e+00
1.312627503335360435e-01 5.235383971705921624e+00
1.322243822036910932e-01 4.439344930419103719e+00
1.331860140738460874e-01 4.155288960093074024e+00
1.341476459440011371e-01 3.548981289341806900e+00
1.351092778141561590e-01 2.694881275312212665e+00
1.360709096843111809e-01 2.532170860285699376e+00
1.370325415544662029e-01 1.986272458699989585e+00
1.379941734246212526e-01 1.580826108135006791e+00
1.389558052947762468e-01 1.815885563365295496e+00
1.399174371649312965e-01 1.820624124040882919e+00
1.408790690350863184e-01 1.378474267781616192e+00
1.418407009052413403e-01 1.060268793395415798e+00
1.428023327753963623e-01 1.358671761244337972e+00
1.437639646455513842e-01 1.459420515293249565e+00
1.447255965157064062e-01 1.103267961553569876e+00
1.456872283858614281e-01 1.110583666673118586e+00
1.466488602560164778e-01 1.081182486623745831e+00
1.476104921261714720e-01 1.268895957428981092e+00
1.485721239963265217e-01 1.404546993528150267e+00
1.495337558664815436e-01 1.873082129550777353e+00
1.504953877366365655e-01 1.775960115619547253e+00
1.514570196067915875e-01 1.777671464657949230e+00
1.524186514769466094e-01 1.784757943529580615e+00
1.533802833471016314e-01 1.796703179075791468e+00
1.543419152172566811e-01 2.186454188258917242e+00
1.553035470874116752e-01 2.258147774114846129e+00
1.562651789575667249e-01 2.526041629761312635e+00
1.572268108277217469e-01 2.839671663134637924e+00
1.581884426978767688e-01 3.022192610796597734e+00
1.591500745680317908e-01 3.241786106622406294e+00
1.601117064381868405e-01 3.305160332846622140e+00
1.610733383083418346e-01 3.612082093217253487e+00
1.620349701784968843e-01 3.715056482544845551e+00
1.629966020486519063e-01 3.894362985941086208e+00
1.639582339188069282e-01 3.918612261549061060e+00
1.649198657889619501e-01 4.066159227724330805e+00
1.658814976591169721e-01 4.200148506841188123e+00
1.668431295292719940e-01 4.471338354431217965e+00
1.678047613994270160e-01 4.660431341679327488e+00
1.687663932695820379e-01 4.945563385311729121e+00
1.697280251397370598e-01 5.103024954882151576e+00
1.706896570098921095e-01 4.963402534605446448e+00
1.716512888800471037e-01 5.255755239226164832e+00
1.726129207502021534e-01 5.352028004526196980e+00
1.735745526203571754e-01 4.974908683195799597e+00
1.745361844905121973e-01 5.175370486817595150e+00
1.754978163606672192e-01 5.306273438211462690e+00
1.764594482308222689e-01 5.689802591460161096e+00
1.774210801009772631e-01 5.458014211518108283e+00
1.783827119711323128e-01 5.577590684444835745e+00
1.793443438412873348e-01 5.541586117107772935e+00
1.803059757114423567e-01 5.634037619802924723e+00
1.812676075815973786e-01 5.906964798183174992e+00
1.822292394517524006e-01 6.034228824048490480e+00
1.831908713219074225e-01 5.874087879620503827e+00
1.841525031920624444e-01 5.546732787409986543e+00
1.851141350622174664e-01 5.583813161583961460e+00
1.860757669323724883e-01 5.022842748807253344e+00
1.870373988025275380e-01 5.040894666519072587e+00
1.879990306726825322e-01 5.420475652632525509e+00
1.889606625428375819e-01 5.183772312971136387e+00
1.899222944129926038e-01 5.042935374175506524e+00
1.908839262831476258e-01 5.151345030543026837e+00
1.918455581533026477e-01 5.094336393216526204e+00
1.928071900234576974e-01 5.140668216801319801e+00
1.937688218936126916e-01 5.085672091724962485e+00
1.947304537637677413e-01 4.720873527422632776e+00
1.956920856339227632e-01 4.452691033890719297e+00
1.966537175040777852e-01 4.374203580127097979e+00
1.976153493742328071e-01 4.354516497161785793e+00
1.985769812443878291e-01 4.487804722722646744e+00
1.995386131145428510e-01 4.436924064001694035e+00
2.005002449846978729e-01 4.391528236893076809e+00
2.014618768548528949e-01 3.933270202473284627e+00
2.024235087250079168e-01 3.908137282759074793e+00
2.033851405951629665e-01 3.942129276535588644e+00
2.043467724653179884e-01 3.891644119961409132e+00
2.053084043354730381e-01 3.591111953294287673e+00
2.062700362056280046e-01 3.205748102176084302e+00
2.072316680757830543e-01 3.114916969326205987e+00
2.081932999459380762e-01 3.324200133219783027e+00
2.091549318160931259e-01 3.192926193149304481e+00
2.101165636862481478e-01 2.908292287587659786e+00
2.110781955564031698e-01 2.628339977839996067e+00
2.120398274265581640e-01 2.486469580844179461e+00
2.130014592967132137e-01 2.328076707668117251e+00
2.139630911668682356e-01 2.200125127755459431e+00
2.149247230370232575e-01 2.382570990665154653e+00
2.158863549071783072e-01 2.102705613931519224e+00
2.168479867773333014e-01 1.875318661605337667e+00
2.178096186474883234e-01 1.757888285451912225e+00
2.187712505176433453e-01 1.719830747038347596e+00
2.197328823877983950e-01 1.747194790548771692e+00
2.206945142579534169e-01 1.808652381059964398e+00
2.216561461281084666e-01 1.847629015814714393e+00
2.226177779982634330e-01 1.558056669354037638e+00
2.235794098684184827e-01 1.249958471414757355e+00
2.245410417385735047e-01 1.329426644828288318e+00
2.255026736087285544e-01 1.053707982919696917e+00
2.264643054788835763e-01 1.102042160406693228e+00
2.274259373490385983e-01 1.067911782671615128e+00
2.283875692191935924e-01 1.028813891724844609e+00
2.293492010893486421e-01 8.981263976737530186e-01
2.303108329595036641e-01 7.241625857387781195e-01
2.312724648296586860e-01 8.366203654220321084e-01
2.322340966998137357e-01 8.112263653422679965e-01
2.331957285699687299e-01 4.876330284798306991e-01
2.341573604401237518e-01 1.915998745102918122e-01
2.351189923102787738e-01 3.862826833219799028e-01
2.360806241804338235e-01 4.632936509817469073e-01
2.370422560505888454e-01 6.121477746012828902e-01
2.380038879207438951e-01 6.009676711759013301e-01
2.389655197908988615e-01 4.087986848780396087e-01
2.399271516610539112e-01 5.283942515084838476e-01
2.408887835312089332e-01 4.310823969944728162e-01
2.418504154013639829e-01 6.489388849543260562e-01
2.428120472715190048e-01 5.889350558908681421e-01
2.437736791416740267e-01 5.522156877718629175e-01
2.447353110118290209e-01 4.812851852159916177e-01
2.456969428819840706e-01 3.142587613488139198e-01
2.466585747521390926e-01 2.134478550683809317e-01
2.476202066222941145e-01 1.140228238192797505e-01
2.485818384924491642e-01 2.787431200143686283e-01
2.495434703626041584e-01 2.290637745679937609e-01
2.505051022327591803e-01 3.501994465827671377e-01
2.514667341029142023e-01 5.672518368697190283e-01
2.524283659730692242e-01 4.282813440981740882e-01
2.533899978432243016e-01 4.819340733833996637e-01
2.543516297133793236e-01 4.434610650288739464e-01
2.553132615835342900e-01 5.340351742651812117e-01
2.562748934536893120e-01 4.825942874533737381e-01
2.572365253238443894e-01 4.035537049182877922e-01
2.581981571939994113e-01 4.265453877621183665e-01
2.591597890641544333e-01 4.859217790409182669e-01
2.601214209343094552e-01 4.907688934180676199e-01
2.610830528044644772e-01 4.340395541281338865e-01
2.620446846746194991e-01 4.898931370324461909e-01
2.630063165447745210e-01 4.430531568307038981e-01
2.639679484149295430e-01 2.635036240101520377e-01
2.649295802850845649e-01 6.055115609096723972e-01
2.658912121552395869e-01 8.691710529052443235e-01
2.668528440253946088e-01 7.683024227434422926e-01
2.678144758955496307e-01 7.850380485724954838e-01
2.687761077657046527e-01 8.460984339471870896e-01
2.697377396358597301e-01 7.821096575909827209e-01
2.706993715060147521e-01 6.828529900071274028e-01
2.716610033761697185e-01 5.423103046617434586e-01
2.726226352463247404e-01 7.668079603137591960e-01
2.735842671164798179e-01 9.008060530187300685e-01
2.745458989866348398e-01 8.848625364434496987e-01
2.755075308567898618e-01 9.694514705351515715e-01
2.764691627269448837e-01 9.648001904109300142e-01
2.774307945970999056e-01 9.669254121071588770e-01
2.783924264672549276e-01 9.330768031393965600e-01
2.793540583374099495e-01 8.474045016579552225e-01
2.803156902075649715e-01 1.039309374775072570e+00
2.812773220777199934e-01 1.046509006680249598e+00
2.822389539478750153e-01 9.622881954686910433e-01
2.832005858180300373e-01 8.501260687867713273e-01
2.841622176881850592e-01 9.385073128319874058e-01
2.851238495583400812e-01 9.732597162413938463e-01
2.860854814284951586e-01 7.055545145101689286e-01
2.870471132986501805e-01 8.638852291202141487e-01
2.880087451688051470e-01 8.774255483474746597e-01
2.889703770389601689e-01 8.526045247754083789e-01
2.899320089091152464e-01 8.934735683624133173e-01
2.908936407792702683e-01 7.040288464922248579e-01
2.918552726494252902e-01 8.713792304268501709e-01
2.928169045195803122e-01 9.237607425086409307e-01
2.937785363897353341e-01 9.860889250517352878e-01
2.947401682598903561e-01 1.024604876400022846e+00
2.957018001300453780e-01 9.248166513146109935e-01
2.966634320002003999e-01 9.562385665552888270e-01
2.976250638703554219e-01 8.009733211394980401e-01
2.985866957405104993e-01 8.321836635714277008e-01
2.995483276106654658e-01 7.713708491099318110e-01
3.005099594808204877e-01 6.457614347965119350e-01
3.014715913509755651e-01 9.136998486650469431e-01
3.024332232211305871e-01 8.299291755281075211e-01
3.033948550912856090e-01 7.484110571050166527e-01
3.043564869614405755e-01 5.364740397134433181e-01
3.053181188315956529e-01 3.051782021750177876e-01
3.062797507017506748e-01 5.125324794728456368e-01
3.072413825719056968e-01 6.695198638969763749e-01
3.082030144420607187e-01 6.558447616905240807e-01
3.091646463122157407e-01 7.787606840490823856e-01
3.101262781823707626e-01 7.409931626323995602e-01
3.110879100525257845e-01 5.673801350406826316e-01
3.120495419226808065e-01 6.783025087429663813e-01
3.130111737928358284e-01 7.521871365439771751e-01
3.139728056629909059e-01 6.658861861118161585e-01
3.149344375331459278e-01 5.274451624069413924e-01
3.158960694033008942e-01 6.086240332708143796e-01
3.168577012734559162e-01 4.216642015710974079e-01
3.178193331436109936e-01 5.119709386793367401e-01
3.187809650137660156e-01 5.058670553269628556e-01
3.197425968839210375e-01 4.938221159850826325e-01
3.207042287540760039e-01 4.525457785657458487e-01
3.216658606242310814e-01 3.993444871101203830e-01
3.226274924943861033e-01 2.899702794163374620e-01
3.235891243645411253e-01 2.783276992106387127e-01
3.245507562346961472e-01 1.849317150551499367e-01
3.255123881048511691e-01 2.278969358650293486e-01
3.264740199750061911e-01 4.731118062168384597e-01
3.274356518451612130e-01 4.466060187185867392e-01
3.283972837153162350e-01 2.318571322645119892e-01
3.293589155854712569e-01 1.619462290572499796e-01
3.303205474556263344e-01 4.339961886106102895e-01
3.312821793257813563e-01 5.645922319990681615e-01
3.322438111959363227e-01 4.979669309996310744e-01
3.332054430660913447e-01 4.193541697562572779e-01
3.341670749362464221e-01 5.360309199279420511e-01
3.351287068064014441e-01 4.005945173792042624e-01
3.360903386765564660e-01 2.730529760132860417e-01
3.370519705467114324e-01 1.733451181290561749e-01
3.380136024168665099e-01 3.647233033057268869e-01
3.389752342870215318e-01 3.391523364745161473e-01
3.399368661571765537e-01 1.894117381912252540e-01
3.408984980273315757e-01 3.468438492618162172e-01
3.418601298974865976e-01 3.454257934716515877e-01
3.428217617676416196e-01 2.241031686592265260e-01
3.437833936377966415e-01 1.860187349328761286e-01
3.447450255079516634e-01 1.703358697383698939e-01
3.457066573781066854e-01 1.738135790957286986e-01
3.466682892482617628e-01 4.662909158789929620e-01
3.476299211184167848e-01 4.337393435392336016e-01
3.485915529885717512e-01 4.500389929188095550e-01
3.495531848587267731e-01 3.581412762320823617e-01
3.505148167288818506e-01 2.836741192678857715e-01
3.514764485990368725e-01 1.597874297097092722e-01
3.524380804691918945e-01 1.440897636187976616e-01
3.533997123393468609e-01 2.816018586277593272e-01
3.543613442095019384e-01 2.088069831516712327e-01
3.553229760796569603e-01 1.269594739730202093e-01
3.562846079498119822e-01 9.033390398030860524e-02
3.572462398199670042e-01 2.998457575069970460e-01
3.582078716901220261e-01 3.758801958660242803e-01
3.591695035602770480e-01 3.089103992476722738e-01
3.601311354304320700e-01 2.656707774118238774e-01
3.610927673005870919e-01 1.914164494204406708e-01
3.620543991707421139e-01 2.118589063193283550e-01
3.630160310408971913e-01 1.964130508742130132e-01
3.639776629110522133e-01 2.683942848064297948e-01
3.649392947812071797e-01 1.452865392291258217e-01
3.659009266513622016e-01 1.532695311793119686e-02
3.668625585215172791e-01 9.823649369552711619e-02
3.678241903916723010e-01 2.244826337645875469e-01
3.687858222618273230e-01 3.762007757690142284e-01
3.697474541319822894e-01 3.144939940931692490e-01
3.707090860021373668e-01 3.550672542771096118e-01
3.716707178722923888e-01 3.112145735045466211e-01
3.726323497424474107e-01 5.631017699571678747e-01
3.735939816126024327e-01 5.591597064780877702e-01
3.745556134827574546e-01 4.088108911679562141e-01
3.755172453529124765e-01 3.136952415576175213e-01
3.764788772230674985e-01 3.680882969594385656e-01
3.774405090932225204e-01 4.376325304492070245e-01
3.784021409633775423e-01 4.350794260157933024e-01
3.793637728335326198e-01 3.777396099642942318e-01
3.803254047036876417e-01 2.289354848926059560e-01
3.812870365738426082e-01 2.606352730140599760e-01
3.822486684439976301e-01 4.777347843271506633e-01
3.832103003141527076e-01 5.210762236922157342e-01
3.841719321843077295e-01 3.847542143126290171e-01
3.851335640544627514e-01 2.483460704793678531e-01
3.860951959246177734e-01 2.465476411451845706e-01
3.870568277947727953e-01 1.222008031454748789e-01
3.880184596649278173e-01 2.564270377077271235e-01
3.889800915350828392e-01 3.075642714624216012e-01
3.899417234052378611e-01 3.542360346258526249e-01
3.909033552753928831e-01 3.935450440038934516e-01
3.918649871455479050e-01 3.719783986719491509e-01
3.928266190157029270e-01 3.109698438226295991e-01
3.937882508858579489e-01 3.151437013341009674e-01
3.947498827560129708e-01 4.056101885562171105e-01
3.957115146261680483e-01 4.406919347585223079e-01
3.966731464963230702e-01 3.307602359655064106e-01
3.976347783664780366e-01 4.283704183482406336e-01
3.985964102366330586e-01 3.059503533116014751e-01
3.995580421067881360e-01 2.968199044082346916e-01
4.005196739769430470e-01 4.034773347401703347e-01
4.014813058470981244e-01 3.438863296342198339e-01
4.024429377172531463e-01 1.760985217432100569e-01
4.034045695874082238e-01 2.553601761275565707e-01
