# q (1/Angstrom), Intensity (arb)
2.067508526570814575e-02 4.620713121877971616e+02
2.163671713586316769e-02 4.835079842559374583e+02
2.259834900601819310e-02 4.972592710361553827e+02
2.355998087617321851e-02 5.047848405934240077e+02
2.452161274632824739e-02 5.079277173952827980e+02
2.548324461648326933e-02 5.063389699034980822e+02
2.644487648663829821e-02 5.054409715239541470e+02
2.740650835679332709e-02 5.038675877410572070e+02
2.836814022694834903e-02 5.052209045410482418e+02
2.932977209710337443e-02 5.050429130729980329e+02
3.029140396725839637e-02 5.013880404867092579e+02
3.125303583741342178e-02 4.970480598033741444e+02
3.221466770756845066e-02 4.910936552527321055e+02
3.317629957772347260e-02 4.868254166640326730e+02
3.413793144787850148e-02 4.860363483165389766e+02
3.509956331803352342e-02 4.827747671242757406e+02
3.606119518818855230e-02 4.796778151838857980e+02
3.702282705834358117e-02 4.748234185217956451e+02
3.798445892849860311e-02 4.702854889539412966e+02
3.894609079865363199e-02 4.656552459699889823e+02
3.990772266880865393e-02 4.631333905170432672e+02
4.086935453896367587e-02 4.583438444652090311e+02
4.183098640911870475e-02 4.505562184340312797e+02
4.279261827927372669e-02 4.449528179154332861e+02
4.375425014942875557e-02 4.386656621250060653e+02
4.471588201958377751e-02 4.332726446134487901e+02
4.567751388973880639e-02 4.266481294575184506e+02
4.663914575989382832e-02 4.193241574038298154e+02
4.760077763004885720e-02 4.124369380258883666e+02
4.856240950020387914e-02 4.062421391503999075e+02
4.952404137035890108e-02 3.998340022147442028e+02
5.048567324051392302e-02 3.921370927220906424e+02
5.144730511066895190e-02 3.861161738737076234e+02
5.240893698082397384e-02 3.791301644317784394e+02
5.337056885097899578e-02 3.708679546018121300e+02
5.433220072113403160e-02 3.647054159806557436e+02
5.529383259128905354e-02 3.565616317261054746e+02
5.625546446144407547e-02 3.466176150919001202e+02
5.721709633159910435e-02 3.383426835069777781e+02
5.817872820175412629e-02 3.298515205849710128e+02
5.914036007190914823e-02 3.219149081306426297e+02
6.010199194206417017e-02 3.145244740951669655e+02
6.106362381221920599e-02 3.070999382181176998e+02
6.202525568237422793e-02 3.005036141491377748e+02
6.298688755252924987e-02 2.910182210203847148e+02
6.394851942268428568e-02 2.811135547231590976e+02
6.491015129283930762e-02 2.724873307169016243e+02
6.587178316299432956e-02 2.648739524500862217e+02
6.683341503314935150e-02 2.592595853069306031e+02
6.779504690330438732e-02 2.522710426428005235e+02
6.875667877345940926e-02 2.449331210991813066e+02
6.971831064361443120e-02 2.378613875098059509e+02
7.067994251376945314e-02 2.295728644556793370e+02
7.164157438392447508e-02 2.219016122001455642e+02
7.260320625407949702e-02 2.164919479134204039e+02
7.356483812423453283e-02 2.105262792677272614e+02
7.452646999438955477e-02 2.025938006484683171e+02
7.548810186454457671e-02 1.948567046735691974e+02
7.644973373469959865e-02 1.875417800646703483e+02
7.741136560485463447e-02 1.812146738691826897e+02
7.837299747500965641e-02 1.753688121330717138e+02
7.933462934516467835e-02 1.686464322827100375e+02
8.029626121531971417e-02 1.624523234528174953e+02
8.125789308547473611e-02 1.566118840036322410e+02
8.221952495562975805e-02 1.505083067838144473e+02
8.318115682578479386e-02 1.441664453016599055e+02
8.414278869593981580e-02 1.382144899400077520e+02
8.510442056609483774e-02 1.329448304572709674e+02
8.606605243624985968e-02 1.274507353618762835e+02
8.702768430640489550e-02 1.221168923235670292e+02
8.798931617655991744e-02 1.173381356427568818e+02
8.895094804671493938e-02 1.111881828665802345e+02
8.991257991686996132e-02 1.062861546070831480e+02
9.087421178702498326e-02 1.021627394003961342e+02
9.183584365718000520e-02 9.758438837614565387e+01
9.279747552733502713e-02 9.296837402841387643e+01
9.375910739749006295e-02 8.863299681225296922e+01
9.472073926764508489e-02 8.426181776142681201e+01
9.568237113780010683e-02 8.020456629316301189e+01
9.664400300795514265e-02 7.646517461497059287e+01
9.760563487811016459e-02 7.256592368235446600e+01
9.856726674826518653e-02 6.842210443952484411e+01
9.952889861842022234e-02 6.449574688459416905e+01
1.004905304885752443e-01 6.164594671129382419e+01
1.014521623587302801e-01 5.846824565499885296e+01
1.024137942288853020e-01 5.462914503813456690e+01
1.033754260990403240e-01 5.110897119139185207e+01
1.043370579691953459e-01 4.829904253792346935e+01
1.052986898393503817e-01 4.580333032659132897e+01
1.062603217095053898e-01 4.287228858318532332e+01
1.072219535796604256e-01 4.012107699988726495e+01
1.081835854498154614e-01 3.721916624553552566e+01
1.091452173199704695e-01 3.462954504251475640e+01
1.101068491901255053e-01 3.292176570141656100e+01
1.110684810602805411e-01 3.052341942135088360e+01
1.120301129304355492e-01 2.798609931209631796e+01
1.129917448005905850e-01 2.600820817022720988e+01
1.139533766707456208e-01 2.511184182935733489e+01
1.149150085409006289e-01 2.323960862357219170e+01
1.158766404110556647e-01 2.119935066851354932e+01
1.168382722812106728e-01 1.959031985677095733e+01
1.177999041513657086e-01 1.810692936548690923e+01
1.187615360215207305e-01 1.689839591653430162e+01
1.197231678916757525e-01 1.526234808607417293e+01
1.206847997618307744e-01 1.375429605912710684e+01
1.216464316319858102e-01 1.246868995761066046e+01
1.226080635021408183e-01 1.109226289118103992e+01
1.235696953722958541e-01 1.007132530430206785e+01
1.245313272424508899e-01 8.829570797978870900e+00
1.254929591126059119e-01 7.891123720294363153e+00
1.264545909827609338e-01 7.433654144256863106e+00
1.274162228529159557e-01 6.990718808974662579e+00
1.283778547230709777e-01 5.916591082658356981e+00
1.293394865932259996e-01 5.287828395652155677e+00
1.303011184633810493e-01 4.428566932740114481e+00
1.312627503335360435e-01 4.372370180571127918e+00
1.322243822036910932e-01 4.007195348381532796e+00
1.331860140738460874e-01 3.611126060511100633e+00
1.341476459440011371e-01 2.936829615718796305e+00
1.351092778141561590e-01 2.274563232104124921e+00
1.360709096843111809e-01 2.618110610749766920e+00
1.370325415544662029e-01 2.551834551446027888e+00
1.379941734246212526e-01 2.014353901006792569e+00
1.389558052947762468e-01 1.633613901822631220e+00
1.399174371649312965e-01 1.779940629587070333e+00
1.408790690350863184e-01 1.477375174786896395e+00
1.418407009052413403e-01 1.508559172304146045e+00
1.428023327753963623e-01 1.507715667860004771e+00
1.437639646455513842e-01 1.401919283501150915e+00
1.447255965157064062e-01 1.236296315373365928e+00
1.456872283858614281e-01 1.037878212497446384e+00
1.466488602560164778e-01 1.198678342554629239e+00
1.476104921261714720e-01 1.397370909105919878e+00
1.485721239963265217e-01 1.418903988764270707e+00
1.495337558664815436e-01 1.382829120922782096e+00
1.504953877366365655e-01 1.677931004515954783e+00
1.514570196067915875e-01 1.707069960726382618e+00
1.524186514769466094e-01 1.825518586491064355e+00
1.533802833471016314e-01 1.899387454574632983e+00
1.543419152172566811e-01 2.099802486106082000e+00
1.553035470874116752e-01 2.121814961926155263e+00
1.562651789575667249e-01 2.410258274548386481e+00
1.572268108277217469e-01 2.501849309831765567e+00
1.581884426978767688e-01 2.872505710702967008e+00
1.591500745680317908e-01 2.981132258844436222e+00
1.601117064381868405e-01 2.820838995918126813e+00
1.610733383083418346e-01 3.226117020614733377e+00
1.620349701784968843e-01 3.476823203992118749e+00
1.629966020486519063e-01 3.417771289962203696e+00
1.639582339188069282e-01 3.342169749941785284e+00
1.649198657889619501e-01 3.594661238013358684e+00
1.658814976591169721e-01 3.941490922696434751e+00
1.668431295292719940e-01 4.957527458966360712e+00
1.678047613994270160e-01 4.162641022153636072e+00
1.687663932695820379e-01 3.682702367027108181e+00
1.697280251397370598e-01 4.437622844129545996e+00
1.706896570098921095e-01 4.541722825365496874e+00
1.716512888800471037e-01 4.540795040536636407e+00
1.726129207502021534e-01 4.523454091107829811e+00
1.735745526203571754e-01 4.616133939401645847e+00
1.745361844905121973e-01 4.405277410519989445e+00
1.754978163606672192e-01 4.308838674493792098e+00
1.764594482308222689e-01 4.341631222481215246e+00
1.774210801009772631e-01 4.435652166007368891e+00
1.783827119711323128e-01 4.618532011291517136e+00
1.793443438412873348e-01 4.822369779377179810e+00
1.803059757114423567e-01 5.221861966414593326e+00
1.812676075815973786e-01 5.027056915347841937e+00
1.822292394517524006e-01 4.854615614455255468e+00
1.831908713219074225e-01 5.044607599181830437e+00
1.841525031920624444e-01 4.800199147879393280e+00
1.851141350622174664e-01 4.976324679053924172e+00
1.860757669323724883e-01 4.817647410787767370e+00
1.870373988025275380e-01 4.585945252431024244e+00
1.879990306726825322e-01 4.578721095502572780e+00
1.889606625428375819e-01 4.698968544230467614e+00
1.899222944129926038e-01 4.531027625044064422e+00
1.908839262831476258e-01 4.296977494291521538e+00
1.918455581533026477e-01 4.003538981571441724e+00
1.928071900234576974e-01 4.102557230397582799e+00
1.937688218936126916e-01 4.369010911200494007e+00
1.947304537637677413e-01 4.146750834113543505e+00
1.956920856339227632e-01 4.230369525458367974e+00
1.966537175040777852e-01 3.940012214393139089e+00
1.976153493742328071e-01 3.771776607813855264e+00
1.985769812443878291e-01 3.490010086715180648e+00
1.995386131145428510e-01 3.332285302244159197e+00
2.005002449846978729e-01 3.760318168446570297e+00
2.014618768548528949e-01 3.818613986284599804e+00
2.024235087250079168e-01 3.664638884530084795e+00
2.033851405951629665e-01 3.288420586108244947e+00
2.043467724653179884e-01 3.148568939744194495e+00
2.053084043354730381e-01 3.006578469573689461e+00
2.062700362056280046e-01 2.821209809037270588e+00
2.072316680757830543e-01 2.728703867201659250e+00
2.081932999459380762e-01 2.910177067056270772e+00
2.091549318160931259e-01 3.064726548070233036e+00
2.101165636862481478e-01 2.625593677566985917e+00
2.110781955564031698e-01 2.172108083237905163e+00
2.120398274265581640e-01 2.206789477989907766e+00
2.130014592967132137e-01 2.139491113875568118e+00
2.139630911668682356e-01 2.005830943872631167e+00
2.149247230370232575e-01 1.932635361378562067e+00
2.158863549071783072e-01 1.675037387389714638e+00
2.168479867773333014e-01 1.659460285355670806e+00
2.178096186474883234e-01 1.450456704552948395e+00
2.187712505176433453e-01 1.584702314471904572e+00
2.197328823877983950e-01 1.273135170209350520e+00
2.206945142579534169e-01 1.434536879243797358e+00
2.216561461281084666e-01 1.329922287964663496e+00
2.226177779982634330e-01 1.069994594892939688e+00
2.235794098684184827e-01 8.811594046337205555e-01
2.245410417385735047e-01 1.029259545299410661e+00
2.255026736087285544e-01 1.097347150163990648e+00
2.264643054788835763e-01 1.142341498464734428e+00
2.274259373490385983e-01 1.085869596701872553e+00
2.283875692191935924e-01 8.711021249751595974e-01
2.293492010893486421e-01 7.921432278638427249e-01
2.303108329595036641e-01 6.931563474745807696e-01
2.312724648296586860e-01 5.635099837866590633e-01
2.322340966998137357e-01 4.172107197603374118e-01
2.331957285699687299e-01 4.400748089277684016e-01
2.341573604401237518e-01 6.406877297064355048e-01
2.351189923102787738e-01 7.273435250742004143e-01
2.360806241804338235e-01 6.654485905667542056e-01
2.370422560505888454e-01 6.219303580110278062e-01
2.380038879207438951e-01 4.697820361208862039e-01
2.389655197908988615e-01 5.228269653841657316e-01
2.399271516610539112e-01 4.158721172784112241e-01
2.408887835312089332e-01 4.169370598287862606e-01
2.418504154013639829e-01 2.279190168139280104e-01
2.428120472715190048e-01 1.981670701951792068e-01
2.437736791416740267e-01 3.371287121655299757e-01
2.447353110118290209e-01 4.943070017712365427e-01
2.456969428819840706e-01 5.588685569476474768e-01
2.466585747521390926e-01 5.152799277370156972e-01
2.476202066222941145e-01 3.467287169755053355e-01
2.485818384924491642e-01 4.356666569785900833e-01
2.495434703626041584e-01 5.844314730331383601e-01
2.505051022327591803e-01 6.704106416379005395e-01
2.514667341029142023e-01 2.621364187939860813e-01
2.524283659730692242e-01 3.505950149729777365e-01
2.533899978432243016e-01 3.867315787206422328e-01
2.543516297133793236e-01 3.282919844753955374e-01
2.553132615835342900e-01 3.120872672349683796e-01
2.562748934536893120e-01 4.239987896942594148e-01
2.572365253238443894e-01 2.684933295398934661e-01
2.581981571939994113e-01 3.328315948048228279e-01
2.591597890641544333e-01 4.056994041462260725e-01
2.601214209343094552e-01 4.327987773992418852e-01
2.610830528044644772e-01 5.235262046440247730e-01
2.620446846746194991e-01 5.065558322155894189e-01
2.630063165447745210e-01 5.560573667016335264e-01
2.639679484149295430e-01 7.324206340985526253e-01
2.649295802850845649e-01 4.465936798110199391e-01
2.658912121552395869e-01 4.101629502368737690e-01
2.668528440253946088e-01 4.743749768474110340e-01
2.678144758955496307e-01 6.801418842284370214e-01
2.687761077657046527e-01 5.673955629608080642e-01
2.697377396358597301e-01 6.268137538668518971e-01
2.706993715060147521e-01 8.718652951502825488e-01
2.716610033761697185e-01 7.952626604466956906e-01
2.726226352463247404e-01 7.060294029650115988e-01
2.735842671164798179e-01 5.493287401341540033e-01
2.745458989866348398e-01 6.484953485631876902e-01
2.755075308567898618e-01 8.238460793346078503e-01
2.764691627269448837e-01 5.819032373141119763e-01
2.774307945970999056e-01 7.222962408720796645e-01
2.783924264672549276e-01 9.243158260655270908e-01
2.793540583374099495e-01 7.320947802722272968e-01
2.803156902075649715e-01 7.022503016288261790e-01
2.812773220777199934e-01 5.552468652923003845e-01
2.822389539478750153e-01 8.111212086793102571e-01
2.832005858180300373e-01 9.465628077891601322e-01
2.841622176881850592e-01 9.591070338809615237e-01
2.851238495583400812e-01 7.824628055218880718e-01
2.860854814284951586e-01 7.218787863887357048e-01
2.870471132986501805e-01 8.112350975941104991e-01
2.880087451688051470e-01 8.442607101680756898e-01
2.889703770389601689e-01 8.901312229304885193e-01
2.899320089091152464e-01 7.329334144694605868e-01
2.908936407792702683e-01 7.407257584754098900e-01
2.918552726494252902e-01 7.294205991876410167e-01
2.928169045195803122e-01 6.590077120958035550e-01
2.937785363897353341e-01 7.414882180183290927e-01
2.947401682598903561e-01 7.940506534405358252e-01
2.957018001300453780e-01 9.865258569513386533e-01
2.966634320002003999e-01 8.035332232556875454e-01
2.976250638703554219e-01 6.884576640951856064e-01
2.985866957405104993e-01 6.350449762498158179e-01
2.995483276106654658e-01 6.720524225681501207e-01
3.005099594808204877e-01 6.901681528682352962e-01
3.014715913509755651e-01 5.660906533170724231e-01
3.024332232211305871e-01 7.164298774101780509e-01
3.033948550912856090e-01 7.579503263597189289e-01
3.043564869614405755e-01 6.799173840819072723e-01
3.053181188315956529e-01 7.425566882767036248e-01
3.062797507017506748e-01 7.663827777879674841e-01
3.072413825719056968e-01 5.824934042352900576e-01
3.082030144420607187e-01 7.681263357830410143e-01
3.091646463122157407e-01 7.611012223629352036e-01
3.101262781823707626e-01 6.230514143430738727e-01
3.110879100525257845e-01 5.199166630946017165e-01
3.120495419226808065e-01 3.217489769347636752e-01
3.130111737928358284e-01 1.500496501292793994e-01
3.139728056629909059e-01 5.293991033764555709e-01
3.149344375331459278e-01 4.794635981018124937e-01
3.158960694033008942e-01 5.976927115310637362e-01
3.168577012734559162e-01 5.687863502722194653e-01
3.178193331436109936e-01 6.771595138746384634e-01
3.187809650137660156e-01 8.340703162522835612e-01
3.197425968839210375e-01 7.566038992018881970e-01
3.207042287540760039e-01 3.078628512503769343e-01
3.216658606242310814e-01 2.645602472135024641e-01
3.226274924943861033e-01 3.665156059276100109e-01
3.235891243645411253e-01 3.047603737404287472e-01
3.245507562346961472e-01 3.688832163748188009e-01
3.255123881048511691e-01 3.124209888816764646e-01
3.264740199750061911e-01 3.974642455933086183e-01
3.274356518451612130e-01 5.635011575603776635e-01
3.283972837153162350e-01 3.803833304227630663e-01
3.293589155854712569e-01 2.095356010565616600e-01
3.303205474556263344e-01 1.964701873290053413e-01
3.312821793257813563e-01 3.631482255443891916e-01
3.322438111959363227e-01 2.772809544555343564e-01
3.332054430660913447e-01 3.320984192015465908e-01
3.341670749362464221e-01 3.282731988534024481e-01
3.351287068064014441e-01 5.235227525796979364e-01
3.360903386765564660e-01 4.500862578080067067e-01
3.370519705467114324e-01 4.311617402447467384e-01
3.380136024168665099e-01 4.022691078562310452e-01
3.389752342870215318e-01 2.613562405518052856e-01
3.399368661571765537e-01 4.039413656479204917e-01
3.408984980273315757e-01 3.400094862666627193e-01
3.418601298974865976e-01 4.431373510857987696e-01
3.428217617676416196e-01 3.955642952777225219e-01
3.437833936377966415e-01 1.382839477577064713e-01
3.447450255079516634e-01 1.934254442118863437e-01
3.457066573781066854e-01 5.455995601781147286e-01
3.466682892482617628e-01 6.765436083252041044e-01
3.476299211184167848e-01 4.911198453338307957e-01
3.485915529885717512e-01 5.011535386600698416e-01
3.495531848587267731e-01 4.444213870800020061e-01
3.505148167288818506e-01 3.942805039994361493e-01
3.514764485990368725e-01 2.750298441482250666e-01
3.524380804691918945e-01 2.399170710341032020e-01
3.533997123393468609e-01 2.017349446327898477e-01
3.543613442095019384e-01 1.947261068272965190e-01
3.553229760796569603e-01 3.518286584588388166e-01
3.562846079498119822e-01 3.708537187105633848e-01
3.572462398199670042e-01 3.417535235547894956e-01
3.582078716901220261e-01 3.140540755155356578e-01
3.591695035602770480e-01 1.971304425325328680e-01
3.601311354304320700e-01 1.719344503685817926e-01
3.610927673005870919e-01 3.593426145462892407e-01
3.620543991707421139e-01 4.524893272046881521e-01
3.630160310408971913e-01 3.010340716631603186e-01
3.639776629110522133e-01 1.104594138344232590e-01
3.649392947812071797e-01 5.982950427314293051e-02
3.659009266513622016e-01 2.688191274721916102e-01
3.668625585215172791e-01 4.381212284049702532e-01
3.678241903916723010e-01 4.176400271814557641e-01
3.687858222618273230e-01 2.257345465561542142e-01
3.697474541319822894e-01 2.158376609470344931e-01
3.707090860021373668e-01 3.472468128641921226e-01
3.716707178722923888e-01 3.265135688374911638e-01
3.726323497424474107e-01 2.595767407900311241e-01
3.735939816126024327e-01 3.469082333505362215e-01
3.745556134827574546e-01 4.658736757806138939e-01
3.755172453529124765e-01 5.144548254277374610e-01
3.764788772230674985e-01 5.064007085404433894e-01
3.774405090932225204e-01 3.909795522388037625e-01
3.784021409633775423e-01 4.711389470716014216e-01
3.793637728335326198e-01 3.213599183068467369e-01
3.803254047036876417e-01 2.316803366810979981e-01
3.812870365738426082e-01 2.178790587915706567e-01
3.822486684439976301e-01 2.712161437873419345e-01
3.832103003141527076e-01 3.494462531752731138e-01
3.841719321843077295e-01 3.892938891242003763e-01
3.851335640544627514e-01 4.840835250292201408e-01
3.860951959246177734e-01 4.831151506489810288e-01
3.870568277947727953e-01 2.912984614860434363e-01
3.880184596649278173e-01 3.272602140593399156e-01
3.889800915350828392e-01 3.223928520515109142e-01
3.899417234052378611e-01 3.264416472089592958e-01
3.909033552753928831e-01 3.355339490426310078e-01
3.918649871455479050e-01 5.270913697951549182e-01
3.928266190157029270e-01 5.504477740760762572e-01
3.937882508858579489e-01 5.038249092788085193e-01
3.947498827560129708e-01 3.189094877771765368e-01
3.957115146261680483e-01 2.645019031003030818e-01
3.966731464963230702e-01 3.984401084788906644e-01
3.976347783664780366e-01 4.495248500951340986e-01
3.985964102366330586e-01 4.650905288325297704e-01
3.995580421067881360e-01 5.139417035020308333e-01
4.005196739769430470e-01 4.815692281027139643e-01
4.014813058470981244e-01 5.656270323970211678e-01
4.024429377172531463e-01 3.689673587365511764e-01
4.034045695874082238e-01 1.529326345422816757e-01
