# q (1/Angstrom), Intensity (arb)
2.067508526570814575e-02 4.685778966323214831e+02
2.163671713586316769e-02 4.885757752986420996e+02
2.259834900601819310e-02 5.017949883755749738e+02
2.355998087617321851e-02 5.065772493943641166e+02
2.452161274632824739e-02 5.096837306252750750e+02
2.548324461648326933e-02 5.117989557955065152e+02
2.644487648663829821e-02 5.083057045026879450e+02
2.740650835679332709e-02 5.081993898677277457e+02
2.836814022694834903e-02 5.098665462175990797e+02
2.932977209710337443e-02 5.079158879709257803e+02
3.029140396725839637e-02 5.055477977870338577e+02
3.125303583741342178e-02 5.025192268739328370e+02
3.221466770756845066e-02 4.999295787558851885e+02
3.317629957772347260e-02 4.942814858799231956e+02
3.413793144787850148e-02 4.900619370537040709e+02
3.509956331803352342e-02 4.883682651712484812e+02
3.606119518818855230e-02 4.856114677306672434e+02
3.702282705834358117e-02 4.806176265562978642e+02
3.798445892849860311e-02 4.763826871153837601e+02
3.894609079865363199e-02 4.715525988880187924e+02
3.990772266880865393e-02 4.669393188246824593e+02
4.086935453896367587e-02 4.624965550396655090e+02
4.183098640911870475e-02 4.556231806041283789e+02
4.279261827927372669e-02 4.512355719769092843e+02
4.375425014942875557e-02 4.445644850338109677e+02
4.471588201958377751e-02 4.358523781977210660e+02
4.567751388973880639e-02 4.327099029268950403e+02
4.663914575989382832e-02 4.238250707731191369e+02
4.760077763004885720e-02 4.167564873494479230e+02
4.856240950020387914e-02 4.132029756604308659e+02
4.952404137035890108e-02 4.042733853527373640e+02
5.048567324051392302e-02 3.972224578796917172e+02
5.144730511066895190e-02 3.920309927334734539e+02
5.240893698082397384e-02 3.851969165869110725e+02
5.337056885097899578e-02 3.761230958841321126e+02
5.433220072113403160e-02 3.669371129608782667e+02
5.529383259128905354e-02 3.583551600159223085e+02
5.625546446144407547e-02 3.506992505884113598e+02
5.721709633159910435e-02 3.435554821705089239e+02
5.817872820175412629e-02 3.351781482636612282e+02
5.914036007190914823e-02 3.273587204322001298e+02
6.010199194206417017e-02 3.195885489432821487e+02
6.106362381221920599e-02 3.120427350251288772e+02
6.202525568237422793e-02 3.032499188934278891e+02
6.298688755252924987e-02 2.943016888598455125e+02
6.394851942268428568e-02 2.866990577333598367e+02
6.491015129283930762e-02 2.803534177820414470e+02
6.587178316299432956e-02 2.715755165271698957e+02
6.683341503314935150e-02 2.633690520575153187e+02
6.779504690330438732e-02 2.544425477966737219e+02
6.875667877345940926e-02 2.468063386416655476e+02
6.971831064361443120e-02 2.401110794234708408e+02
7.067994251376945314e-02 2.339912183143326558e+02
7.164157438392447508e-02 2.254599697645664662e+02
7.260320625407949702e-02 2.176734184198618891e+02
7.356483812423453283e-02 2.103035544763777693e+02
7.452646999438955477e-02 2.034454593256216981e+02
7.548810186454457671e-02 1.968742061938140750e+02
7.644973373469959865e-02 1.902705091544056586e+02
7.741136560485463447e-02 1.845535293698856094e+02
7.837299747500965641e-02 1.781959138948878660e+02
7.933462934516467835e-02 1.716068365306304031e+02
8.029626121531971417e-02 1.638908712353282056e+02
8.125789308547473611e-02 1.577243279004845817e+02
8.221952495562975805e-02 1.531881153847010069e+02
8.318115682578479386e-02 1.471618974228507284e+02
8.414278869593981580e-02 1.417048633720334010e+02
8.510442056609483774e-02 1.344182766044048947e+02
8.606605243624985968e-02 1.297241260959817453e+02
8.702768430640489550e-02 1.250764623893943934e+02
8.798931617655991744e-02 1.184554035512733776e+02
8.895094804671493938e-02 1.126430262205042112e+02
8.991257991686996132e-02 1.088081172170343507e+02
9.087421178702498326e-02 1.040394281940079679e+02
9.183584365718000520e-02 9.861127532382994332e+01
9.279747552733502713e-02 9.454678593316157276e+01
9.375910739749006295e-02 9.003135866181412439e+01
9.472073926764508489e-02 8.567077682972211505e+01
9.568237113780010683e-02 8.190676983325471383e+01
9.664400300795514265e-02 7.809122254191152024e+01
9.760563487811016459e-02 7.366522942075691560e+01
9.856726674826518653e-02 6.959752257264983655e+01
9.952889861842022234e-02 6.587652858030847369e+01
1.004905304885752443e-01 6.195242491692408748e+01
1.014521623587302801e-01 5.888898349521935671e+01
1.024137942288853020e-01 5.596386391648311331e+01
1.033754260990403240e-01 5.288717651200973080e+01
1.043370579691953459e-01 4.995373426985985077e+01
1.052986898393503817e-01 4.646462190421280525e+01
1.062603217095053898e-01 4.314552291476134371e+01
1.072219535796604256e-01 4.037769387717467140e+01
1.081835854498154614e-01 3.760357299059607783e+01
1.091452173199704695e-01 3.561159775329574728e+01
1.101068491901255053e-01 3.353265785699981905e+01
1.110684810602805411e-01 3.055542869144240470e+01
1.120301129304355492e-01 2.844404717767909574e+01
1.129917448005905850e-01 2.691975034168239134e+01
1.139533766707456208e-01 2.484451502717558924e+01
1.149150085409006289e-01 2.294100826281687233e+01
1.158766404110556647e-01 2.117746181003284889e+01
1.168382722812106728e-01 1.951046001000071684e+01
1.177999041513657086e-01 1.756927129069768867e+01
1.187615360215207305e-01 1.594298308668560793e+01
1.197231678916757525e-01 1.480952113600707065e+01
1.206847997618307744e-01 1.378484762198921132e+01
1.216464316319858102e-01 1.297248775676851196e+01
1.226080635021408183e-01 1.221839906600490266e+01
1.235696953722958541e-01 1.066789443830385764e+01
1.245313272424508899e-01 9.749831943580236526e+00
1.254929591126059119e-01 8.383174664009661825e+00
1.264545909827609338e-01 7.376661514264856834e+00
1.274162228529159557e-01 6.831551436220919982e+00
1.283778547230709777e-01 5.668643146786394027e+00
1.293394865932259996e-01 5.009921312264786764e+00
1.303011184633810493e-01 4.797638240891323846e+00
1.312627503335360435e-01 4.432388886012329721e+00
1.322243822036910932e-01 3.938651312054279430e+00
1.331860140738460874e-01 3.296745021274521292e+00
1.341476459440011371e-01 2.840452890181627055e+00
1.351092778141561590e-01 2.412255591768282414e+00
1.360709096843111809e-01 2.410841898904742209e+00
1.370325415544662029e-01 2.176269544871839656e+00
1.379941734246212526e-01 2.148841747880698705e+00
1.389558052947762468e-01 1.577624512216321051e+00
1.399174371649312965e-01 1.208309612702471725e+00
1.408790690350863184e-01 1.179369818413974258e+00
1.418407009052413403e-01 1.159860040429219197e+00
1.428023327753963623e-01 1.200990647396665167e+00
1.437639646455513842e-01 9.934152159143287975e-01
1.447255965157064062e-01 7.929914641055795244e-01
1.456872283858614281e-01 5.551469670153430513e-01
1.466488602560164778e-01 7.486639380952944123e-01
1.476104921261714720e-01 1.072080596124500573e+00
1.485721239963265217e-01 1.169090207546211957e+00
1.495337558664815436e-01 1.598293632394511832e+00
1.504953877366365655e-01 1.711981148635306482e+00
1.514570196067915875e-01 1.283266236260914184e+00
1.524186514769466094e-01 1.238660048223593435e+00
1.533802833471016314e-01 1.623162982660630860e+00
1.543419152172566811e-01 1.856423973406926109e+00
1.553035470874116752e-01 2.092829525328181006e+00
1.562651789575667249e-01 2.020661098745758721e+00
1.572268108277217469e-01 2.276739102525951353e+00
1.581884426978767688e-01 2.710853973535378714e+00
1.591500745680317908e-01 2.664801398365781893e+00
1.601117064381868405e-01 2.902450107033590854e+00
1.610733383083418346e-01 3.047308211126932065e+00
1.620349701784968843e-01 2.863033255740290883e+00
1.629966020486519063e-01 2.881017479822794769e+00
1.639582339188069282e-01 3.084561096928943869e+00
1.649198657889619501e-01 3.151663052303586454e+00
1.658814976591169721e-01 3.375120088517128636e+00
1.668431295292719940e-01 3.692836274434178279e+00
1.678047613994270160e-01 3.836021351598279949e+00
1.687663932695820379e-01 3.895885859114386562e+00
1.697280251397370598e-01 3.967828248024087401e+00
1.706896570098921095e-01 4.286391581875445667e+00
1.716512888800471037e-01 4.591727138908265005e+00
1.726129207502021534e-01 4.868338724967706810e+00
1.735745526203571754e-01 4.681731057761727044e+00
1.745361844905121973e-01 4.415175149576196389e+00
1.754978163606672192e-01 4.597651180462499099e+00
1.764594482308222689e-01 4.629135829486415332e+00
1.774210801009772631e-01 4.463088121826313426e+00
1.783827119711323128e-01 4.511777055378534129e+00
1.793443438412873348e-01 4.783128614469877249e+00
1.803059757114423567e-01 4.716638233679383063e+00
1.812676075815973786e-01 4.794370200124653536e+00
1.822292394517524006e-01 4.649615085586280117e+00
1.831908713219074225e-01 4.684141913842147176e+00
1.841525031920624444e-01 4.697188358392718754e+00
1.851141350622174664e-01 4.486171704411820116e+00
1.860757669323724883e-01 4.510136948982701455e+00
1.870373988025275380e-01 4.558202891106748922e+00
1.879990306726825322e-01 4.441507090863577645e+00
1.889606625428375819e-01 4.523933729857247954e+00
1.899222944129926038e-01 4.453204149880647833e+00
1.908839262831476258e-01 4.361925658994344701e+00
1.918455581533026477e-01 4.379344854380885721e+00
1.928071900234576974e-01 4.332720232269569038e+00
1.937688218936126916e-01 4.258335150725294227e+00
1.947304537637677413e-01 3.990936392797184595e+00
1.956920856339227632e-01 3.830521672021866664e+00
1.966537175040777852e-01 3.650579880520432141e+00
1.976153493742328071e-01 3.804922933026571030e+00
1.985769812443878291e-01 3.671186846416858884e+00
1.995386131145428510e-01 3.449148540154116205e+00
2.005002449846978729e-01 3.522884790458331139e+00
2.014618768548528949e-01 3.686696493609392888e+00
2.024235087250079168e-01 3.482392831666963673e+00
2.033851405951629665e-01 3.436611757643493803e+00
2.043467724653179884e-01 3.096841974845848000e+00
2.053084043354730381e-01 2.739962594472814317e+00
2.062700362056280046e-01 2.969694476354248991e+00
2.072316680757830543e-01 2.732929954742104428e+00
2.081932999459380762e-01 2.304202731431672646e+00
2.091549318160931259e-01 2.745343078192526320e+00
2.101165636862481478e-01 2.786464048916879932e+00
2.110781955564031698e-01 2.360825643079891734e+00
2.120398274265581640e-01 2.283429108873100688e+00
2.130014592967132137e-01 1.895142328553713895e+00
2.139630911668682356e-01 1.984159630490221815e+00
2.149247230370232575e-01 2.180810991436644031e+00
2.158863549071783072e-01 2.042239188469647360e+00
2.168479867773333014e-01 1.961952231150544179e+00
2.178096186474883234e-01 1.727928578662151438e+00
2.187712505176433453e-01 1.382407871950341871e+00
2.197328823877983950e-01 1.476365102122432660e+00
2.206945142579534169e-01 1.561465035415920966e+00
2.216561461281084666e-01 1.168299612613779459e+00
2.226177779982634330e-01 1.252659581462459926e+00
2.235794098684184827e-01 1.289463786783528576e+00
2.245410417385735047e-01 1.082982858926033742e+00
2.255026736087285544e-01 9.124411080162495580e-01
2.264643054788835763e-01 9.562231781516032925e-01
2.274259373490385983e-01 9.491822703806604977e-01
2.283875692191935924e-01 9.950882186196210455e-01
2.293492010893486421e-01 7.583610664574926830e-01
2.303108329595036641e-01 7.212669448683399764e-01
2.312724648296586860e-01 7.324624984045087217e-01
2.322340966998137357e-01 6.332832183735064291e-01
2.331957285699687299e-01 4.941710075748240172e-01
2.341573604401237518e-01 6.558551956183293896e-01
2.351189923102787738e-01 6.279164524844844664e-01
2.360806241804338235e-01 5.412194578360818298e-01
2.370422560505888454e-01 3.353767323850718185e-01
2.380038879207438951e-01 2.651545735311238161e-01
2.389655197908988615e-01 2.121434598262830207e-01
2.399271516610539112e-01 2.462533011357521673e-01
2.408887835312089332e-01 4.149931264817787735e-01
2.418504154013639829e-01 1.984504404944189560e-01
2.428120472715190048e-01 2.619253331418285313e-01
2.437736791416740267e-01 4.142685476511012155e-01
2.447353110118290209e-01 1.533951035335618940e-01
2.456969428819840706e-01 1.817342081839719015e-01
2.466585747521390926e-01 1.809726145098622396e-01
2.476202066222941145e-01 2.014931755031525995e-01
2.485818384924491642e-01 1.976680594244832889e-01
2.495434703626041584e-01 4.625380441892019689e-01
2.505051022327591803e-01 3.188301493644658535e-01
2.514667341029142023e-01 1.890158936513977039e-01
2.524283659730692242e-01 2.854830400423900016e-01
2.533899978432243016e-01 4.775539087187645748e-01
2.543516297133793236e-01 3.751658394204540059e-01
2.553132615835342900e-01 1.761760719252016827e-01
2.562748934536893120e-01 4.248315841504783918e-01
2.572365253238443894e-01 5.391747499662571386e-01
2.581981571939994113e-01 6.313239729843083126e-01
2.591597890641544333e-01 4.942147140614316925e-01
2.601214209343094552e-01 4.756975185045710930e-01
2.610830528044644772e-01 6.254578975185545175e-01
2.620446846746194991e-01 4.812017618545034736e-01
2.630063165447745210e-01 3.885887686800195695e-01
2.639679484149295430e-01 5.407587866638543517e-01
2.649295802850845649e-01 6.176025410777583602e-01
2.658912121552395869e-01 3.696991245394940506e-01
2.668528440253946088e-01 3.510501687675073867e-01
2.678144758955496307e-01 3.439498133612062247e-01
2.687761077657046527e-01 6.951873186188706200e-01
2.697377396358597301e-01 8.479762316560766067e-01
2.706993715060147521e-01 7.913865860610336256e-01
2.716610033761697185e-01 6.119999341360511380e-01
2.726226352463247404e-01 6.017010511645928261e-01
2.735842671164798179e-01 7.446537388901042220e-01
2.745458989866348398e-01 8.464796942576597871e-01
2.755075308567898618e-01 7.382156512507656032e-01
2.764691627269448837e-01 7.836326427158617491e-01
2.774307945970999056e-01 7.947536384210422966e-01
2.783924264672549276e-01 8.843135208938903702e-01
2.793540583374099495e-01 1.006035039878270254e+00
2.803156902075649715e-01 7.876805504604256214e-01
2.812773220777199934e-01 8.458894878184146648e-01
2.822389539478750153e-01 9.339876716558990211e-01
2.832005858180300373e-01 6.440856504732366261e-01
2.841622176881850592e-01 8.465069886051246328e-01
2.851238495583400812e-01 1.054981765282825279e+00
2.860854814284951586e-01 1.006685247976324860e+00
2.870471132986501805e-01 9.516273303667972527e-01
2.880087451688051470e-01 1.004285742972580664e+00
2.889703770389601689e-01 8.870740923494615515e-01
2.899320089091152464e-01 9.027891519941420029e-01
2.908936407792702683e-01 8.965322395031449787e-01
2.918552726494252902e-01 5.351865116310925430e-01
2.928169045195803122e-01 5.833838787427012562e-01
2.937785363897353341e-01 6.203746490343888809e-01
2.947401682598903561e-01 5.518474820176635376e-01
2.957018001300453780e-01 8.882788852807763647e-01
2.966634320002003999e-01 8.016400610731366783e-01
2.976250638703554219e-01 5.672952669949928861e-01
2.985866957405104993e-01 6.662968653053162882e-01
2.995483276106654658e-01 7.641237241021912041e-01
3.005099594808204877e-01 7.834843333498824336e-01
3.014715913509755651e-01 6.335858159903473563e-01
3.024332232211305871e-01 5.761902226913377945e-01
3.033948550912856090e-01 6.160146473170193815e-01
3.043564869614405755e-01 5.653367012485119858e-01
3.053181188315956529e-01 5.419553998774659931e-01
3.062797507017506748e-01 6.825244143868616220e-01
3.072413825719056968e-01 6.622629776879094265e-01
3.082030144420607187e-01 5.115654004912357777e-01
3.091646463122157407e-01 6.154084656622629268e-01
3.101262781823707626e-01 4.446534735964604579e-01
3.110879100525257845e-01 3.228201513648691900e-01
3.120495419226808065e-01 4.377314494073978324e-01
3.130111737928358284e-01 7.115015479855557601e-01
3.139728056629909059e-01 7.160428751873126885e-01
3.149344375331459278e-01 4.089260317498286668e-01
3.158960694033008942e-01 4.214757909308524120e-01
3.168577012734559162e-01 5.248973669618273163e-01
3.178193331436109936e-01 4.589911928964909293e-01
3.187809650137660156e-01 2.474039828868832558e-01
3.197425968839210375e-01 1.749197277874330325e-01
3.207042287540760039e-01 1.507536895099512719e-01
3.216658606242310814e-01 2.156294077374454332e-02
3.226274924943861033e-01 1.890566958542656550e-01
3.235891243645411253e-01 4.185781418900127449e-01
3.245507562346961472e-01 2.721384872541854349e-01
3.255123881048511691e-01 1.376566674023962378e-01
3.264740199750061911e-01 3.946209717333601930e-01
3.274356518451612130e-01 4.719486746330083804e-01
3.283972837153162350e-01 4.240161425358444092e-01
3.293589155854712569e-01 3.146522823671595859e-01
3.303205474556263344e-01 3.987315929613792775e-01
3.312821793257813563e-01 4.146437871447545831e-01
3.322438111959363227e-01 4.121552101470342677e-01
3.332054430660913447e-01 4.234388462001490439e-01
3.341670749362464221e-01 3.084369525774306453e-01
3.351287068064014441e-01 2.718989182496116541e-01
3.360903386765564660e-01 2.285364835910002057e-01
3.370519705467114324e-01 4.113645699582271220e-01
3.380136024168665099e-01 2.053229325647478731e-01
3.389752342870215318e-01 2.405980692600806492e-01
3.399368661571765537e-01 3.199775137374345491e-01
3.408984980273315757e-01 2.051291179546446131e-01
3.418601298974865976e-01 2.936485096327601241e-01
3.428217617676416196e-01 3.098563443432986730e-01
3.437833936377966415e-01 3.184391656304548235e-01
3.447450255079516634e-01 3.015618432235882551e-01
3.457066573781066854e-01 2.950877407659824314e-01
3.466682892482617628e-01 2.687806878390759380e-01
3.476299211184167848e-01 2.092057561915936503e-01
3.485915529885717512e-01 1.602434221593682651e-01
3.495531848587267731e-01 6.963344928403358836e-02
3.505148167288818506e-01 3.025395668324861731e-01
3.514764485990368725e-01 1.386845935930399065e+00
3.524380804691918945e-01 5.229163913499554894e-01
3.533997123393468609e-01 2.322757564135145003e-01
3.543613442095019384e-01 3.156997659521003641e-01
3.553229760796569603e-01 7.846311655110227434e-02
3.562846079498119822e-01 1.291928543197187196e-01
3.572462398199670042e-01 4.104478840389553795e-01
3.582078716901220261e-01 3.449284937957841635e-01
3.591695035602770480e-01 2.125585996783136977e-01
3.601311354304320700e-01 1.584184461228943519e-02
3.610927673005870919e-01 7.468856439799509417e-02
3.620543991707421139e-01 5.048930312518251640e-02
3.630160310408971913e-01 1.084839058099618114e-01
3.639776629110522133e-01 1.308649748943899738e-01
3.649392947812071797e-01 1.711175064803285295e-01
3.659009266513622016e-01 2.530491878215315182e-01
3.668625585215172791e-01 2.405759263536602077e-01
3.678241903916723010e-01 2.694540225126687005e-01
3.687858222618273230e-01 2.014672646211010942e-01
3.697474541319822894e-01 2.174060310679486463e-01
3.707090860021373668e-01 2.014166595715494168e-01
3.716707178722923888e-01 0.000000000000000000e+00
3.726323497424474107e-01 1.343166747430046826e-02
3.735939816126024327e-01 2.706632149468823911e-01
3.745556134827574546e-01 3.641507333343589892e-01
3.755172453529124765e-01 2.749833811967761221e-01
3.764788772230674985e-01 3.463779219358684713e-01
3.774405090932225204e-01 4.932421654565608549e-01
3.784021409633775423e-01 3.154870310710791159e-01
3.793637728335326198e-01 1.611537945597945054e-01
3.803254047036876417e-01 2.135683673265447169e-01
3.812870365738426082e-01 3.382910267553640438e-01
3.822486684439976301e-01 4.928271214176973558e-01
3.832103003141527076e-01 4.407259616299299410e-01
3.841719321843077295e-01 4.369889281154257787e-01
3.851335640544627514e-01 5.393279668230164248e-01
3.860951959246177734e-01 4.064381683210420704e-01
3.870568277947727953e-01 4.366213683949595747e-01
3.880184596649278173e-01 4.509845156265690491e-01
3.889800915350828392e-01 3.858998470761996202e-01
3.899417234052378611e-01 4.327786067688812466e-01
3.909033552753928831e-01 3.580941782088054026e-01
3.918649871455479050e-01 4.374701116649362120e-01
3.928266190157029270e-01 2.687196748983673444e-01
3.937882508858579489e-01 3.108712424720287970e-01
3.947498827560129708e-01 3.547843284091030114e-01
3.957115146261680483e-01 2.903477135138530230e-01
3.966731464963230702e-01 2.660219690263261327e-01
3.976347783664780366e-01 4.092041357377134148e-01
3.985964102366330586e-01 4.099630629054225039e-01
3.995580421067881360e-01 4.008327285355655079e-01
4.005196739769430470e-01 4.261073768890391023e-01
4.014813058470981244e-01 5.089684694325740111e-01
4.024429377172531463e-01 4.731094416197798580e-01
4.034045695874082238e-01 2.991891301731328667e-01
