# q (1/Angstrom), Intensity (arb)
2.067508526570814575e-02 3.107498527579246002e+03
2.163671713586316769e-02 2.769946152686223286e+03
2.259834900601819310e-02 2.670090234309283460e+03
2.355998087617321851e-02 2.326171671467959641e+03
2.452161274632824739e-02 2.133345560974068576e+03
2.548324461648326933e-02 1.983872910354951273e+03
2.644487648663829821e-02 1.855988874240338646e+03
2.740650835679332709e-02 1.754596372249598517e+03
2.836814022694834903e-02 1.670080392563901569e+03
2.932977209710337443e-02 1.629869727509169934e+03
3.029140396725839637e-02 1.578643306126673451e+03
3.125303583741342178e-02 1.534699861160654336e+03
3.221466770756845066e-02 1.488678003518525657e+03
3.317629957772347260e-02 1.460122949259523011e+03
3.413793144787850148e-02 1.431468671876083590e+03
3.509956331803352342e-02 1.409584507130864040e+03
3.606119518818855230e-02 1.387182577324638714e+03
3.702282705834358117e-02 1.368354256345373415e+03
3.798445892849860311e-02 1.342442604134859494e+03
3.894609079865363199e-02 1.323322214465083107e+03
3.990772266880865393e-02 1.316635558320403334e+03
4.086935453896367587e-02 1.291261568460945682e+03
4.183098640911870475e-02 1.279633140113902755e+03
4.279261827927372669e-02 1.270034778554219201e+03
4.375425014942875557e-02 1.247719435670961275e+03
4.471588201958377751e-02 1.225409635521075188e+03
4.567751388973880639e-02 1.215832632217239052e+03
4.663914575989382832e-02 1.200886092736600403e+03
4.760077763004885720e-02 1.185040333525920914e+03
4.856240950020387914e-02 1.174069900306177487e+03
4.952404137035890108e-02 1.157604377013026351e+03
5.048567324051392302e-02 1.142011924583996915e+03
5.144730511066895190e-02 1.127860828694428392e+03
5.240893698082397384e-02 1.111215981155772170e+03
5.337056885097899578e-02 1.087644499485047845e+03
5.433220072113403160e-02 1.068891212220951047e+03
5.529383259128905354e-02 1.052373844391050625e+03
5.625546446144407547e-02 1.042503457984910028e+03
5.721709633159910435e-02 1.023489840944328307e+03
5.817872820175412629e-02 1.001788740881723129e+03
5.914036007190914823e-02 9.859099171023062809e+02
6.010199194206417017e-02 9.662738221923380024e+02
6.106362381221920599e-02 9.494030977340698882e+02
6.202525568237422793e-02 9.365741852445078166e+02
6.298688755252924987e-02 9.244177611962112451e+02
6.394851942268428568e-02 9.060339072142696750e+02
6.491015129283930762e-02 8.902532395925195488e+02
6.587178316299432956e-02 8.739957526051696277e+02
6.683341503314935150e-02 8.598693973087436007e+02
6.779504690330438732e-02 8.436115690991809970e+02
6.875667877345940926e-02 8.317610569460757688e+02
6.971831064361443120e-02 8.138858082398510305e+02
7.067994251376945314e-02 7.956096340616165890e+02
7.164157438392447508e-02 7.895821396089484097e+02
7.260320625407949702e-02 7.755562333025504813e+02
7.356483812423453283e-02 7.600282108282453919e+02
7.452646999438955477e-02 7.530865217413786468e+02
7.548810186454457671e-02 7.383849513587979345e+02
7.644973373469959865e-02 7.326094061622910658e+02
7.741136560485463447e-02 7.237367747681080346e+02
7.837299747500965641e-02 7.179031105487019886e+02
7.933462934516467835e-02 7.034847074456342852e+02
8.029626121531971417e-02 7.005812611011884883e+02
8.125789308547473611e-02 6.955986798488052045e+02
8.221952495562975805e-02 6.921182689163911164e+02
8.318115682578479386e-02 6.900542665881339417e+02
8.414278869593981580e-02 6.905638857196810250e+02
8.510442056609483774e-02 7.084646725261447955e+02
8.606605243624985968e-02 7.592784504000416064e+02
8.702768430640489550e-02 8.622250110395208367e+02
8.798931617655991744e-02 1.064709885533734223e+03
8.895094804671493938e-02 1.378986370841386815e+03
8.991257991686996132e-02 1.734509402101533396e+03
9.087421178702498326e-02 2.065001769962977505e+03
9.183584365718000520e-02 2.509001696019627161e+03
9.279747552733502713e-02 3.330094031797484604e+03
9.375910739749006295e-02 4.286981639663004898e+03
9.472073926764508489e-02 4.871206566729663791e+03
9.568237113780010683e-02 4.501684764345758595e+03
9.664400300795514265e-02 3.505877417482372948e+03
9.760563487811016459e-02 2.810629913471863802e+03
9.856726674826518653e-02 2.526637223549833834e+03
9.952889861842022234e-02 2.434722687618445434e+03
1.004905304885752443e-01 2.344653030521008077e+03
1.014521623587302801e-01 2.174185400579960969e+03
1.024137942288853020e-01 1.971218831702096395e+03
1.033754260990403240e-01 1.764103582645190500e+03
1.043370579691953459e-01 1.560002167401381939e+03
1.052986898393503817e-01 1.395035335285434030e+03
1.062603217095053898e-01 1.277249532936675223e+03
1.072219535796604256e-01 1.198113666132369872e+03
1.081835854498154614e-01 1.149691403480887402e+03
1.091452173199704695e-01 1.096310910660796935e+03
1.101068491901255053e-01 9.841855092334610617e+02
1.110684810602805411e-01 8.169786096925492984e+02
1.120301129304355492e-01 6.539774738534188145e+02
1.129917448005905850e-01 5.332787896784911936e+02
1.139533766707456208e-01 4.530839608904430520e+02
1.149150085409006289e-01 3.957172432924193117e+02
1.158766404110556647e-01 3.505829243827226378e+02
1.168382722812106728e-01 3.191750046221581556e+02
1.177999041513657086e-01 2.926738772440081675e+02
1.187615360215207305e-01 2.685301645557804591e+02
1.197231678916757525e-01 2.419380316702258824e+02
1.206847997618307744e-01 2.097376267938989258e+02
1.216464316319858102e-01 2.041585705022937418e+02
1.226080635021408183e-01 1.909520121477660837e+02
1.235696953722958541e-01 1.828481030045669513e+02
1.245313272424508899e-01 1.682022673846742009e+02
1.254929591126059119e-01 1.569170685780329109e+02
1.264545909827609338e-01 1.510034971102236909e+02
1.274162228529159557e-01 1.394108843168150997e+02
1.283778547230709777e-01 1.336016148366700804e+02
1.293394865932259996e-01 1.257700978247306125e+02
1.303011184633810493e-01 1.168338283405640254e+02
1.312627503335360435e-01 1.143944504823936654e+02
1.322243822036910932e-01 1.096530803301128003e+02
1.331860140738460874e-01 1.037738919386388829e+02
1.341476459440011371e-01 9.717926655191610052e+01
1.351092778141561590e-01 9.731075864113580565e+01
1.360709096843111809e-01 9.278195248809902296e+01
1.370325415544662029e-01 8.503995424771966327e+01
1.379941734246212526e-01 8.463804174596418761e+01
1.389558052947762468e-01 8.087710775107410655e+01
1.399174371649312965e-01 7.711150137830776430e+01
1.408790690350863184e-01 7.353046580969021306e+01
1.418407009052413403e-01 7.328225263809770240e+01
1.428023327753963623e-01 7.373612628611169839e+01
1.437639646455513842e-01 7.128027383504883119e+01
1.447255965157064062e-01 7.143256994513785685e+01
1.456872283858614281e-01 7.231602470903720814e+01
1.466488602560164778e-01 6.919475292987056037e+01
1.476104921261714720e-01 6.766565188123780672e+01
1.485721239963265217e-01 6.649698787994395843e+01
1.495337558664815436e-01 6.629925555414098426e+01
1.504953877366365655e-01 6.598871483300661112e+01
1.514570196067915875e-01 6.708855069882145017e+01
1.524186514769466094e-01 7.326804276211362321e+01
1.533802833471016314e-01 7.972486468865486131e+01
1.543419152172566811e-01 8.955865110187818345e+01
1.553035470874116752e-01 9.808889220557819044e+01
1.562651789575667249e-01 9.656211765933647939e+01
1.572268108277217469e-01 8.901090052259860386e+01
1.581884426978767688e-01 7.826660430331861562e+01
1.591500745680317908e-01 7.068290164638852957e+01
1.601117064381868405e-01 6.796852861758861764e+01
1.610733383083418346e-01 6.600051857591040516e+01
1.620349701784968843e-01 6.434934380375165119e+01
1.629966020486519063e-01 6.426647348027904627e+01
1.639582339188069282e-01 6.639239377364577877e+01
1.649198657889619501e-01 6.270779084887038834e+01
1.658814976591169721e-01 6.557548567431143738e+01
1.668431295292719940e-01 6.932209908056211134e+01
1.678047613994270160e-01 7.108450413960650849e+01
1.687663932695820379e-01 6.799414317340495018e+01
1.697280251397370598e-01 6.897514913525134261e+01
1.706896570098921095e-01 7.059354279258218412e+01
1.716512888800471037e-01 6.986763877243538445e+01
1.726129207502021534e-01 7.045082246200928466e+01
1.735745526203571754e-01 7.267351068145535464e+01
1.745361844905121973e-01 7.549011388078730533e+01
1.754978163606672192e-01 7.702873119469990115e+01
1.764594482308222689e-01 8.327704157948596730e+01
1.774210801009772631e-01 9.586438350953670806e+01
1.783827119711323128e-01 1.127843843272703452e+02
1.793443438412873348e-01 1.348826625472401588e+02
1.803059757114423567e-01 1.649075041045495595e+02
1.812676075815973786e-01 1.897732056418121829e+02
1.822292394517524006e-01 1.950794663970796705e+02
1.831908713219074225e-01 1.807811057577493443e+02
1.841525031920624444e-01 1.595581143346649355e+02
1.851141350622174664e-01 1.446977033992503721e+02
1.860757669323724883e-01 1.312746742932152415e+02
1.870373988025275380e-01 1.222321462672553025e+02
1.879990306726825322e-01 1.174737672665748960e+02
1.889606625428375819e-01 1.143041823251002143e+02
1.899222944129926038e-01 1.108130824550368061e+02
1.908839262831476258e-01 9.828454974681420708e+01
1.918455581533026477e-01 8.744586168177738728e+01
1.928071900234576974e-01 8.284097178255575500e+01
1.937688218936126916e-01 7.676077316839848663e+01
1.947304537637677413e-01 7.548758071199029018e+01
1.956920856339227632e-01 7.093827251260057665e+01
1.966537175040777852e-01 6.779294086920725704e+01
1.976153493742328071e-01 6.696898230512255168e+01
1.985769812443878291e-01 6.568484778047076134e+01
1.995386131145428510e-01 6.326999815659081605e+01
2.005002449846978729e-01 5.873743456464495694e+01
2.014618768548528949e-01 5.864321274355864944e+01
2.024235087250079168e-01 5.429778345279743235e+01
2.033851405951629665e-01 5.316249911887268809e+01
2.043467724653179884e-01 5.445224988233462682e+01
2.053084043354730381e-01 5.387376738815254384e+01
2.062700362056280046e-01 5.142945073346561458e+01
2.072316680757830543e-01 4.937689878499026008e+01
2.081932999459380762e-01 5.013491949846911666e+01
2.091549318160931259e-01 4.721596341005874820e+01
2.101165636862481478e-01 4.453630841305084687e+01
2.110781955564031698e-01 4.400215339598707942e+01
2.120398274265581640e-01 4.414994677804492085e+01
2.130014592967132137e-01 4.486922794180514984e+01
2.139630911668682356e-01 4.520035641369980794e+01
2.149247230370232575e-01 4.182680728629173927e+01
2.158863549071783072e-01 4.347008643764110047e+01
2.168479867773333014e-01 4.514443410301879567e+01
2.178096186474883234e-01 4.309482329377198084e+01
2.187712505176433453e-01 4.501458373351044884e+01
2.197328823877983950e-01 4.243862551241062420e+01
2.206945142579534169e-01 4.130503791446591322e+01
2.216561461281084666e-01 3.921713861654865241e+01
2.226177779982634330e-01 3.684192619115782463e+01
2.235794098684184827e-01 3.512051036993136677e+01
2.245410417385735047e-01 3.280927114306228987e+01
2.255026736087285544e-01 3.286859324923068471e+01
2.264643054788835763e-01 3.632482496259581239e+01
2.274259373490385983e-01 3.538216127779190856e+01
2.283875692191935924e-01 3.305470174822505669e+01
2.293492010893486421e-01 3.165414948048106680e+01
2.303108329595036641e-01 3.228723849177652028e+01
2.312724648296586860e-01 3.416020837030777102e+01
2.322340966998137357e-01 3.147130988597598389e+01
2.331957285699687299e-01 2.937363375900378060e+01
2.341573604401237518e-01 2.867340662667527340e+01
2.351189923102787738e-01 2.989479682786100057e+01
2.360806241804338235e-01 2.927046528918532431e+01
2.370422560505888454e-01 2.914323279559704361e+01
2.380038879207438951e-01 3.093697536778199719e+01
2.389655197908988615e-01 3.122173306332877019e+01
2.399271516610539112e-01 2.910769340630332636e+01
2.408887835312089332e-01 2.934423372674581287e+01
2.418504154013639829e-01 2.735763829046703677e+01
2.428120472715190048e-01 2.734964639592351432e+01
2.437736791416740267e-01 2.598033519000637170e+01
2.447353110118290209e-01 2.606053908088904336e+01
2.456969428819840706e-01 2.560330641647533412e+01
2.466585747521390926e-01 2.484525635089283924e+01
2.476202066222941145e-01 2.421089113121132641e+01
2.485818384924491642e-01 2.472117190998875458e+01
2.495434703626041584e-01 2.542323892243081218e+01
2.505051022327591803e-01 2.232859502989521161e+01
2.514667341029142023e-01 2.277278411323533192e+01
2.524283659730692242e-01 2.304599717882734922e+01
2.533899978432243016e-01 2.306661814735241478e+01
2.543516297133793236e-01 2.400679715212220344e+01
2.553132615835342900e-01 2.379554473164262163e+01
2.562748934536893120e-01 2.296934840814509471e+01
2.572365253238443894e-01 2.437009831544389726e+01
2.581981571939994113e-01 2.313760700904805390e+01
2.591597890641544333e-01 2.369901164432536689e+01
2.601214209343094552e-01 2.449693021300612372e+01
2.610830528044644772e-01 2.293539011558328866e+01
2.620446846746194991e-01 2.313767089794168896e+01
2.630063165447745210e-01 2.140990837504500632e+01
2.639679484149295430e-01 2.147286128435354158e+01
2.649295802850845649e-01 2.258503311340149367e+01
2.658912121552395869e-01 2.283554420687698894e+01
2.668528440253946088e-01 2.384443208121632551e+01
2.678144758955496307e-01 2.478459511695024275e+01
2.687761077657046527e-01 2.393232860966020326e+01
2.697377396358597301e-01 2.371788639884420036e+01
2.706993715060147521e-01 2.316922393148905712e+01
2.716610033761697185e-01 2.331885955968238022e+01
2.726226352463247404e-01 2.492036467900629759e+01
2.735842671164798179e-01 2.371121654803238243e+01
2.745458989866348398e-01 2.368929639169607526e+01
2.755075308567898618e-01 2.222057451202118727e+01
2.764691627269448837e-01 2.337913164667099863e+01
2.774307945970999056e-01 2.322831070606150661e+01
2.783924264672549276e-01 2.312759392400653269e+01
2.793540583374099495e-01 2.254491898695698637e+01
2.803156902075649715e-01 2.371409128466871152e+01
2.812773220777199934e-01 2.513243939896034362e+01
2.822389539478750153e-01 2.409701872634860820e+01
2.832005858180300373e-01 2.475734332958273853e+01
2.841622176881850592e-01 2.577422779008344378e+01
2.851238495583400812e-01 2.658063346750753908e+01
2.860854814284951586e-01 2.745549334928642793e+01
2.870471132986501805e-01 2.550716423650146680e+01
2.880087451688051470e-01 2.320017230834179145e+01
2.889703770389601689e-01 2.473423809063541512e+01
2.899320089091152464e-01 2.444046372496950426e+01
2.908936407792702683e-01 2.436619721785723414e+01
2.918552726494252902e-01 2.248731245513175736e+01
2.928169045195803122e-01 1.929330335158579146e+01
2.937785363897353341e-01 1.942802280351997979e+01
2.947401682598903561e-01 2.175880109322724820e+01
2.957018001300453780e-01 1.954971810851731107e+01
2.966634320002003999e-01 1.665717330222940973e+01
2.976250638703554219e-01 1.850855672687345077e+01
2.985866957405104993e-01 1.883380518647908275e+01
2.995483276106654658e-01 1.694123991284993735e+01
3.005099594808204877e-01 1.555015635184759049e+01
3.014715913509755651e-01 1.857109332770215815e+01
3.024332232211305871e-01 1.846909155619414378e+01
3.033948550912856090e-01 1.569834944307547175e+01
3.043564869614405755e-01 1.875218718501571402e+01
3.053181188315956529e-01 1.990452479925323814e+01
3.062797507017506748e-01 1.822101733616312913e+01
3.072413825719056968e-01 1.876213807714981385e+01
3.082030144420607187e-01 1.921295703238422448e+01
3.091646463122157407e-01 2.019016409984317306e+01
3.101262781823707626e-01 2.076437825376802948e+01
3.110879100525257845e-01 2.014990578241173580e+01
3.120495419226808065e-01 2.028513870630706606e+01
3.130111737928358284e-01 1.928721433473930347e+01
3.139728056629909059e-01 1.876629636027962533e+01
3.149344375331459278e-01 1.965325157218575214e+01
3.158960694033008942e-01 1.965474865352894085e+01
3.168577012734559162e-01 1.865131264398104349e+01
3.178193331436109936e-01 1.907870046701026467e+01
3.187809650137660156e-01 1.949735316633626780e+01
3.197425968839210375e-01 1.813543661016797159e+01
3.207042287540760039e-01 1.983125306619399453e+01
3.216658606242310814e-01 2.078083823542124264e+01
3.226274924943861033e-01 2.014143251568236792e+01
3.235891243645411253e-01 1.897077611188097990e+01
3.245507562346961472e-01 2.016515755700851287e+01
3.255123881048511691e-01 2.053123220455705678e+01
3.264740199750061911e-01 1.855644314378804438e+01
3.274356518451612130e-01 1.882895273705599948e+01
3.283972837153162350e-01 1.909829044415272392e+01
3.293589155854712569e-01 1.802152344284945684e+01
3.303205474556263344e-01 1.792077994404490937e+01
3.312821793257813563e-01 1.632804428507728289e+01
3.322438111959363227e-01 1.563565970649705150e+01
3.332054430660913447e-01 1.666101206577013727e+01
3.341670749362464221e-01 1.652533885844303541e+01
3.351287068064014441e-01 1.554978113117152816e+01
3.360903386765564660e-01 1.477929101521107214e+01
3.370519705467114324e-01 1.619336196211327206e+01
3.380136024168665099e-01 1.742174558532809669e+01
3.389752342870215318e-01 1.582858126526923570e+01
3.399368661571765537e-01 1.552998145517238981e+01
3.408984980273315757e-01 1.451167159316713651e+01
3.418601298974865976e-01 1.480061842306565723e+01
3.428217617676416196e-01 1.462220435553166453e+01
3.437833936377966415e-01 1.555685859612202648e+01
3.447450255079516634e-01 1.412060085936371934e+01
3.457066573781066854e-01 1.271582532497143347e+01
3.466682892482617628e-01 1.302267464514869744e+01
3.476299211184167848e-01 1.605265756431509772e+01
3.485915529885717512e-01 1.426238194266011305e+01
3.495531848587267731e-01 1.476388925760227266e+01
3.505148167288818506e-01 1.565165471470777447e+01
3.514764485990368725e-01 1.583877509814510631e+01
3.524380804691918945e-01 1.593426361035409400e+01
3.533997123393468609e-01 1.556863078222608010e+01
3.543613442095019384e-01 1.375014506320349028e+01
3.553229760796569603e-01 1.449195914657173034e+01
3.562846079498119822e-01 1.361624410427583598e+01
3.572462398199670042e-01 1.323183370534900405e+01
3.582078716901220261e-01 1.494584820728340446e+01
3.591695035602770480e-01 1.437946685098660282e+01
3.601311354304320700e-01 1.123473016565480975e+01
3.610927673005870919e-01 1.315059062200595008e+01
3.620543991707421139e-01 1.482882442297454872e+01
3.630160310408971913e-01 1.373524064250534593e+01
3.639776629110522133e-01 1.336469937240713080e+01
3.649392947812071797e-01 1.385711879179194739e+01
3.659009266513622016e-01 1.580123201015857148e+01
3.668625585215172791e-01 1.525683550732304639e+01
3.678241903916723010e-01 1.364350668883440676e+01
3.687858222618273230e-01 1.313737062718638526e+01
3.697474541319822894e-01 1.435067035193759466e+01
3.707090860021373668e-01 1.460381367153604515e+01
3.716707178722923888e-01 1.408354767525020179e+01
3.726323497424474107e-01 1.379650031045969172e+01
3.735939816126024327e-01 1.419843699583469743e+01
3.745556134827574546e-01 1.296027564083289008e+01
3.755172453529124765e-01 1.419708815502269772e+01
3.764788772230674985e-01 1.604577608833426439e+01
3.774405090932225204e-01 1.641164146308665295e+01
3.784021409633775423e-01 1.495046227800895622e+01
3.793637728335326198e-01 1.324596875448770561e+01
3.803254047036876417e-01 1.288906608072539939e+01
3.812870365738426082e-01 1.371290557050713232e+01
3.822486684439976301e-01 1.566851414672180454e+01
3.832103003141527076e-01 1.329918163243797835e+01
3.841719321843077295e-01 1.390501985857400769e+01
3.851335640544627514e-01 1.580455239358622066e+01
3.860951959246177734e-01 1.610069690973170964e+01
3.870568277947727953e-01 1.598919534088241790e+01
3.880184596649278173e-01 1.413093351095847083e+01
3.889800915350828392e-01 1.414278263144683478e+01
3.899417234052378611e-01 1.499436636526525035e+01
3.909033552753928831e-01 1.552396232649243757e+01
3.918649871455479050e-01 1.454494327138070275e+01
3.928266190157029270e-01 1.464853421193214444e+01
3.937882508858579489e-01 1.419927444038074782e+01
3.947498827560129708e-01 1.705765040123992549e+01
3.957115146261680483e-01 1.555892636380156091e+01
3.966731464963230702e-01 1.295886491701469367e+01
3.976347783664780366e-01 1.151781477074916893e+01
3.985964102366330586e-01 1.362647209124992287e+01
3.995580421067881360e-01 1.357639265564347397e+01
4.005196739769430470e-01 1.340893257850120790e+01
4.014813058470981244e-01 1.450076644413252325e+01
4.024429377172531463e-01 1.625548901035335803e+01
4.034045695874082238e-01 1.532015657975955492e+01
