# q (1/Angstrom), Intensity (arb)
2.067508526570814575e-02 4.477920664924074572e+02
2.163671713586316769e-02 4.649734441598764079e+02
2.259834900601819310e-02 4.770471722346483148e+02
2.355998087617321851e-02 4.859433562672540461e+02
2.452161274632824739e-02 4.890045281953633207e+02
2.548324461648326933e-02 4.868957111200279542e+02
2.644487648663829821e-02 4.861466426077265055e+02
2.740650835679332709e-02 4.844638974081457832e+02
2.836814022694834903e-02 4.825129421165555641e+02
2.932977209710337443e-02 4.832868538167123234e+02
3.029140396725839637e-02 4.819747632422261177e+02
3.125303583741342178e-02 4.792736572741920895e+02
3.221466770756845066e-02 4.753450697015507558e+02
3.317629957772347260e-02 4.739637946292748438e+02
3.413793144787850148e-02 4.725971388982486019e+02
3.509956331803352342e-02 4.675756234581014610e+02
3.606119518818855230e-02 4.640496602951329805e+02
3.702282705834358117e-02 4.602861128361604415e+02
3.798445892849860311e-02 4.538801664871728008e+02
3.894609079865363199e-02 4.482955306437525564e+02
3.990772266880865393e-02 4.454235452578083141e+02
4.086935453896367587e-02 4.431091714540193607e+02
4.183098640911870475e-02 4.366755400640118978e+02
4.279261827927372669e-02 4.291498970165763467e+02
4.375425014942875557e-02 4.238211279756772001e+02
4.471588201958377751e-02 4.163837253368538427e+02
4.567751388973880639e-02 4.101391620416285377e+02
4.663914575989382832e-02 4.055147842851869200e+02
4.760077763004885720e-02 3.986459318972916890e+02
4.856240950020387914e-02 3.938610391510482600e+02
4.952404137035890108e-02 3.880857318831953648e+02
5.048567324051392302e-02 3.804358493356573945e+02
5.144730511066895190e-02 3.740018419597612365e+02
5.240893698082397384e-02 3.682180954817384304e+02
5.337056885097899578e-02 3.613872053089629617e+02
5.433220072113403160e-02 3.523420743476253278e+02
5.529383259128905354e-02 3.417614261419524269e+02
5.625546446144407547e-02 3.332826990369111968e+02
5.721709633159910435e-02 3.266551970640462059e+02
5.817872820175412629e-02 3.181674593150158330e+02
5.914036007190914823e-02 3.113110255226853269e+02
6.010199194206417017e-02 3.028730647806848424e+02
6.106362381221920599e-02 2.955964999798856070e+02
6.202525568237422793e-02 2.880605844638216695e+02
6.298688755252924987e-02 2.809286068346293632e+02
6.394851942268428568e-02 2.725563077452388256e+02
6.491015129283930762e-02 2.644429761573369433e+02
6.587178316299432956e-02 2.572126839926408479e+02
6.683341503314935150e-02 2.506408140978198276e+02
6.779504690330438732e-02 2.437858562635491921e+02
6.875667877345940926e-02 2.368607509095694468e+02
6.971831064361443120e-02 2.306934095148950234e+02
7.067994251376945314e-02 2.234677153706052195e+02
7.164157438392447508e-02 2.158088963699101726e+02
7.260320625407949702e-02 2.080265669661707477e+02
7.356483812423453283e-02 2.019225681932605312e+02
7.452646999438955477e-02 1.959417493607701886e+02
7.548810186454457671e-02 1.889000174648059840e+02
7.644973373469959865e-02 1.817960169906465637e+02
7.741136560485463447e-02 1.759455329064403486e+02
7.837299747500965641e-02 1.701162559410706479e+02
7.933462934516467835e-02 1.630835144728673640e+02
8.029626121531971417e-02 1.570741398963414497e+02
8.125789308547473611e-02 1.520339230644650002e+02
8.221952495562975805e-02 1.465908843112515569e+02
8.318115682578479386e-02 1.406772713661281102e+02
8.414278869593981580e-02 1.354065763352414535e+02
8.510442056609483774e-02 1.291972418081324747e+02
8.606605243624985968e-02 1.236788421832951030e+02
8.702768430640489550e-02 1.187713978777591564e+02
8.798931617655991744e-02 1.144986818044261838e+02
8.895094804671493938e-02 1.084108185202443764e+02
8.991257991686996132e-02 1.035711300048983787e+02
9.087421178702498326e-02 9.896982342650407816e+01
9.183584365718000520e-02 9.479949315315707281e+01
9.279747552733502713e-02 9.053851609632603470e+01
9.375910739749006295e-02 8.630349513105511505e+01
9.472073926764508489e-02 8.234605854459873342e+01
9.568237113780010683e-02 7.793439595265273567e+01
9.664400300795514265e-02 7.377295053416521853e+01
9.760563487811016459e-02 7.019999901298955081e+01
9.856726674826518653e-02 6.687229753620123063e+01
9.952889861842022234e-02 6.329666716574185870e+01
1.004905304885752443e-01 5.968622980321934790e+01
1.014521623587302801e-01 5.586143614985572725e+01
1.024137942288853020e-01 5.294234915058589053e+01
1.033754260990403240e-01 5.025387496378117902e+01
1.043370579691953459e-01 4.758524956672506789e+01
1.052986898393503817e-01 4.463389277639689823e+01
1.062603217095053898e-01 4.191635176486379066e+01
1.072219535796604256e-01 3.927578030228870176e+01
1.081835854498154614e-01 3.659086901431878402e+01
1.091452173199704695e-01 3.439590291371992947e+01
1.101068491901255053e-01 3.204489045542450754e+01
1.110684810602805411e-01 2.973301395540240222e+01
1.120301129304355492e-01 2.751241269341895190e+01
1.129917448005905850e-01 2.524991932170496156e+01
1.139533766707456208e-01 2.346533664131260011e+01
1.149150085409006289e-01 2.155421019627471679e+01
1.158766404110556647e-01 1.955236640635042633e+01
1.168382722812106728e-01 1.834461136228561173e+01
1.177999041513657086e-01 1.708790628570032055e+01
1.187615360215207305e-01 1.576825793894098382e+01
1.197231678916757525e-01 1.448631832843590672e+01
1.206847997618307744e-01 1.319571355358946363e+01
1.216464316319858102e-01 1.203992593977217851e+01
1.226080635021408183e-01 1.104192093831335697e+01
1.235696953722958541e-01 1.004693173400200479e+01
1.245313272424508899e-01 9.115550219840304891e+00
1.254929591126059119e-01 8.146860427247620606e+00
1.264545909827609338e-01 7.169137186857437172e+00
1.274162228529159557e-01 6.628284239770035668e+00
1.283778547230709777e-01 5.908964608916388528e+00
1.293394865932259996e-01 5.598424588107693722e+00
1.303011184633810493e-01 5.315345705806027610e+00
1.312627503335360435e-01 4.326699495757782898e+00
1.322243822036910932e-01 3.437622780423463809e+00
1.331860140738460874e-01 3.025851259096068446e+00
1.341476459440011371e-01 2.252434286146339559e+00
1.351092778141561590e-01 1.987732854431399687e+00
1.360709096843111809e-01 2.345632360493315360e+00
1.370325415544662029e-01 2.108462971067996961e+00
1.379941734246212526e-01 1.838184256003362549e+00
1.389558052947762468e-01 1.427163553101831184e+00
1.399174371649312965e-01 1.423543957483872191e+00
1.408790690350863184e-01 1.219020363397735451e+00
1.418407009052413403e-01 1.206924311317013832e+00
1.428023327753963623e-01 1.356768714205173865e+00
1.437639646455513842e-01 1.563147133255384347e+00
1.447255965157064062e-01 1.153593616076097561e+00
1.456872283858614281e-01 1.246477975082562750e+00
1.466488602560164778e-01 1.072843764595212690e+00
1.476104921261714720e-01 1.169266997168801225e+00
1.485721239963265217e-01 1.566671530655035838e+00
1.495337558664815436e-01 1.452266746417613774e+00
1.504953877366365655e-01 1.668576507673286358e+00
1.514570196067915875e-01 1.530111370440085494e+00
1.524186514769466094e-01 1.362674441226172206e+00
1.533802833471016314e-01 1.646530023250647901e+00
1.543419152172566811e-01 1.807816081631887783e+00
1.553035470874116752e-01 2.073084524701023668e+00
1.562651789575667249e-01 2.180433545408426710e+00
1.572268108277217469e-01 2.409602915442967230e+00
1.581884426978767688e-01 2.638393467647631496e+00
1.591500745680317908e-01 2.932453777774565395e+00
1.601117064381868405e-01 2.790589525463026632e+00
1.610733383083418346e-01 3.050028435528759019e+00
1.620349701784968843e-01 2.773042921022391027e+00
1.629966020486519063e-01 3.042205576477115869e+00
1.639582339188069282e-01 2.886290789611869911e+00
1.649198657889619501e-01 3.051435681469701677e+00
1.658814976591169721e-01 3.360838424500400379e+00
1.668431295292719940e-01 3.220292295306045105e+00
1.678047613994270160e-01 3.295162722905519814e+00
1.687663932695820379e-01 3.910927836291126169e+00
1.697280251397370598e-01 3.957495607809821792e+00
1.706896570098921095e-01 3.931918038309365926e+00
1.716512888800471037e-01 3.877220273277853124e+00
1.726129207502021534e-01 3.981617434444952863e+00
1.735745526203571754e-01 4.198980857609662110e+00
1.745361844905121973e-01 4.336006590916674952e+00
1.754978163606672192e-01 4.446980919498123797e+00
1.764594482308222689e-01 4.267150181312850066e+00
1.774210801009772631e-01 4.254769598616757520e+00
1.783827119711323128e-01 4.306382229932761874e+00
1.793443438412873348e-01 4.701048699178649315e+00
1.803059757114423567e-01 4.811691174457614295e+00
1.812676075815973786e-01 4.678786127801849659e+00
1.822292394517524006e-01 4.318095946649428640e+00
1.831908713219074225e-01 3.951551960002422703e+00
1.841525031920624444e-01 3.994093383409126119e+00
1.851141350622174664e-01 4.402531866089244517e+00
1.860757669323724883e-01 4.569023015975396618e+00
1.870373988025275380e-01 4.510461875506866392e+00
1.879990306726825322e-01 4.572544686585779061e+00
1.889606625428375819e-01 4.201212716582908513e+00
1.899222944129926038e-01 3.852242027250216694e+00
1.908839262831476258e-01 4.332401897247319056e+00
1.918455581533026477e-01 4.436326965797277921e+00
1.928071900234576974e-01 4.301038548514242166e+00
1.937688218936126916e-01 4.403746972412498906e+00
1.947304537637677413e-01 4.207784331866527339e+00
1.956920856339227632e-01 3.861969792606508634e+00
1.966537175040777852e-01 3.909707286849712915e+00
1.976153493742328071e-01 3.685388396203610029e+00
1.985769812443878291e-01 3.407813557450985797e+00
1.995386131145428510e-01 3.505572037916412143e+00
2.005002449846978729e-01 3.558134732099354380e+00
2.014618768548528949e-01 3.324377845516593766e+00
2.024235087250079168e-01 3.031495928735377987e+00
2.033851405951629665e-01 2.860972328629131312e+00
2.043467724653179884e-01 2.918810427416673292e+00
2.053084043354730381e-01 3.014523548970032607e+00
2.062700362056280046e-01 2.697790468236473060e+00
2.072316680757830543e-01 2.650838760995775090e+00
2.081932999459380762e-01 2.667200649561280557e+00
2.091549318160931259e-01 2.298437132381600634e+00
2.101165636862481478e-01 2.285708037232094370e+00
2.110781955564031698e-01 2.432355929999758359e+00
2.120398274265581640e-01 2.328172348138515702e+00
2.130014592967132137e-01 2.308263725358855822e+00
2.139630911668682356e-01 2.042844905308257353e+00
2.149247230370232575e-01 1.907541892589371457e+00
2.158863549071783072e-01 1.875179251420735937e+00
2.168479867773333014e-01 1.749617658624362804e+00
2.178096186474883234e-01 1.695092302135943640e+00
2.187712505176433453e-01 1.612824870649635756e+00
2.197328823877983950e-01 1.393460525626824875e+00
2.206945142579534169e-01 1.483844242806785729e+00
2.216561461281084666e-01 1.427538528194222778e+00
2.226177779982634330e-01 1.283932634064289147e+00
2.235794098684184827e-01 1.281834536674530511e+00
2.245410417385735047e-01 1.376093655306984687e+00
2.255026736087285544e-01 1.182718266817776254e+00
2.264643054788835763e-01 1.114895440867883281e+00
2.274259373490385983e-01 1.070970704588830813e+00
2.283875692191935924e-01 8.128695908585683583e-01
2.293492010893486421e-01 7.340652087216597010e-01
2.303108329595036641e-01 4.393422797690327286e-01
2.312724648296586860e-01 4.022818836893797823e-01
2.322340966998137357e-01 4.112066459377778926e-01
2.331957285699687299e-01 5.863973644989535217e-01
2.341573604401237518e-01 6.413078500310085417e-01
2.351189923102787738e-01 7.494098355341201056e-01
2.360806241804338235e-01 8.208196108574377092e-01
2.370422560505888454e-01 4.907543279720449902e-01
2.380038879207438951e-01 4.153710781251049866e-01
2.389655197908988615e-01 4.015033797823122086e-01
2.399271516610539112e-01 4.868364921266277179e-01
2.408887835312089332e-01 4.608808956980539051e-01
2.418504154013639829e-01 3.845411083478786907e-01
2.428120472715190048e-01 3.221205925174501772e-01
2.437736791416740267e-01 3.505586149106179050e-01
2.447353110118290209e-01 4.169138980696374119e-01
2.456969428819840706e-01 4.239836343835605703e-01
2.466585747521390926e-01 5.260692337297392385e-01
2.476202066222941145e-01 4.869669478704068410e-01
2.485818384924491642e-01 4.342708159513506416e-01
2.495434703626041584e-01 3.430220609734959680e-01
2.505051022327591803e-01 2.997941013201739224e-01
2.514667341029142023e-01 2.210582310432513964e-01
2.524283659730692242e-01 3.367634191933248644e-01
2.533899978432243016e-01 4.179321538619937826e-01
2.543516297133793236e-01 5.070140186435452279e-01
2.553132615835342900e-01 5.047882884021674954e-01
2.562748934536893120e-01 4.444990021046741902e-01
2.572365253238443894e-01 7.950290935867343478e-02
2.581981571939994113e-01 3.203703195484983723e-01
2.591597890641544333e-01 4.931746739797802093e-01
2.601214209343094552e-01 4.463221535341581614e-01
2.610830528044644772e-01 3.535802746659193474e-01
2.620446846746194991e-01 5.666725978903208727e-01
2.630063165447745210e-01 5.971839611715417107e-01
2.639679484149295430e-01 6.435009842291137261e-01
2.649295802850845649e-01 5.380548328290970517e-01
2.658912121552395869e-01 5.813662512788368986e-01
2.668528440253946088e-01 6.205300822496155888e-01
2.678144758955496307e-01 6.829133146459263060e-01
2.687761077657046527e-01 5.617563234305258391e-01
2.697377396358597301e-01 2.866830918252496474e-01
2.706993715060147521e-01 4.495768910765534088e-01
2.716610033761697185e-01 4.117299090849648735e-01
2.726226352463247404e-01 3.737767086026941854e-01
2.735842671164798179e-01 5.797579509433532508e-01
2.745458989866348398e-01 8.925371760718618930e-01
2.755075308567898618e-01 7.800528333469145537e-01
2.764691627269448837e-01 7.455713257940779215e-01
2.774307945970999056e-01 7.785539699538368552e-01
2.783924264672549276e-01 8.067342767750567134e-01
2.793540583374099495e-01 6.946983816845566650e-01
2.803156902075649715e-01 7.036911421458995619e-01
2.812773220777199934e-01 7.127702351480493803e-01
2.822389539478750153e-01 8.667638126585579528e-01
2.832005858180300373e-01 8.491313610966955139e-01
2.841622176881850592e-01 9.990967361432225857e-01
2.851238495583400812e-01 8.945422680100421076e-01
2.860854814284951586e-01 1.013127922583631602e+00
2.870471132986501805e-01 8.462480102814424754e-01
2.880087451688051470e-01 8.482674959497060740e-01
2.889703770389601689e-01 6.578669163162942368e-01
2.899320089091152464e-01 7.375978054740421896e-01
2.908936407792702683e-01 7.072047758798944983e-01
2.918552726494252902e-01 8.400503789997273429e-01
2.928169045195803122e-01 9.217895858077618243e-01
2.937785363897353341e-01 8.302990034424979626e-01
2.947401682598903561e-01 8.216958467283710377e-01
2.957018001300453780e-01 6.809343070416495891e-01
2.966634320002003999e-01 7.146688071567055545e-01
2.976250638703554219e-01 8.634746124363239517e-01
2.985866957405104993e-01 6.966874741439781360e-01
2.995483276106654658e-01 5.216435888961719058e-01
3.005099594808204877e-01 5.163263380867881835e-01
3.014715913509755651e-01 4.714460174976231599e-01
3.024332232211305871e-01 6.577180846696393246e-01
3.033948550912856090e-01 7.144371498842048140e-01
3.043564869614405755e-01 4.223280742480000072e-01
3.053181188315956529e-01 4.482912517579649148e-01
3.062797507017506748e-01 5.020091574544913726e-01
3.072413825719056968e-01 4.734650860899982661e-01
3.082030144420607187e-01 5.923862974145741589e-01
3.091646463122157407e-01 5.887196422250475791e-01
3.101262781823707626e-01 5.416623094874921662e-01
3.110879100525257845e-01 6.585260543879272177e-01
3.120495419226808065e-01 6.718869513564555973e-01
3.130111737928358284e-01 5.253652656691940592e-01
3.139728056629909059e-01 4.280230535031464001e-01
3.149344375331459278e-01 4.762289730842041990e-01
3.158960694033008942e-01 3.050413134741383203e-01
3.168577012734559162e-01 2.334331936002058683e-01
3.178193331436109936e-01 5.498935936212951958e-01
3.187809650137660156e-01 5.219913391770880651e-01
3.197425968839210375e-01 3.948383010764544565e-01
3.207042287540760039e-01 4.113074758154482424e-01
3.216658606242310814e-01 2.868872282642982441e-01
3.226274924943861033e-01 1.807744232984909161e-01
3.235891243645411253e-01 3.549138595994669743e-01
3.245507562346961472e-01 7.462431489614829161e-02
3.255123881048511691e-01 3.082043443607496158e-01
3.264740199750061911e-01 2.931207507654534083e-01
3.274356518451612130e-01 1.643226206463239691e-01
3.283972837153162350e-01 2.395153274129597776e-01
3.293589155854712569e-01 3.083634526162555289e-01
3.303205474556263344e-01 1.910498698099445392e-01
3.312821793257813563e-01 2.528790142069716751e-01
3.322438111959363227e-01 5.030878336474451373e-01
3.332054430660913447e-01 1.717340960733828581e-01
3.341670749362464221e-01 9.527582975716697433e-02
3.351287068064014441e-01 1.303780223255586179e-01
3.360903386765564660e-01 2.610564849858185710e-01
3.370519705467114324e-01 3.686300000297251245e-01
3.380136024168665099e-01 4.820035555210040457e-01
3.389752342870215318e-01 5.679317559444569952e-01
3.399368661571765537e-01 5.227420654774732611e-01
3.408984980273315757e-01 1.891659764888729001e-01
3.418601298974865976e-01 1.927481377359256953e-01
3.428217617676416196e-01 2.333410126566484166e-01
3.437833936377966415e-01 2.597994224007074138e-01
3.447450255079516634e-01 2.297398776401529119e-01
3.457066573781066854e-01 2.123275276198164363e-01
3.466682892482617628e-01 2.688454093373309206e-01
3.476299211184167848e-01 2.247333357547169896e-01
3.485915529885717512e-01 3.349104886608174070e-01
3.495531848587267731e-01 2.651965855376374748e-01
3.505148167288818506e-01 2.523667156861861827e-01
3.514764485990368725e-01 2.603953801217429032e-01
3.524380804691918945e-01 3.506510076083166894e-01
3.533997123393468609e-01 3.570517628964431367e-01
3.543613442095019384e-01 1.900484566713274148e-01
3.553229760796569603e-01 1.182920498368282836e-01
3.562846079498119822e-01 1.880344658559920390e-01
3.572462398199670042e-01 9.748754522222924379e-02
3.582078716901220261e-01 7.920375162398229918e-02
3.591695035602770480e-01 7.899600450009103270e-02
3.601311354304320700e-01 1.316428175528265854e-01
3.610927673005870919e-01 2.007449922512734020e-01
3.620543991707421139e-01 2.265838850034391783e-01
3.630160310408971913e-01 2.664960762122809967e-01
3.639776629110522133e-01 7.592479279346058263e-01
3.649392947812071797e-01 5.520029795669465500e-01
3.659009266513622016e-01 3.003157162321450357e-01
3.668625585215172791e-01 3.588816719071523664e-01
3.678241903916723010e-01 4.914107149330355639e-01
3.687858222618273230e-01 3.601386047441863525e-01
3.697474541319822894e-01 2.603823903447874955e-01
3.707090860021373668e-01 2.737288893949916257e-01
3.716707178722923888e-01 3.227111294887912152e-01
3.726323497424474107e-01 2.199375687541547109e-01
3.735939816126024327e-01 3.427403901440655432e-01
3.745556134827574546e-01 4.049007827382204994e-01
3.755172453529124765e-01 3.701028880182164471e-01
3.764788772230674985e-01 5.537914865396587061e-02
3.774405090932225204e-01 0.000000000000000000e+00
3.784021409633775423e-01 2.618437295404731913e-01
3.793637728335326198e-01 2.199827696243765729e-01
3.803254047036876417e-01 1.886807887092771807e-01
3.812870365738426082e-01 1.969550739294128050e-01
3.822486684439976301e-01 2.263341660024131841e-01
3.832103003141527076e-01 3.597614642530011508e-01
3.841719321843077295e-01 2.743189455273977728e-01
3.851335640544627514e-01 3.677341436549994569e-01
3.860951959246177734e-01 5.104593403818000752e-01
3.870568277947727953e-01 4.008083629014009830e-01
3.880184596649278173e-01 1.595201246488855418e-01
3.889800915350828392e-01 2.478225905607729374e-01
3.899417234052378611e-01 2.865416024865510281e-01
3.909033552753928831e-01 1.870825401060010051e-01
3.918649871455479050e-01 2.553607431796933724e-01
3.928266190157029270e-01 4.993035318691951829e-01
3.937882508858579489e-01 3.039549176720264256e-01
3.947498827560129708e-01 1.607009550942777310e-01
3.957115146261680483e-01 2.608731006424633847e-01
3.966731464963230702e-01 2.954734158587264403e-01
3.976347783664780366e-01 3.895919181552081056e-01
3.985964102366330586e-01 1.949511140587851799e-01
3.995580421067881360e-01 3.827493063689146879e-01
4.005196739769430470e-01 3.739073546610072185e-01
4.014813058470981244e-01 3.883677807736241050e-01
4.024429377172531463e-01 3.841726408970842499e-01
4.034045695874082238e-01 5.518674557646150447e-01
