# q (1/Angstrom), Intensity (arb)
2.067508526570814575e-02 4.597113288715258932e+02
2.163671713586316769e-02 4.826737932490090088e+02
2.259834900601819310e-02 4.978893643732325245e+02
2.355998087617321851e-02 5.041149369059141918e+02
2.452161274632824739e-02 5.054695282506947933e+02
2.548324461648326933e-02 5.062816132178261341e+02
2.644487648663829821e-02 5.031455922137831749e+02
2.740650835679332709e-02 5.019656321955939120e+02
2.836814022694834903e-02 5.027404384201508947e+02
2.932977209710337443e-02 5.002472081022381190e+02
3.029140396725839637e-02 4.981681901295028183e+02
3.125303583741342178e-02 4.954841235623327407e+02
3.221466770756845066e-02 4.897973370890053957e+02
3.317629957772347260e-02 4.849831584392591708e+02
3.413793144787850148e-02 4.861048824516583977e+02
3.509956331803352342e-02 4.824881074352821315e+02
3.606119518818855230e-02 4.773529562952705874e+02
3.702282705834358117e-02 4.732747937801917715e+02
3.798445892849860311e-02 4.643481223928597501e+02
3.894609079865363199e-02 4.621761136414264683e+02
3.990772266880865393e-02 4.579587273071070399e+02
4.086935453896367587e-02 4.539658453102492217e+02
4.183098640911870475e-02 4.478295910519308904e+02
4.279261827927372669e-02 4.420149342865690301e+02
4.375425014942875557e-02 4.362448697377029134e+02
4.471588201958377751e-02 4.294058785170617512e+02
4.567751388973880639e-02 4.226741970739656153e+02
4.663914575989382832e-02 4.158260619231872965e+02
4.760077763004885720e-02 4.100599525687319442e+02
4.856240950020387914e-02 4.046644866612595592e+02
4.952404137035890108e-02 3.967403455994069077e+02
5.048567324051392302e-02 3.910972875776025148e+02
5.144730511066895190e-02 3.854760958246002360e+02
5.240893698082397384e-02 3.784589566280148460e+02
5.337056885097899578e-02 3.708008170079893375e+02
5.433220072113403160e-02 3.611712578945270593e+02
5.529383259128905354e-02 3.521826693586069723e+02
5.625546446144407547e-02 3.438855380393146675e+02
5.721709633159910435e-02 3.359206763238714757e+02
5.817872820175412629e-02 3.288857494866617799e+02
5.914036007190914823e-02 3.220192306251929040e+02
6.010199194206417017e-02 3.129761605459074190e+02
6.106362381221920599e-02 3.042041812841420096e+02
6.202525568237422793e-02 2.956316385543599381e+02
6.298688755252924987e-02 2.885694733614659526e+02
6.394851942268428568e-02 2.805265342847359875e+02
6.491015129283930762e-02 2.731131054101243194e+02
6.587178316299432956e-02 2.642617472115231863e+02
6.683341503314935150e-02 2.569900896297862687e+02
6.779504690330438732e-02 2.501677215467762210e+02
6.875667877345940926e-02 2.424515715838346921e+02
6.971831064361443120e-02 2.351869022692093552e+02
7.067994251376945314e-02 2.283984536393301141e+02
7.164157438392447508e-02 2.217544629357290091e+02
7.260320625407949702e-02 2.148562298724419861e+02
7.356483812423453283e-02 2.074908322693901255e+02
7.452646999438955477e-02 2.000837164340904906e+02
7.548810186454457671e-02 1.934178234062278818e+02
7.644973373469959865e-02 1.872226792552657457e+02
7.741136560485463447e-02 1.818654024652112184e+02
7.837299747500965641e-02 1.741529339389620361e+02
7.933462934516467835e-02 1.683067784399474363e+02
8.029626121531971417e-02 1.627711665485086030e+02
8.125789308547473611e-02 1.559924391464265909e+02
8.221952495562975805e-02 1.498322191505533851e+02
8.318115682578479386e-02 1.437383734401100810e+02
8.414278869593981580e-02 1.392591105092391501e+02
8.510442056609483774e-02 1.326817110465039207e+02
8.606605243624985968e-02 1.268270551036526257e+02
8.702768430640489550e-02 1.218215098934221885e+02
8.798931617655991744e-02 1.178010556279019454e+02
8.895094804671493938e-02 1.117459010165388378e+02
8.991257991686996132e-02 1.062920777003298127e+02
9.087421178702498326e-02 1.019191207595148683e+02
9.183584365718000520e-02 9.729116943980712051e+01
9.279747552733502713e-02 9.309854116640414645e+01
9.375910739749006295e-02 8.853111011532462271e+01
9.472073926764508489e-02 8.375779725666347986e+01
9.568237113780010683e-02 7.977410767489945442e+01
9.664400300795514265e-02 7.633022388213501586e+01
9.760563487811016459e-02 7.193719020681210452e+01
9.856726674826518653e-02 6.783986279849858647e+01
9.952889861842022234e-02 6.412166427766342736e+01
1.004905304885752443e-01 6.137730654875252867e+01
1.014521623587302801e-01 5.756864949043345803e+01
1.024137942288853020e-01 5.377163767299398955e+01
1.033754260990403240e-01 5.057138082967175308e+01
1.043370579691953459e-01 4.804188704976877489e+01
1.052986898393503817e-01 4.518266935453451083e+01
1.062603217095053898e-01 4.239246858954351183e+01
1.072219535796604256e-01 4.005904179154399003e+01
1.081835854498154614e-01 3.727301697032149974e+01
1.091452173199704695e-01 3.508281948967791664e+01
1.101068491901255053e-01 3.275606464370103765e+01
1.110684810602805411e-01 3.048069199825016184e+01
1.120301129304355492e-01 2.825704433758078693e+01
1.129917448005905850e-01 2.556021011560406819e+01
1.139533766707456208e-01 2.406015991747924332e+01
1.149150085409006289e-01 2.299171567470262545e+01
1.158766404110556647e-01 2.124473500851336993e+01
1.168382722812106728e-01 1.942469439729649494e+01
1.177999041513657086e-01 1.793950008532091545e+01
1.187615360215207305e-01 1.653479093145075396e+01
1.197231678916757525e-01 1.481731781927613767e+01
1.206847997618307744e-01 1.338869394914090094e+01
1.216464316319858102e-01 1.226565783091031037e+01
1.226080635021408183e-01 1.115637450795773589e+01
1.235696953722958541e-01 1.010884275759013562e+01
1.245313272424508899e-01 9.140498880423542971e+00
1.254929591126059119e-01 8.211340642802664291e+00
1.264545909827609338e-01 7.534791278328135888e+00
1.274162228529159557e-01 6.815134207454629944e+00
1.283778547230709777e-01 5.906991409472738042e+00
1.293394865932259996e-01 5.168500539755982004e+00
1.303011184633810493e-01 4.325076246282275605e+00
1.312627503335360435e-01 4.011942906461413827e+00
1.322243822036910932e-01 3.678765211194523488e+00
1.331860140738460874e-01 3.337389816205028836e+00
1.341476459440011371e-01 2.565615057672374633e+00
1.351092778141561590e-01 2.092231642839102790e+00
1.360709096843111809e-01 2.032792226176752592e+00
1.370325415544662029e-01 1.986074054690284640e+00
1.379941734246212526e-01 1.456283633158808044e+00
1.389558052947762468e-01 1.166369017460876734e+00
1.399174371649312965e-01 1.436361014052863538e+00
1.408790690350863184e-01 1.012566071165412751e+00
1.418407009052413403e-01 6.677589975198365835e-01
1.428023327753963623e-01 9.904349847286049169e-01
1.437639646455513842e-01 1.135688881705391395e+00
1.447255965157064062e-01 1.266400336613287436e+00
1.456872283858614281e-01 9.941204201574471711e-01
1.466488602560164778e-01 1.099090691250303564e+00
1.476104921261714720e-01 1.255965929749422116e+00
1.485721239963265217e-01 1.396053517762648966e+00
1.495337558664815436e-01 1.387120277106344446e+00
1.504953877366365655e-01 1.666220871907942325e+00
1.514570196067915875e-01 1.764929820411168748e+00
1.524186514769466094e-01 2.699983356635147658e+00
1.533802833471016314e-01 3.125052956372506685e+00
1.543419152172566811e-01 2.064639423543024321e+00
1.553035470874116752e-01 1.919754635807898069e+00
1.562651789575667249e-01 2.402555492027936168e+00
1.572268108277217469e-01 2.570505909231787456e+00
1.581884426978767688e-01 2.570775501395647922e+00
1.591500745680317908e-01 2.527776485099561654e+00
1.601117064381868405e-01 2.598301561601516596e+00
1.610733383083418346e-01 3.220973597508550057e+00
1.620349701784968843e-01 3.083456148215496739e+00
1.629966020486519063e-01 3.086337408223212009e+00
1.639582339188069282e-01 3.096161496002608260e+00
1.649198657889619501e-01 3.241048269606174870e+00
1.658814976591169721e-01 3.381491448942771427e+00
1.668431295292719940e-01 3.670595089261528443e+00
1.678047613994270160e-01 3.690246337205834948e+00
1.687663932695820379e-01 3.590952529370227353e+00
1.697280251397370598e-01 3.730744929183327230e+00
1.706896570098921095e-01 3.450998291935384543e+00
1.716512888800471037e-01 3.846684700213394592e+00
1.726129207502021534e-01 4.072541240911760951e+00
1.735745526203571754e-01 4.203777308223834552e+00
1.745361844905121973e-01 4.089438299867612869e+00
1.754978163606672192e-01 4.197208834076690209e+00
1.764594482308222689e-01 4.107186432735808523e+00
1.774210801009772631e-01 4.164271300497215833e+00
1.783827119711323128e-01 4.367939583481760479e+00
1.793443438412873348e-01 4.973891222736245510e+00
1.803059757114423567e-01 4.951377513520810680e+00
1.812676075815973786e-01 4.520550375800205245e+00
1.822292394517524006e-01 4.616967974941331931e+00
1.831908713219074225e-01 4.709854930976991483e+00
1.841525031920624444e-01 4.555348819618096456e+00
1.851141350622174664e-01 4.468628705358931086e+00
1.860757669323724883e-01 4.671803984399701903e+00
1.870373988025275380e-01 4.469576795669507163e+00
1.879990306726825322e-01 4.610694509512519801e+00
1.889606625428375819e-01 4.637780645848732064e+00
1.899222944129926038e-01 4.169301948468518759e+00
1.908839262831476258e-01 4.033568264031522688e+00
1.918455581533026477e-01 3.992712611675351297e+00
1.928071900234576974e-01 4.024347902531559384e+00
1.937688218936126916e-01 3.971898180196212991e+00
1.947304537637677413e-01 3.838106978573435413e+00
1.956920856339227632e-01 3.876535335307835339e+00
1.966537175040777852e-01 4.044519353492507463e+00
1.976153493742328071e-01 3.949498675893718058e+00
1.985769812443878291e-01 3.706818530021468661e+00
1.995386131145428510e-01 3.423597705337755315e+00
2.005002449846978729e-01 3.698370750497002035e+00
2.014618768548528949e-01 3.715417604207232216e+00
2.024235087250079168e-01 3.551105659533508430e+00
2.033851405951629665e-01 3.229356769963551699e+00
2.043467724653179884e-01 3.048772308831772193e+00
2.053084043354730381e-01 2.920531913467872442e+00
2.062700362056280046e-01 2.565039859045423754e+00
2.072316680757830543e-01 2.571709945732241209e+00
2.081932999459380762e-01 2.785769827033526269e+00
2.091549318160931259e-01 2.589734933948090401e+00
2.101165636862481478e-01 2.469186739295935240e+00
2.110781955564031698e-01 2.311871248155689784e+00
2.120398274265581640e-01 2.160345816143355080e+00
2.130014592967132137e-01 2.177560196604012788e+00
2.139630911668682356e-01 2.082629529383105194e+00
2.149247230370232575e-01 2.119829627692261909e+00
2.158863549071783072e-01 1.676182315093498687e+00
2.168479867773333014e-01 1.712146689769120655e+00
2.178096186474883234e-01 1.703903880060476439e+00
2.187712505176433453e-01 1.575963649667624367e+00
2.197328823877983950e-01 1.296440600684356070e+00
2.206945142579534169e-01 1.278623275891941802e+00
2.216561461281084666e-01 1.211359370108887390e+00
2.226177779982634330e-01 1.136437079233203917e+00
2.235794098684184827e-01 1.125601058030596846e+00
2.245410417385735047e-01 1.109982009366810018e+00
2.255026736087285544e-01 9.903362679971401406e-01
2.264643054788835763e-01 9.363071980019910256e-01
2.274259373490385983e-01 1.135530104337906465e+00
2.283875692191935924e-01 8.770195355878520616e-01
2.293492010893486421e-01 8.543923107774524794e-01
2.303108329595036641e-01 6.271908529967511470e-01
2.312724648296586860e-01 5.726554355684001507e-01
2.322340966998137357e-01 4.081222872700536186e-01
2.331957285699687299e-01 3.447874414218574657e-01
2.341573604401237518e-01 6.684183758842010548e-01
2.351189923102787738e-01 6.339036121926362455e-01
2.360806241804338235e-01 4.547820632891088621e-01
2.370422560505888454e-01 4.381295060332170976e-01
2.380038879207438951e-01 2.415638096278343028e-01
2.389655197908988615e-01 9.014622722451548498e-02
2.399271516610539112e-01 3.520420009856479737e-01
2.408887835312089332e-01 4.842353887374137855e-01
2.418504154013639829e-01 2.148551764371902095e-01
2.428120472715190048e-01 4.818521162739131114e-02
2.437736791416740267e-01 1.460837325778818752e-01
2.447353110118290209e-01 4.944072084273933854e-01
2.456969428819840706e-01 4.834860904602962250e-01
2.466585747521390926e-01 5.402269647238675532e-01
2.476202066222941145e-01 3.537994872560759063e-01
2.485818384924491642e-01 4.007909344327451606e-01
2.495434703626041584e-01 5.797736064737897266e-01
2.505051022327591803e-01 5.814635444360654049e-01
2.514667341029142023e-01 3.144724922879511553e-01
2.524283659730692242e-01 3.640111192240631510e-01
2.533899978432243016e-01 3.095802595186292194e-01
2.543516297133793236e-01 2.512382224703628708e-01
2.553132615835342900e-01 2.879817178420616131e-01
2.562748934536893120e-01 4.482625181792094793e-01
2.572365253238443894e-01 3.681149247179824613e-01
2.581981571939994113e-01 3.416489670053621808e-01
2.591597890641544333e-01 2.585855185765240094e-01
2.601214209343094552e-01 3.795698047319184809e-01
2.610830528044644772e-01 5.805665035908305072e-01
2.620446846746194991e-01 6.004832112249154363e-01
2.630063165447745210e-01 5.040085136398211318e-01
2.639679484149295430e-01 7.560790581979652814e-01
2.649295802850845649e-01 5.795929216236466175e-01
2.658912121552395869e-01 3.792147867296584707e-01
2.668528440253946088e-01 7.551348696466497756e-01
2.678144758955496307e-01 8.056011575534576252e-01
2.687761077657046527e-01 5.440506792876860231e-01
2.697377396358597301e-01 5.161747563421030804e-01
2.706993715060147521e-01 6.445393919663686688e-01
2.716610033761697185e-01 6.116295480149247510e-01
2.726226352463247404e-01 4.547756796841397886e-01
2.735842671164798179e-01 6.758049522787601404e-01
2.745458989866348398e-01 7.099955226774312678e-01
2.755075308567898618e-01 7.764246080329471056e-01
2.764691627269448837e-01 5.609637965062574949e-01
2.774307945970999056e-01 5.836907622578131338e-01
2.783924264672549276e-01 6.256454970796383463e-01
2.793540583374099495e-01 6.240336591517348097e-01
2.803156902075649715e-01 6.698133748161545498e-01
2.812773220777199934e-01 7.013091225880110358e-01
2.822389539478750153e-01 6.554775103638732503e-01
2.832005858180300373e-01 5.949295636556719558e-01
2.841622176881850592e-01 8.795655402535942358e-01
2.851238495583400812e-01 7.224156146277387336e-01
2.860854814284951586e-01 6.804330732158021533e-01
2.870471132986501805e-01 8.497403514343275788e-01
2.880087451688051470e-01 7.803798924038005680e-01
2.889703770389601689e-01 5.723668688523737558e-01
2.899320089091152464e-01 6.192850649745551550e-01
2.908936407792702683e-01 7.869373292445054346e-01
2.918552726494252902e-01 5.523601276638778756e-01
2.928169045195803122e-01 6.975220715758432277e-01
2.937785363897353341e-01 9.148777951316162671e-01
2.947401682598903561e-01 8.168510649677251934e-01
2.957018001300453780e-01 7.801132914649642203e-01
2.966634320002003999e-01 7.285415860646224928e-01
2.976250638703554219e-01 6.759217301283797497e-01
2.985866957405104993e-01 7.759644932181579691e-01
2.995483276106654658e-01 5.377848740583885956e-01
3.005099594808204877e-01 5.440307976374967325e-01
3.014715913509755651e-01 5.705598851574578134e-01
3.024332232211305871e-01 4.683460568197794771e-01
3.033948550912856090e-01 3.814184530616877566e-01
3.043564869614405755e-01 4.916742144078369847e-01
3.053181188315956529e-01 6.959651917416849187e-01
3.062797507017506748e-01 7.414271025515191127e-01
3.072413825719056968e-01 4.810864072835556726e-01
3.082030144420607187e-01 6.341199391138303554e-01
3.091646463122157407e-01 6.734786131739127768e-01
3.101262781823707626e-01 7.186971863441939945e-01
3.110879100525257845e-01 6.821107757695195062e-01
3.120495419226808065e-01 5.808963710531003244e-01
3.130111737928358284e-01 3.581099083785339587e-01
3.139728056629909059e-01 4.402484092859886289e-01
3.149344375331459278e-01 4.098866530591216417e-01
3.158960694033008942e-01 5.657966473006936781e-01
3.168577012734559162e-01 5.385290196573180310e-01
3.178193331436109936e-01 6.147782488568900305e-01
3.187809650137660156e-01 5.974151139602987826e-01
3.197425968839210375e-01 5.125743654899181934e-01
3.207042287540760039e-01 3.422810690833415492e-01
3.216658606242310814e-01 2.999985742813038314e-01
3.226274924943861033e-01 3.086633310227426819e-01
3.235891243645411253e-01 2.105606110976552259e-01
3.245507562346961472e-01 2.141650106883794535e-01
3.255123881048511691e-01 4.584923938270115684e-01
3.264740199750061911e-01 6.198725994595619682e-01
3.274356518451612130e-01 5.604012974571475070e-01
3.283972837153162350e-01 3.977085971650780039e-01
3.293589155854712569e-01 2.105344414515322171e-01
3.303205474556263344e-01 1.404923730813152360e-01
3.312821793257813563e-01 4.213794257288654421e-01
3.322438111959363227e-01 6.115783117908328848e-01
3.332054430660913447e-01 9.347039772517291567e-01
3.341670749362464221e-01 4.911696319131451105e-01
3.351287068064014441e-01 4.199329900404187299e-01
3.360903386765564660e-01 3.364853211645524311e-01
3.370519705467114324e-01 3.134390012700336570e-01
3.380136024168665099e-01 2.368116030545195372e-01
3.389752342870215318e-01 1.712294338396560534e-01
3.399368661571765537e-01 2.537967296522616323e-01
3.408984980273315757e-01 3.385185855493695328e-01
3.418601298974865976e-01 2.938289476798949806e-01
3.428217617676416196e-01 2.968225882085135936e-01
3.437833936377966415e-01 2.282781813111611768e-01
3.447450255079516634e-01 1.474623016295204536e-01
3.457066573781066854e-01 3.362859406133971163e-01
3.466682892482617628e-01 4.405662458769761258e-01
3.476299211184167848e-01 2.841213630229049159e-01
3.485915529885717512e-01 2.863330266557824189e-01
3.495531848587267731e-01 1.859796717504487162e-01
3.505148167288818506e-01 6.548204557462966591e-02
3.514764485990368725e-01 1.320620162153147703e-01
3.524380804691918945e-01 1.627517062439487461e-01
3.533997123393468609e-01 1.931560568678882817e-01
3.543613442095019384e-01 1.843446126478660574e-01
3.553229760796569603e-01 2.900151061336799785e-01
3.562846079498119822e-01 1.803930095455292815e-01
3.572462398199670042e-01 8.253995544768599757e-02
3.582078716901220261e-01 3.043761162700810985e-01
3.591695035602770480e-01 2.078047464406047595e-01
3.601311354304320700e-01 3.390631756737860769e-02
3.610927673005870919e-01 2.075038986780697314e-01
3.620543991707421139e-01 4.527097026116138068e-01
3.630160310408971913e-01 2.250041628178607311e-01
3.639776629110522133e-01 1.898633731383334577e-01
3.649392947812071797e-01 2.015885813121407466e-01
3.659009266513622016e-01 1.375652912558251728e-01
3.668625585215172791e-01 3.371667801254361052e-01
3.678241903916723010e-01 4.717625397879992022e-01
3.687858222618273230e-01 2.991782729066052582e-01
3.697474541319822894e-01 2.762188458160892424e-01
3.707090860021373668e-01 2.141641037174046858e-01
3.716707178722923888e-01 2.344953270294780623e-01
3.726323497424474107e-01 2.906181511088696823e-01
3.735939816126024327e-01 3.743233349355215012e-01
3.745556134827574546e-01 3.874924246474691358e-01
3.755172453529124765e-01 4.320593203585545439e-01
3.764788772230674985e-01 5.264836569708322145e-01
3.774405090932225204e-01 4.580233021293658169e-01
3.784021409633775423e-01 3.120137718926372372e-01
3.793637728335326198e-01 3.517279734131513180e-01
3.803254047036876417e-01 3.013000838125137193e-01
3.812870365738426082e-01 3.046229628012113722e-01
3.822486684439976301e-01 2.514618229562763929e-01
3.832103003141527076e-01 2.731676167589007775e-01
3.841719321843077295e-01 1.524014648975295927e-01
3.851335640544627514e-01 2.255563648557270540e-01
3.860951959246177734e-01 3.102457812770076373e-01
3.870568277947727953e-01 3.740305099121812304e-01
3.880184596649278173e-01 4.150203584964984316e-01
3.889800915350828392e-01 4.035820230534490349e-01
3.899417234052378611e-01 2.737736430664270415e-01
3.909033552753928831e-01 3.161494775893984865e-01
3.918649871455479050e-01 4.029337642008030684e-01
3.928266190157029270e-01 3.197935851750060010e-01
3.937882508858579489e-01 3.699381689944267748e-01
3.947498827560129708e-01 3.835046187555057884e-01
3.957115146261680483e-01 2.241743401250175793e-01
3.966731464963230702e-01 2.090121549621173358e-01
3.976347783664780366e-01 1.908103293288014868e-01
3.985964102366330586e-01 2.382641977381005916e-01
3.995580421067881360e-01 3.465330173969682903e-01
4.005196739769430470e-01 3.640577652990550916e-01
4.014813058470981244e-01 4.086390486032946967e-01
4.024429377172531463e-01 4.511336731723041282e-01
4.034045695874082238e-01 4.557297655958549853e-01
