# q (1/Angstrom), Intensity (arb)
2.067508526570814575e-02 4.547959749044867976e+02
2.163671713586316769e-02 4.732972567737493250e+02
2.259834900601819310e-02 4.864882906089480343e+02
2.355998087617321851e-02 4.939274811012894020e+02
2.452161274632824739e-02 4.971618827604340254e+02
2.548324461648326933e-02 4.988446043368115852e+02
2.644487648663829821e-02 4.960209718457271038e+02
2.740650835679332709e-02 4.953706734626900925e+02
2.836814022694834903e-02 4.919383835060347678e+02
2.932977209710337443e-02 4.883303836796097812e+02
3.029140396725839637e-02 4.882229998670957798e+02
3.125303583741342178e-02 4.861301819781658651e+02
3.221466770756845066e-02 4.847984203425752412e+02
3.317629957772347260e-02 4.793116602816885461e+02
3.413793144787850148e-02 4.751622112525018338e+02
3.509956331803352342e-02 4.722055925269376644e+02
3.606119518818855230e-02 4.690627047047134397e+02
3.702282705834358117e-02 4.635275830517110762e+02
3.798445892849860311e-02 4.567030623658179138e+02
3.894609079865363199e-02 4.552830491629725884e+02
3.990772266880865393e-02 4.502787242988093794e+02
4.086935453896367587e-02 4.442269761098991694e+02
4.183098640911870475e-02 4.415335549444160961e+02
4.279261827927372669e-02 4.347407553244470364e+02
4.375425014942875557e-02 4.282161102708533917e+02
4.471588201958377751e-02 4.230710263400486042e+02
4.567751388973880639e-02 4.172866240345228448e+02
4.663914575989382832e-02 4.108963446373001034e+02
4.760077763004885720e-02 4.033816442921490761e+02
4.856240950020387914e-02 3.954290018036517154e+02
4.952404137035890108e-02 3.893942786083994179e+02
5.048567324051392302e-02 3.856121802114292336e+02
5.144730511066895190e-02 3.792599159208754145e+02
5.240893698082397384e-02 3.720225627971542508e+02
5.337056885097899578e-02 3.638771660950138767e+02
5.433220072113403160e-02 3.564711261179347730e+02
5.529383259128905354e-02 3.480347529095195114e+02
5.625546446144407547e-02 3.399576876187560401e+02
5.721709633159910435e-02 3.325286652037601129e+02
5.817872820175412629e-02 3.238903117801246481e+02
5.914036007190914823e-02 3.148171414504878385e+02
6.010199194206417017e-02 3.082723138969990373e+02
6.106362381221920599e-02 3.010052061664212033e+02
6.202525568237422793e-02 2.921330836009854011e+02
6.298688755252924987e-02 2.837219101889537001e+02
6.394851942268428568e-02 2.776740899788435968e+02
6.491015129283930762e-02 2.703108763871999827e+02
6.587178316299432956e-02 2.621106248921247470e+02
6.683341503314935150e-02 2.556297380952897527e+02
6.779504690330438732e-02 2.476526160498772242e+02
6.875667877345940926e-02 2.401270839822818175e+02
6.971831064361443120e-02 2.325064169436097643e+02
7.067994251376945314e-02 2.257966246400146133e+02
7.164157438392447508e-02 2.185788575400704872e+02
7.260320625407949702e-02 2.132048007575060353e+02
7.356483812423453283e-02 2.066686987608337347e+02
7.452646999438955477e-02 1.984087823411165346e+02
7.548810186454457671e-02 1.920605259002693970e+02
7.644973373469959865e-02 1.855893469392019881e+02
7.741136560485463447e-02 1.790061649559907266e+02
7.837299747500965641e-02 1.726526787926742088e+02
7.933462934516467835e-02 1.665013487646646126e+02
8.029626121531971417e-02 1.602733698197115189e+02
8.125789308547473611e-02 1.552161384191603588e+02
8.221952495562975805e-02 1.485325481279553799e+02
8.318115682578479386e-02 1.424558729545492497e+02
8.414278869593981580e-02 1.366506345916481848e+02
8.510442056609483774e-02 1.315932273114759994e+02
8.606605243624985968e-02 1.265669411183328918e+02
8.702768430640489550e-02 1.210250607570022368e+02
8.798931617655991744e-02 1.176290564449269738e+02
8.895094804671493938e-02 1.146316745124557315e+02
8.991257991686996132e-02 1.110947512282779144e+02
9.087421178702498326e-02 1.067496352071333661e+02
9.183584365718000520e-02 1.024145007396163862e+02
9.279747552733502713e-02 9.917452815108832453e+01
9.375910739749006295e-02 1.000000428908526970e+02
9.472073926764508489e-02 1.004321779213486963e+02
9.568237113780010683e-02 9.595268120446088744e+01
9.664400300795514265e-02 8.693864585263290223e+01
9.760563487811016459e-02 7.883018200102098660e+01
9.856726674826518653e-02 7.400643047768812721e+01
9.952889861842022234e-02 7.048717835238056750e+01
1.004905304885752443e-01 6.676631656034930984e+01
1.014521623587302801e-01 6.336250831495830482e+01
1.024137942288853020e-01 5.962561362873790927e+01
1.033754260990403240e-01 5.574128432642118014e+01
1.043370579691953459e-01 5.141396792772165725e+01
1.052986898393503817e-01 4.776150195640484242e+01
1.062603217095053898e-01 4.430131582664964185e+01
1.072219535796604256e-01 4.181545375210072280e+01
1.081835854498154614e-01 3.949793674503972341e+01
1.091452173199704695e-01 3.732679069110332648e+01
1.101068491901255053e-01 3.474775055036990068e+01
1.110684810602805411e-01 3.167694563030164900e+01
1.120301129304355492e-01 2.887534049395672398e+01
1.129917448005905850e-01 2.656274773336285477e+01
1.139533766707456208e-01 2.435513372562495960e+01
1.149150085409006289e-01 2.272781795378847747e+01
1.158766404110556647e-01 2.114868632498600576e+01
1.168382722812106728e-01 1.973541537829640902e+01
1.177999041513657086e-01 1.824755055475302612e+01
1.187615360215207305e-01 1.670272408825527677e+01
1.197231678916757525e-01 1.499561098461444786e+01
1.206847997618307744e-01 1.361688295922063574e+01
1.216464316319858102e-01 1.222918233487759210e+01
1.226080635021408183e-01 1.144735046042750071e+01
1.235696953722958541e-01 1.053738904982571967e+01
1.245313272424508899e-01 9.453824835329534437e+00
1.254929591126059119e-01 8.051606299354862273e+00
1.264545909827609338e-01 7.271196054750792115e+00
1.274162228529159557e-01 6.751366022436396719e+00
1.283778547230709777e-01 6.423657026905384981e+00
1.293394865932259996e-01 6.112984538062729456e+00
1.303011184633810493e-01 5.419082438801762436e+00
1.312627503335360435e-01 5.035445246085224369e+00
1.322243822036910932e-01 4.054729857248805303e+00
1.331860140738460874e-01 3.723266467145524672e+00
1.341476459440011371e-01 3.290079090986907318e+00
1.351092778141561590e-01 2.989070683482069057e+00
1.360709096843111809e-01 2.422486750226589436e+00
1.370325415544662029e-01 2.076939707640729438e+00
1.379941734246212526e-01 2.060986197496191608e+00
1.389558052947762468e-01 1.956075416098592257e+00
1.399174371649312965e-01 2.066386985300656676e+00
1.408790690350863184e-01 1.847330880508135209e+00
1.418407009052413403e-01 1.492432579121253156e+00
1.428023327753963623e-01 1.440132808649192242e+00
1.437639646455513842e-01 1.071383179795734719e+00
1.447255965157064062e-01 1.108470186107602728e+00
1.456872283858614281e-01 1.215390083274613175e+00
1.466488602560164778e-01 9.447474973008205268e-01
1.476104921261714720e-01 1.072286148153644092e+00
1.485721239963265217e-01 1.134446905667104488e+00
1.495337558664815436e-01 1.272591248351666593e+00
1.504953877366365655e-01 1.140589612075952886e+00
1.514570196067915875e-01 7.816032041941838315e-01
1.524186514769466094e-01 1.057392275575253393e+00
1.533802833471016314e-01 1.667724947633821841e+00
1.543419152172566811e-01 2.255734852337251795e+00
1.553035470874116752e-01 2.511407687219612939e+00
1.562651789575667249e-01 2.168788495504767155e+00
1.572268108277217469e-01 2.309984027042432331e+00
1.581884426978767688e-01 2.487132261139148426e+00
1.591500745680317908e-01 2.325788292565022175e+00
1.601117064381868405e-01 2.544525041931983367e+00
1.610733383083418346e-01 2.666059378506275834e+00
1.620349701784968843e-01 2.777289733103152969e+00
1.629966020486519063e-01 2.972277736768628387e+00
1.639582339188069282e-01 3.093989814154795681e+00
1.649198657889619501e-01 3.154068356513153759e+00
1.658814976591169721e-01 3.301276906599756700e+00
1.668431295292719940e-01 3.492618419227927262e+00
1.678047613994270160e-01 3.561435796665321618e+00
1.687663932695820379e-01 3.725454524396440092e+00
1.697280251397370598e-01 4.064857086718273393e+00
1.706896570098921095e-01 4.225969713866152944e+00
1.716512888800471037e-01 4.341905910975860650e+00
1.726129207502021534e-01 4.460945970327195198e+00
1.735745526203571754e-01 4.222572184618989866e+00
1.745361844905121973e-01 4.116050690974812909e+00
1.754978163606672192e-01 4.396349072263188162e+00
1.764594482308222689e-01 4.140002776002752682e+00
1.774210801009772631e-01 4.038683835651635690e+00
1.783827119711323128e-01 4.432530392119733875e+00
1.793443438412873348e-01 4.849172456867663072e+00
1.803059757114423567e-01 5.057470778435895653e+00
1.812676075815973786e-01 5.180154237142211571e+00
1.822292394517524006e-01 5.435283903532354799e+00
1.831908713219074225e-01 5.537694880150549892e+00
1.841525031920624444e-01 5.157447562605529612e+00
1.851141350622174664e-01 4.960483916173082264e+00
1.860757669323724883e-01 4.676783443714693789e+00
1.870373988025275380e-01 4.554190546400768369e+00
1.879990306726825322e-01 4.585796566560333076e+00
1.889606625428375819e-01 4.648128686516315611e+00
1.899222944129926038e-01 4.336343056121361172e+00
1.908839262831476258e-01 4.457543582789320169e+00
1.918455581533026477e-01 4.453501269958096032e+00
1.928071900234576974e-01 4.402081642995359090e+00
1.937688218936126916e-01 4.361774924571445666e+00
1.947304537637677413e-01 4.277989654457925894e+00
1.956920856339227632e-01 4.221840366160691360e+00
1.966537175040777852e-01 4.046575451200748574e+00
1.976153493742328071e-01 3.979647553194084253e+00
1.985769812443878291e-01 3.713831100747668756e+00
1.995386131145428510e-01 3.731278244658597032e+00
2.005002449846978729e-01 3.707640642426163424e+00
2.014618768548528949e-01 3.592055199728424242e+00
2.024235087250079168e-01 3.416159076019368968e+00
2.033851405951629665e-01 3.267889287656501551e+00
2.043467724653179884e-01 3.218749963140172810e+00
2.053084043354730381e-01 2.948157259463368263e+00
2.062700362056280046e-01 2.962569869074282991e+00
2.072316680757830543e-01 3.168012224009348898e+00
2.081932999459380762e-01 2.943973787765369110e+00
2.091549318160931259e-01 2.808757710055953538e+00
2.101165636862481478e-01 2.607027103698335679e+00
2.110781955564031698e-01 2.256837122556735409e+00
2.120398274265581640e-01 2.251003232875223858e+00
2.130014592967132137e-01 2.422517245127945529e+00
2.139630911668682356e-01 2.293893335447531712e+00
2.149247230370232575e-01 2.202004079304696660e+00
2.158863549071783072e-01 1.973663233182847421e+00
2.168479867773333014e-01 1.613062934141574090e+00
2.178096186474883234e-01 1.307841616275617014e+00
2.187712505176433453e-01 1.280607454560030334e+00
2.197328823877983950e-01 1.227119835284970151e+00
2.206945142579534169e-01 1.420470151762081912e+00
2.216561461281084666e-01 1.391582658839418229e+00
2.226177779982634330e-01 1.396383763803903832e+00
2.235794098684184827e-01 1.113323146443246259e+00
2.245410417385735047e-01 1.263863483003937915e+00
2.255026736087285544e-01 1.246983148620973481e+00
2.264643054788835763e-01 1.091909629830436046e+00
2.274259373490385983e-01 9.877907052867733739e-01
2.283875692191935924e-01 7.894999970164491288e-01
2.293492010893486421e-01 9.185958714339719222e-01
2.303108329595036641e-01 7.670817386294643825e-01
2.312724648296586860e-01 7.455112261164842380e-01
2.322340966998137357e-01 8.582686227872997620e-01
2.331957285699687299e-01 7.468657160764919922e-01
2.341573604401237518e-01 4.548577954640471432e-01
2.351189923102787738e-01 5.047910594963909148e-01
2.360806241804338235e-01 4.786748081712737246e-01
2.370422560505888454e-01 3.603020390316729049e-01
2.380038879207438951e-01 6.924714851420290529e-01
2.389655197908988615e-01 6.700984572980708265e-01
2.399271516610539112e-01 5.984903489517634512e-01
2.408887835312089332e-01 5.304122370958275212e-01
2.418504154013639829e-01 3.964776230817328440e-01
2.428120472715190048e-01 2.213794712543943888e-01
2.437736791416740267e-01 3.220872061810808873e-01
2.447353110118290209e-01 3.091724278741203591e-01
2.456969428819840706e-01 3.978539143305503956e-01
2.466585747521390926e-01 2.726686254842292101e-01
2.476202066222941145e-01 4.402701295697646344e-01
2.485818384924491642e-01 4.134956663455220394e-01
2.495434703626041584e-01 4.972657164726932422e-01
2.505051022327591803e-01 5.944945729061252848e-01
2.514667341029142023e-01 7.092775704543150539e-01
2.524283659730692242e-01 4.745706442056025764e-01
2.533899978432243016e-01 4.783526859676960896e-01
2.543516297133793236e-01 5.213310881037287459e-01
2.553132615835342900e-01 5.485398642076368958e-01
2.562748934536893120e-01 6.403117845972197131e-01
2.572365253238443894e-01 4.728244570038917516e-01
2.581981571939994113e-01 3.700354241693801782e-01
2.591597890641544333e-01 5.062807104343285403e-01
2.601214209343094552e-01 6.359508319040045876e-01
2.610830528044644772e-01 6.991127210247256585e-01
2.620446846746194991e-01 4.516844040128340509e-01
2.630063165447745210e-01 6.075343763985117107e-01
2.639679484149295430e-01 6.685983385992990691e-01
2.649295802850845649e-01 6.155906721960135997e-01
2.658912121552395869e-01 4.523039135293345225e-01
2.668528440253946088e-01 7.919499061879626822e-01
2.678144758955496307e-01 7.634959273144197311e-01
2.687761077657046527e-01 7.487993321220294263e-01
2.697377396358597301e-01 7.054918617938064074e-01
2.706993715060147521e-01 7.481275695067139964e-01
2.716610033761697185e-01 8.760680379581984312e-01
2.726226352463247404e-01 7.625407997902726720e-01
2.735842671164798179e-01 4.205825608899402823e-01
2.745458989866348398e-01 5.583731083685634644e-01
2.755075308567898618e-01 8.834476448486334732e-01
2.764691627269448837e-01 8.477201877447839706e-01
2.774307945970999056e-01 8.767542654420061865e-01
2.783924264672549276e-01 1.035369352637843576e+00
2.793540583374099495e-01 9.537079917367066173e-01
2.803156902075649715e-01 9.360705214444493549e-01
2.812773220777199934e-01 7.673212283385595356e-01
2.822389539478750153e-01 8.085538430442618107e-01
2.832005858180300373e-01 8.013233593264068588e-01
2.841622176881850592e-01 8.090249381556766650e-01
2.851238495583400812e-01 6.513967734553602895e-01
2.860854814284951586e-01 7.345335500355929526e-01
2.870471132986501805e-01 9.280422282313978144e-01
2.880087451688051470e-01 9.168183605691950788e-01
2.889703770389601689e-01 8.706894849228667965e-01
2.899320089091152464e-01 6.985691723714566592e-01
2.908936407792702683e-01 8.888763419318657100e-01
2.918552726494252902e-01 1.007983351525204796e+00
2.928169045195803122e-01 9.711325418648719676e-01
2.937785363897353341e-01 9.927249052017153019e-01
2.947401682598903561e-01 7.811554751563640764e-01
2.957018001300453780e-01 7.341678929709587464e-01
2.966634320002003999e-01 8.115235181806497167e-01
2.976250638703554219e-01 9.973426254127133461e-01
2.985866957405104993e-01 9.295215118537143439e-01
2.995483276106654658e-01 8.332216857393852649e-01
3.005099594808204877e-01 1.046533087444579735e+00
3.014715913509755651e-01 9.329693686170159594e-01
3.024332232211305871e-01 8.334428254945294157e-01
3.033948550912856090e-01 7.173507394908078538e-01
3.043564869614405755e-01 6.548860659712225640e-01
3.053181188315956529e-01 6.306403409370986424e-01
3.062797507017506748e-01 5.956905667525660419e-01
3.072413825719056968e-01 6.343245322849035972e-01
3.082030144420607187e-01 7.324385423126038575e-01
3.091646463122157407e-01 6.464477712302354462e-01
3.101262781823707626e-01 6.771578902543211598e-01
3.110879100525257845e-01 7.849576973442147221e-01
3.120495419226808065e-01 6.595626092745980884e-01
3.130111737928358284e-01 3.604713149469809252e-01
3.139728056629909059e-01 4.842880803588300864e-01
3.149344375331459278e-01 5.843998688776999018e-01
3.158960694033008942e-01 5.662698946364947972e-01
3.168577012734559162e-01 4.515149217763294587e-01
3.178193331436109936e-01 3.281322212374391256e-01
3.187809650137660156e-01 5.016816543196966904e-01
3.197425968839210375e-01 8.152112327240743639e-01
3.207042287540760039e-01 6.665402338747767885e-01
3.216658606242310814e-01 4.831724153549963319e-01
3.226274924943861033e-01 3.894420686249588925e-01
3.235891243645411253e-01 2.131585137346334591e-01
3.245507562346961472e-01 2.968702869152295420e-01
3.255123881048511691e-01 4.194037582430745204e-01
3.264740199750061911e-01 5.600774272673483267e-01
3.274356518451612130e-01 5.703601139457425973e-01
3.283972837153162350e-01 3.966258201783610104e-01
3.293589155854712569e-01 3.611917479442645629e-01
3.303205474556263344e-01 4.994613451963516582e-01
3.312821793257813563e-01 5.231840458841148234e-01
3.322438111959363227e-01 4.526189317011350965e-01
3.332054430660913447e-01 4.528076266249208004e-01
3.341670749362464221e-01 2.182132707976123243e-01
3.351287068064014441e-01 3.022529394169062300e-01
3.360903386765564660e-01 3.396048589474780499e-01
3.370519705467114324e-01 2.888858767526301108e-01
3.380136024168665099e-01 2.401038136196866901e-01
3.389752342870215318e-01 2.635660816580980281e-01
3.399368661571765537e-01 2.108562121272967715e-01
3.408984980273315757e-01 3.812433700302513273e-01
3.418601298974865976e-01 2.634342593419347622e-01
3.428217617676416196e-01 1.525900238384245711e-01
3.437833936377966415e-01 3.316649694762183742e-01
3.447450255079516634e-01 4.431493381948854449e-01
3.457066573781066854e-01 2.789940028652111437e-01
3.466682892482617628e-01 3.059838967989314540e-01
3.476299211184167848e-01 3.020297810053413912e-01
3.485915529885717512e-01 1.486816232781826841e-01
3.495531848587267731e-01 1.606294642513859117e-01
3.505148167288818506e-01 3.478053700732033349e-01
3.514764485990368725e-01 4.399977444232803236e-01
3.524380804691918945e-01 4.824029440261767832e-01
3.533997123393468609e-01 2.522725270822085974e-01
3.543613442095019384e-01 3.021765989691829191e-01
3.553229760796569603e-01 4.715238791805411722e-01
3.562846079498119822e-01 4.042061631644884301e-01
3.572462398199670042e-01 3.995375715200744082e-01
3.582078716901220261e-01 4.195809289074574622e-01
3.591695035602770480e-01 4.953547856416413708e-01
3.601311354304320700e-01 3.074315786549455254e-01
3.610927673005870919e-01 3.400450435284447792e-01
3.620543991707421139e-01 3.009615221261192630e-01
3.630160310408971913e-01 2.833544616564758201e-01
3.639776629110522133e-01 4.153581019867402802e-01
3.649392947812071797e-01 3.306081028650638132e-01
3.659009266513622016e-01 2.947253359408179563e-01
3.668625585215172791e-01 3.203439015441880144e-01
3.678241903916723010e-01 1.633794391968486082e-01
3.687858222618273230e-01 1.256197138772492394e-01
3.697474541319822894e-01 2.967237682621863826e-01
3.707090860021373668e-01 4.675894955193555802e-01
3.716707178722923888e-01 3.349536630132377013e-01
3.726323497424474107e-01 5.475985785881576362e-02
3.735939816126024327e-01 3.222718227783367695e-01
3.745556134827574546e-01 5.888138701569687328e-01
3.755172453529124765e-01 4.856934314881904413e-01
3.764788772230674985e-01 3.028600224279465181e-01
3.774405090932225204e-01 1.869071122438263899e-01
3.784021409633775423e-01 2.886514677715865673e-01
3.793637728335326198e-01 3.775641661354036671e-01
3.803254047036876417e-01 3.054684535526774880e-01
3.812870365738426082e-01 3.745460705328369500e-01
3.822486684439976301e-01 2.937235798143582599e-01
3.832103003141527076e-01 1.931739949233133302e-01
3.841719321843077295e-01 2.930934872688339965e-01
3.851335640544627514e-01 3.294240842200402142e-01
3.860951959246177734e-01 4.206576531373258376e-01
3.870568277947727953e-01 3.496875097610825378e-01
3.880184596649278173e-01 2.820420175753177716e-01
3.889800915350828392e-01 2.748699860529484340e-01
3.899417234052378611e-01 3.076099730946353361e-01
3.909033552753928831e-01 3.546763542218762666e-01
3.918649871455479050e-01 3.936736948810022341e-01
3.928266190157029270e-01 5.566296053475241479e-01
3.937882508858579489e-01 3.417327529017875065e-01
3.947498827560129708e-01 2.964790930070506647e-01
3.957115146261680483e-01 6.071671052505180910e-01
3.966731464963230702e-01 5.557865648891784360e-01
3.976347783664780366e-01 5.254422778548040185e-01
3.985964102366330586e-01 3.656316593073789534e-01
3.995580421067881360e-01 3.818627678068367004e-01
4.005196739769430470e-01 3.091830250510838596e-01
4.014813058470981244e-01 3.647504238346712668e-01
4.024429377172531463e-01 4.268142121583231585e-01
4.034045695874082238e-01 3.370163255285554271e-01
