# q (1/Angstrom), Intensity (arb)
2.067508526570814575e-02 4.315376858337451154e+02
2.163671713586316769e-02 4.497865252940704863e+02
2.259834900601819310e-02 4.621776894009960301e+02
2.355998087617321851e-02 4.665470510665936104e+02
2.452161274632824739e-02 4.675335977293739234e+02
2.548324461648326933e-02 4.706530549175399187e+02
2.644487648663829821e-02 4.711244746426455663e+02
2.740650835679332709e-02 4.704542535649646879e+02
2.836814022694834903e-02 4.676245078399788326e+02
2.932977209710337443e-02 4.656561218771037716e+02
3.029140396725839637e-02 4.627684142530893610e+02
3.125303583741342178e-02 4.603689705038387388e+02
3.221466770756845066e-02 4.567932841487241831e+02
3.317629957772347260e-02 4.530083136303628066e+02
3.413793144787850148e-02 4.506315357568253717e+02
3.509956331803352342e-02 4.493291982470940411e+02
3.606119518818855230e-02 4.477697541817979641e+02
3.702282705834358117e-02 4.433029766475332281e+02
3.798445892849860311e-02 4.374986171526830390e+02
3.894609079865363199e-02 4.324496180840486090e+02
3.990772266880865393e-02 4.301374968854898384e+02
4.086935453896367587e-02 4.252822123376953414e+02
4.183098640911870475e-02 4.208019562516596466e+02
4.279261827927372669e-02 4.142864495053499354e+02
4.375425014942875557e-02 4.075828516846898424e+02
4.471588201958377751e-02 4.005721351192040061e+02
4.567751388973880639e-02 3.936570658776115010e+02
4.663914575989382832e-02 3.870415731990759127e+02
4.760077763004885720e-02 3.825599467242545870e+02
4.856240950020387914e-02 3.781510548411899322e+02
4.952404137035890108e-02 3.731884736694321987e+02
5.048567324051392302e-02 3.669258605528023622e+02
5.144730511066895190e-02 3.614781008545151053e+02
5.240893698082397384e-02 3.548636887960776107e+02
5.337056885097899578e-02 3.467522446561321203e+02
5.433220072113403160e-02 3.383659404060508678e+02
5.529383259128905354e-02 3.296575046609284527e+02
5.625546446144407547e-02 3.218024956661064948e+02
5.721709633159910435e-02 3.148046171671061870e+02
5.817872820175412629e-02 3.085473400147029679e+02
5.914036007190914823e-02 3.006786507191662849e+02
6.010199194206417017e-02 2.935696720924453302e+02
6.106362381221920599e-02 2.872196671953747682e+02
6.202525568237422793e-02 2.799631114401241803e+02
6.298688755252924987e-02 2.723060769916792765e+02
6.394851942268428568e-02 2.643742421247300172e+02
6.491015129283930762e-02 2.554893777158583532e+02
6.587178316299432956e-02 2.483243904143330099e+02
6.683341503314935150e-02 2.429098048605129634e+02
6.779504690330438732e-02 2.357745310833557255e+02
6.875667877345940926e-02 2.282742684144344878e+02
6.971831064361443120e-02 2.236629171771880920e+02
7.067994251376945314e-02 2.168108242848008160e+02
7.164157438392447508e-02 2.088619570320699381e+02
7.260320625407949702e-02 2.018011782171597304e+02
7.356483812423453283e-02 1.949159992316247951e+02
7.452646999438955477e-02 1.891294891371687470e+02
7.548810186454457671e-02 1.826126930398573336e+02
7.644973373469959865e-02 1.761805489994069944e+02
7.741136560485463447e-02 1.710906477563182762e+02
7.837299747500965641e-02 1.658739107697924737e+02
7.933462934516467835e-02 1.595531948754509983e+02
8.029626121531971417e-02 1.537831003022559742e+02
8.125789308547473611e-02 1.482499400939782390e+02
8.221952495562975805e-02 1.424434228520234171e+02
8.318115682578479386e-02 1.364971390530990334e+02
8.414278869593981580e-02 1.321015451124154652e+02
8.510442056609483774e-02 1.265939381272952033e+02
8.606605243624985968e-02 1.210837318000657348e+02
8.702768430640489550e-02 1.166929689040662197e+02
8.798931617655991744e-02 1.134318695862834545e+02
8.895094804671493938e-02 1.117991993177902685e+02
8.991257991686996132e-02 1.103106697797698530e+02
9.087421178702498326e-02 1.069254609309114130e+02
9.183584365718000520e-02 1.020245002734962014e+02
9.279747552733502713e-02 1.002467210147619028e+02
9.375910739749006295e-02 1.058114090916786836e+02
9.472073926764508489e-02 1.125539056002778437e+02
9.568237113780010683e-02 1.075712270086900446e+02
9.664400300795514265e-02 9.357866279628390771e+01
9.760563487811016459e-02 8.106430275255213758e+01
9.856726674826518653e-02 7.546388986817501632e+01
9.952889861842022234e-02 7.260417594035189381e+01
1.004905304885752443e-01 7.004649310771696946e+01
1.014521623587302801e-01 6.666873732619674797e+01
1.024137942288853020e-01 6.166563138368955066e+01
1.033754260990403240e-01 5.652090893245508596e+01
1.043370579691953459e-01 5.163993695570936637e+01
1.052986898393503817e-01 4.739374789651085962e+01
1.062603217095053898e-01 4.424349625766210892e+01
1.072219535796604256e-01 4.145913676376709134e+01
1.081835854498154614e-01 3.872913884010249319e+01
1.091452173199704695e-01 3.706327417930430101e+01
1.101068491901255053e-01 3.520135942899149484e+01
1.110684810602805411e-01 3.227025177746016027e+01
1.120301129304355492e-01 2.891625806361343720e+01
1.129917448005905850e-01 2.663647934260330175e+01
1.139533766707456208e-01 2.417595373190187402e+01
1.149150085409006289e-01 2.178480985525199287e+01
1.158766404110556647e-01 2.008724640419352525e+01
1.168382722812106728e-01 1.881450281517636824e+01
1.177999041513657086e-01 1.708120220831702696e+01
1.187615360215207305e-01 1.582054601164316310e+01
1.197231678916757525e-01 1.426098427932492640e+01
1.206847997618307744e-01 1.336857093198300817e+01
1.216464316319858102e-01 1.203544098480924163e+01
1.226080635021408183e-01 1.079146194339368847e+01
1.235696953722958541e-01 1.006329316378555561e+01
1.245313272424508899e-01 9.057110300018560878e+00
1.254929591126059119e-01 7.975729066189757077e+00
1.264545909827609338e-01 7.455459430867410475e+00
1.274162228529159557e-01 6.931340305359579901e+00
1.283778547230709777e-01 5.806916844688025492e+00
1.293394865932259996e-01 5.220979600256189457e+00
1.303011184633810493e-01 4.707118711990677440e+00
1.312627503335360435e-01 4.341820611176657962e+00
1.322243822036910932e-01 3.614006302401563175e+00
1.331860140738460874e-01 3.019470475110733076e+00
1.341476459440011371e-01 3.077855207506733137e+00
1.351092778141561590e-01 2.912081355456756171e+00
1.360709096843111809e-01 2.588780601389785829e+00
1.370325415544662029e-01 2.185114976090755334e+00
1.379941734246212526e-01 1.709244686235109612e+00
1.389558052947762468e-01 1.643432183814432790e+00
1.399174371649312965e-01 1.544232870884684417e+00
1.408790690350863184e-01 1.408415340731561827e+00
1.418407009052413403e-01 1.325716727449378851e+00
1.428023327753963623e-01 1.114375592531249737e+00
1.437639646455513842e-01 1.240350105444075979e+00
1.447255965157064062e-01 1.417587743518307519e+00
1.456872283858614281e-01 1.306230741669203610e+00
1.466488602560164778e-01 9.912883998727544110e-01
1.476104921261714720e-01 7.936941519039280024e-01
1.485721239963265217e-01 1.365105105363237925e+00
1.495337558664815436e-01 1.229204473484976745e+00
1.504953877366365655e-01 1.385413450339097352e+00
1.514570196067915875e-01 1.738844436270753135e+00
1.524186514769466094e-01 1.824000378014211776e+00
1.533802833471016314e-01 1.916822799042442682e+00
1.543419152172566811e-01 2.233483245586086241e+00
1.553035470874116752e-01 2.601463890429194237e+00
1.562651789575667249e-01 2.747656846214127313e+00
1.572268108277217469e-01 2.526598304974680076e+00
1.581884426978767688e-01 2.449876515435228441e+00
1.591500745680317908e-01 2.698551527567566666e+00
1.601117064381868405e-01 2.730503165625986384e+00
1.610733383083418346e-01 2.575571375113820949e+00
1.620349701784968843e-01 2.512802449523348969e+00
1.629966020486519063e-01 3.015364127662913063e+00
1.639582339188069282e-01 3.301648787051345124e+00
1.649198657889619501e-01 3.224165009856477582e+00
1.658814976591169721e-01 3.231664774172926968e+00
1.668431295292719940e-01 3.199191339792964328e+00
1.678047613994270160e-01 3.282711281265548564e+00
1.687663932695820379e-01 3.976212488670057610e+00
1.697280251397370598e-01 4.231126668115027911e+00
1.706896570098921095e-01 4.137624586530858295e+00
1.716512888800471037e-01 4.011924703514921475e+00
1.726129207502021534e-01 3.919079962773135861e+00
1.735745526203571754e-01 4.230430954714247349e+00
1.745361844905121973e-01 4.130794869763626309e+00
1.754978163606672192e-01 3.979057644248246817e+00
1.764594482308222689e-01 4.114790548212219790e+00
1.774210801009772631e-01 4.408671792976921466e+00
1.783827119711323128e-01 4.614358435214150234e+00
1.793443438412873348e-01 4.848289367777464776e+00
1.803059757114423567e-01 5.268368972722253574e+00
1.812676075815973786e-01 6.051156142229601187e+00
1.822292394517524006e-01 6.418348163314242072e+00
1.831908713219074225e-01 6.281366715283382973e+00
1.841525031920624444e-01 5.672985022973243474e+00
1.851141350622174664e-01 4.783890424515391260e+00
1.860757669323724883e-01 4.429906017380531580e+00
1.870373988025275380e-01 4.459735389784050597e+00
1.879990306726825322e-01 4.608414794600196984e+00
1.889606625428375819e-01 4.549253742200448869e+00
1.899222944129926038e-01 4.577714259234308969e+00
1.908839262831476258e-01 4.634305019570707174e+00
1.918455581533026477e-01 4.495164265440202200e+00
1.928071900234576974e-01 4.129978844817159711e+00
1.937688218936126916e-01 4.157890862316040881e+00
1.947304537637677413e-01 3.999593139615061688e+00
1.956920856339227632e-01 3.941230841259397266e+00
1.966537175040777852e-01 3.662737118108314149e+00
1.976153493742328071e-01 3.593924253733003837e+00
1.985769812443878291e-01 3.768964361161899035e+00
1.995386131145428510e-01 3.733472497369302090e+00
2.005002449846978729e-01 3.369615124031234643e+00
2.014618768548528949e-01 3.272800761576050377e+00
2.024235087250079168e-01 3.345372039371014239e+00
2.033851405951629665e-01 3.037854321357428944e+00
2.043467724653179884e-01 2.977555828402262961e+00
2.053084043354730381e-01 3.250890301704711050e+00
2.062700362056280046e-01 3.046932791263984086e+00
2.072316680757830543e-01 2.878894953556464742e+00
2.081932999459380762e-01 2.770885796531437961e+00
2.091549318160931259e-01 2.468162968351968800e+00
2.101165636862481478e-01 2.393368270585543911e+00
2.110781955564031698e-01 2.408550653515451501e+00
2.120398274265581640e-01 2.222795787990566652e+00
2.130014592967132137e-01 2.353706560024907191e+00
2.139630911668682356e-01 2.147373958919430947e+00
2.149247230370232575e-01 2.044010933020569354e+00
2.158863549071783072e-01 1.909147224692169686e+00
2.168479867773333014e-01 1.837741626492146452e+00
2.178096186474883234e-01 1.855841165918725721e+00
2.187712505176433453e-01 1.729937791013760773e+00
2.197328823877983950e-01 1.853917468275721347e+00
2.206945142579534169e-01 1.591362371561736211e+00
2.216561461281084666e-01 1.425333409281648755e+00
2.226177779982634330e-01 1.335815700553105501e+00
2.235794098684184827e-01 1.279565044384469275e+00
2.245410417385735047e-01 1.303786083788629924e+00
2.255026736087285544e-01 1.373542460135272592e+00
2.264643054788835763e-01 1.031449434919220920e+00
2.274259373490385983e-01 1.013565870932065849e+00
2.283875692191935924e-01 9.876180201963649097e-01
2.293492010893486421e-01 1.051915753920464880e+00
2.303108329595036641e-01 1.057965777569439325e+00
2.312724648296586860e-01 7.970817591676073732e-01
2.322340966998137357e-01 1.058770531939540405e+00
2.331957285699687299e-01 8.698412990958210855e-01
2.341573604401237518e-01 6.663686868259546259e-01
2.351189923102787738e-01 5.196894971207122182e-01
2.360806241804338235e-01 7.294647910773903732e-01
2.370422560505888454e-01 5.103253137867902467e-01
2.380038879207438951e-01 6.162544887297585205e-01
2.389655197908988615e-01 4.889111273232664701e-01
2.399271516610539112e-01 3.121671292558794164e-01
2.408887835312089332e-01 5.257494747838116211e-01
2.418504154013639829e-01 4.495886294850741649e-01
2.428120472715190048e-01 4.300042754419095559e-01
2.437736791416740267e-01 2.366000575094382441e-01
2.447353110118290209e-01 1.932581369839816432e-01
2.456969428819840706e-01 5.869105352030210554e-01
2.466585747521390926e-01 5.154963810081021336e-01
2.476202066222941145e-01 4.175483292334902785e-01
2.485818384924491642e-01 4.967905713700346837e-01
2.495434703626041584e-01 2.651507475109546874e-01
2.505051022327591803e-01 4.767029863948231139e-01
2.514667341029142023e-01 4.841884475905615659e-01
2.524283659730692242e-01 5.485600005842101723e-01
2.533899978432243016e-01 5.924662122848332046e-01
2.543516297133793236e-01 4.488810603921606912e-01
2.553132615835342900e-01 4.632496436876714085e-01
2.562748934536893120e-01 4.658987669397518516e-01
2.572365253238443894e-01 5.515695920380103701e-01
2.581981571939994113e-01 4.927174556393261184e-01
2.591597890641544333e-01 3.126275713917365806e-01
2.601214209343094552e-01 2.703186067267537851e-01
2.610830528044644772e-01 3.474893208924356713e-01
2.620446846746194991e-01 4.978737049891819311e-01
2.630063165447745210e-01 7.434853037773798690e-01
2.639679484149295430e-01 6.377717444262493984e-01
2.649295802850845649e-01 6.931881496456639979e-01
2.658912121552395869e-01 7.469944347116346250e-01
2.668528440253946088e-01 7.601733412841547022e-01
2.678144758955496307e-01 7.611780411198623142e-01
2.687761077657046527e-01 7.385902002144639766e-01
2.697377396358597301e-01 8.129260427789759547e-01
2.706993715060147521e-01 9.333496145065360849e-01
2.716610033761697185e-01 7.695138401975647469e-01
2.726226352463247404e-01 3.741655828555359165e-01
2.735842671164798179e-01 2.743111855827038426e-01
2.745458989866348398e-01 7.342664249113575181e-01
2.755075308567898618e-01 6.956459690733538537e-01
2.764691627269448837e-01 8.074024194686550970e-01
2.774307945970999056e-01 9.722065007964850736e-01
2.783924264672549276e-01 1.157513191816359921e+00
2.793540583374099495e-01 9.264144623265337941e-01
2.803156902075649715e-01 9.557478002377344239e-01
2.812773220777199934e-01 9.684654149680369528e-01
2.822389539478750153e-01 1.078920928487640651e+00
2.832005858180300373e-01 1.065632925372124618e+00
2.841622176881850592e-01 9.759127769963100718e-01
2.851238495583400812e-01 7.571662125407954136e-01
2.860854814284951586e-01 8.140302182361658367e-01
2.870471132986501805e-01 7.480827386084634156e-01
2.880087451688051470e-01 5.943225877040596572e-01
2.889703770389601689e-01 8.076171148994397697e-01
2.899320089091152464e-01 8.772961250898063668e-01
2.908936407792702683e-01 1.141719049160204946e+00
2.918552726494252902e-01 1.177993551466400390e+00
2.928169045195803122e-01 8.309742892291147598e-01
2.937785363897353341e-01 7.162111742735604025e-01
2.947401682598903561e-01 6.599917616457275926e-01
2.957018001300453780e-01 8.659626512876528182e-01
2.966634320002003999e-01 7.722166006967619012e-01
2.976250638703554219e-01 7.349517353551249244e-01
2.985866957405104993e-01 8.414485896694863243e-01
2.995483276106654658e-01 6.831296270064939335e-01
3.005099594808204877e-01 7.976803828801983798e-01
3.014715913509755651e-01 6.199156617404710801e-01
3.024332232211305871e-01 7.171559220766283715e-01
3.033948550912856090e-01 7.911455277895917959e-01
3.043564869614405755e-01 7.484969795100724355e-01
3.053181188315956529e-01 7.310445366038500481e-01
3.062797507017506748e-01 7.193003103801700604e-01
3.072413825719056968e-01 7.897904127834429744e-01
3.082030144420607187e-01 7.853573279948200536e-01
3.091646463122157407e-01 6.638856797293897216e-01
3.101262781823707626e-01 6.475211457243119639e-01
3.110879100525257845e-01 7.358707816391394374e-01
3.120495419226808065e-01 7.217361069514360850e-01
3.130111737928358284e-01 5.678775852500734800e-01
3.139728056629909059e-01 5.964284958590475583e-01
3.149344375331459278e-01 5.438331783719121404e-01
3.158960694033008942e-01 4.184799086042403360e-01
3.168577012734559162e-01 4.523512984693240924e-01
3.178193331436109936e-01 4.752117731671958722e-01
3.187809650137660156e-01 4.253073657985417810e-01
3.197425968839210375e-01 5.607792904490018771e-01
3.207042287540760039e-01 5.835994506180917085e-01
3.216658606242310814e-01 4.003744175498873403e-01
3.226274924943861033e-01 4.474079321543662502e-01
3.235891243645411253e-01 6.340698069525174674e-01
3.245507562346961472e-01 6.589533668242424369e-01
3.255123881048511691e-01 6.746254096007682222e-01
3.264740199750061911e-01 4.802273266431349441e-01
3.274356518451612130e-01 3.819990291375781055e-01
3.283972837153162350e-01 2.548145906049157361e-01
3.293589155854712569e-01 4.236111080376900873e-01
3.303205474556263344e-01 4.167824736253820106e-01
3.312821793257813563e-01 3.592179157651429477e-01
3.322438111959363227e-01 1.565446338681013572e-01
3.332054430660913447e-01 2.412642348345990229e-01
3.341670749362464221e-01 4.891962877209543592e-01
3.351287068064014441e-01 4.851469789843321223e-01
3.360903386765564660e-01 4.245739560361094789e-01
3.370519705467114324e-01 3.466202790234760300e-01
3.380136024168665099e-01 4.181476214853887541e-01
3.389752342870215318e-01 2.844143935911702670e-01
3.399368661571765537e-01 3.046112414515071976e-01
3.408984980273315757e-01 2.307219226989154492e-01
3.418601298974865976e-01 3.236090844883889872e-01
3.428217617676416196e-01 2.925856171927954108e-01
3.437833936377966415e-01 1.763146488065387985e-01
3.447450255079516634e-01 2.061933903789636702e-01
3.457066573781066854e-01 2.947066141045304732e-01
3.466682892482617628e-01 2.923913397356585619e-01
3.476299211184167848e-01 2.773186784520795811e-01
3.485915529885717512e-01 4.067162203448013713e-01
3.495531848587267731e-01 2.466356763702677313e-01
3.505148167288818506e-01 2.589318016877868445e-01
3.514764485990368725e-01 2.242470608124982334e-01
3.524380804691918945e-01 6.009945986711784371e-02
3.533997123393468609e-01 0.000000000000000000e+00
3.543613442095019384e-01 1.469465770114375402e-01
3.553229760796569603e-01 1.592996549982288457e-01
3.562846079498119822e-01 1.562215834286568850e-01
3.572462398199670042e-01 4.318550480017435689e-01
3.582078716901220261e-01 5.570304682454931822e-01
3.591695035602770480e-01 3.339636645234236312e-01
3.601311354304320700e-01 3.086732150582669476e-01
3.610927673005870919e-01 1.626089733504123558e-01
3.620543991707421139e-01 1.289960910173846287e-01
3.630160310408971913e-01 2.440728850483253609e-01
3.639776629110522133e-01 1.888705948526663292e-01
3.649392947812071797e-01 3.264103621430152202e-01
3.659009266513622016e-01 4.654674149744089107e-01
3.668625585215172791e-01 5.219535143721358850e-01
3.678241903916723010e-01 2.133087010672269912e-01
3.687858222618273230e-01 1.329264793937632305e-01
3.697474541319822894e-01 1.214150439081649324e-01
3.707090860021373668e-01 2.265335102504515419e-01
3.716707178722923888e-01 1.983829422855230007e-01
3.726323497424474107e-01 3.258398491274441255e-01
3.735939816126024327e-01 3.857796820666195003e-01
3.745556134827574546e-01 6.051457631531320658e-01
3.755172453529124765e-01 5.593624557447647305e-01
3.764788772230674985e-01 4.490476528823599267e-01
3.774405090932225204e-01 4.163649872363386351e-01
3.784021409633775423e-01 3.363536857316020701e-01
3.793637728335326198e-01 3.692978880056188018e-01
3.803254047036876417e-01 3.727328308413824232e-01
3.812870365738426082e-01 4.209965151641483772e-01
3.822486684439976301e-01 3.392494377588164411e-01
3.832103003141527076e-01 4.267232994034451110e-01
3.841719321843077295e-01 4.121438913778270319e-01
3.851335640544627514e-01 5.406716347241982135e-01
3.860951959246177734e-01 5.636708958148020088e-01
3.870568277947727953e-01 5.638493968442084281e-01
3.880184596649278173e-01 5.070857300620978947e-01
3.889800915350828392e-01 2.675470341673253927e-01
3.899417234052378611e-01 3.035962886594347765e-01
3.909033552753928831e-01 3.177601044334394942e-01
3.918649871455479050e-01 2.888326850960574177e-01
3.928266190157029270e-01 4.040917058144621876e-01
3.937882508858579489e-01 4.143728591590836174e-01
3.947498827560129708e-01 3.444707658789170068e-01
3.957115146261680483e-01 2.262883997342974851e-01
3.966731464963230702e-01 2.469203794544689856e-01
3.976347783664780366e-01 4.273953318251813016e-01
3.985964102366330586e-01 5.621131067741735876e-01
3.995580421067881360e-01 4.193894608812129832e-01
4.005196739769430470e-01 1.594639883943962388e-01
4.014813058470981244e-01 2.862064315465921993e-01
4.024429377172531463e-01 2.797169881766237154e-01
4.034045695874082238e-01 3.841670323965935552e-01
