# q (1/Angstrom), Intensity (arb)
2.078726924066784734e-02 9.676514655083579441e+01
2.212838338006469993e-02 1.998371281940091819e+02
2.346949751946154905e-02 2.993274678516153244e+02
2.481061165885840164e-02 4.092244125574615055e+02
2.615172579825525423e-02 4.652337176289395302e+02
2.749283993765210335e-02 4.880276253677428144e+02
2.883395407704895941e-02 5.097846555880591950e+02
3.017506821644580506e-02 5.279176171216281546e+02
3.151618235584265765e-02 5.323625266420981461e+02
3.285729649523951718e-02 5.279948234725615066e+02
3.419841063463636283e-02 5.281814377606781363e+02
3.553952477403321542e-02 5.259030612256843824e+02
3.688063891343006800e-02 5.200830558813022435e+02
3.822175305282692059e-02 5.174076481934138201e+02
3.956286719222376624e-02 5.156101811219740512e+02
4.090398133162062577e-02 5.129151836419043775e+02
4.224509547101747142e-02 5.078387193036037388e+02
4.358620961041432401e-02 5.019007741830913005e+02
4.492732374981117660e-02 4.944311183463035491e+02
4.626843788920802919e-02 4.930230046288093035e+02
4.760955202860488178e-02 4.925844212114834590e+02
4.895066616800172743e-02 4.837872262349657149e+02
5.029178030739858696e-02 4.770504722270187585e+02
5.163289444679544649e-02 4.741950556845773121e+02
5.297400858619229214e-02 4.691480693075151294e+02
5.431512272558913779e-02 4.637673426597948492e+02
5.565623686498599731e-02 4.566033588130857197e+02
5.699735100438284990e-02 4.500305847574107929e+02
5.833846514377969555e-02 4.389350684303459502e+02
5.967957928317654814e-02 4.305855848567097155e+02
6.102069342257340767e-02 4.262187233573150706e+02
6.236180756197025332e-02 4.202988070422433111e+02
6.370292170136709897e-02 4.125706792308099011e+02
6.504403584076395850e-02 4.065443486062043803e+02
6.638514998016080415e-02 3.951129944140773205e+02
6.772626411955766368e-02 3.884214298560867746e+02
6.906737825895450933e-02 3.801860926508844614e+02
7.040849239835136886e-02 3.703492126421142530e+02
7.174960653774821451e-02 3.609527071775301010e+02
7.309072067714506016e-02 3.512419941190015606e+02
7.443183481654190581e-02 3.407115163486720917e+02
7.577294895593877921e-02 3.317168396594634032e+02
7.711406309533562486e-02 3.224736707844771786e+02
7.845517723473247051e-02 3.155555505959222273e+02
7.979629137412933004e-02 3.055984309500948939e+02
8.113740551352617569e-02 2.982515440485464069e+02
8.247851965292302134e-02 2.887781295083129862e+02
8.381963379231988087e-02 2.811264710453603470e+02
8.516074793171674040e-02 2.724835187253794402e+02
8.650186207111358605e-02 2.633059876214784936e+02
8.784297621051043170e-02 2.544215736111022750e+02
8.918409034990729123e-02 2.473875774022762073e+02
9.052520448930413688e-02 2.395727463437686424e+02
9.186631862870098253e-02 2.305966065860139338e+02
9.320743276809784206e-02 2.213817209392315135e+02
9.454854690749470159e-02 2.136036657084744945e+02
9.588966104689154724e-02 2.061540339859145661e+02
9.723077518628839289e-02 2.004422018919749178e+02
9.857188932568525241e-02 1.925840090125553274e+02
9.991300346508209806e-02 1.840504966502134891e+02
1.012541176044789437e-01 1.758657206414002871e+02
1.025952317438758032e-01 1.696736667619794616e+02
1.039363458832726350e-01 1.629252141060596273e+02
1.052774600226694945e-01 1.563733055299632611e+02
1.066185741620663541e-01 1.499357872975960504e+02
1.079596883014631858e-01 1.429685708052203381e+02
1.093008024408600454e-01 1.368610295530286862e+02
1.106419165802569049e-01 1.312325227788281836e+02
1.119830307196537506e-01 1.248874067725893582e+02
1.133241448590506101e-01 1.189576653188187692e+02
1.146652589984474419e-01 1.133908803659303146e+02
1.160063731378443014e-01 1.084879858623904454e+02
1.173474872772411609e-01 1.028504080325387093e+02
1.186886014166380066e-01 9.816795885953656864e+01
1.200297155560348661e-01 9.264889565986314324e+01
1.213708296954317256e-01 8.750488411540810318e+01
1.227119438348285574e-01 8.247576267997881416e+01
1.240530579742254169e-01 7.761874129555152990e+01
1.253941721136222764e-01 7.423065879792697785e+01
1.267352862530191082e-01 6.962286115296848266e+01
1.280764003924159677e-01 6.560338197821442918e+01
1.294175145318128273e-01 6.215465789897596949e+01
1.307586286712096590e-01 5.890096826354817949e+01
1.320997428106065186e-01 5.453883944202281953e+01
1.334408569500033781e-01 5.112520515799592147e+01
1.347819710894002376e-01 4.777010651186452606e+01
1.361230852287970972e-01 4.389743016524229802e+01
1.374641993681939289e-01 4.177641370144651489e+01
1.388053135075907885e-01 3.968900661014829723e+01
1.401464276469876480e-01 3.713762006736124022e+01
1.414875417863844798e-01 3.370530497744238119e+01
1.428286559257813393e-01 3.101245909607108331e+01
1.441697700651781988e-01 2.926068236578805681e+01
1.455108842045750306e-01 2.663385833214903187e+01
1.468519983439718901e-01 2.452484098092529052e+01
1.481931124833687219e-01 2.242394978682206386e+01
1.495342266227655814e-01 2.072469021492975116e+01
1.508753407621624687e-01 1.925426965585404560e+01
1.522164549015593005e-01 1.814456067425092556e+01
1.535575690409561600e-01 1.569542617201140899e+01
1.548986831803530195e-01 1.423346408533872420e+01
1.562397973197498513e-01 1.330693709143955061e+01
1.575809114591467108e-01 1.181020505858164427e+01
1.589220255985435704e-01 1.061630772332361516e+01
1.602631397379404021e-01 9.990873537967601692e+00
1.616042538773372617e-01 8.993262272585226924e+00
1.629453680167341212e-01 8.163604699910152362e+00
1.642864821561309530e-01 8.109058590082412366e+00
1.656275962955278125e-01 6.533112789297305767e+00
1.669687104349246720e-01 5.265989743915227450e+00
1.683098245743215315e-01 5.360430988437755673e+00
1.696509387137183911e-01 5.208144637185398551e+00
1.709920528531152228e-01 4.930469839222467954e+00
1.723331669925120824e-01 4.493294015111075623e+00
1.736742811319089419e-01 3.741784401731848675e+00
1.750153952713057737e-01 3.145173452753880383e+00
1.763565094107026332e-01 3.110350420660424220e+00
1.776976235500994927e-01 3.094476039639275200e+00
1.790387376894963245e-01 2.916927938264421982e+00
1.803798518288931840e-01 2.312657413082988000e+00
1.817209659682900158e-01 2.386783757439658871e+00
1.830620801076868753e-01 2.375561551803599514e+00
1.844031942470837349e-01 2.556755215698231609e+00
1.857443083864805944e-01 2.761864025392085864e+00
1.870854225258774539e-01 2.550103627085476887e+00
1.884265366652743134e-01 2.692644276274066328e+00
1.897676508046711452e-01 2.592778100879925773e+00
1.911087649440680047e-01 2.916908388051254519e+00
1.924498790834648643e-01 3.216530862607996255e+00
1.937909932228616960e-01 2.802471909254720117e+00
1.951321073622585556e-01 2.603745507207875676e+00
1.964732215016554151e-01 2.947942300741331678e+00
1.978143356410522469e-01 2.888002535075081312e+00
1.991554497804491064e-01 3.155984083484469238e+00
2.004965639198459382e-01 3.840369472133865258e+00
2.018376780592427977e-01 2.713078736081726561e+00
2.031787921986396572e-01 2.539985502650068838e+00
2.045199063380365168e-01 3.020271257013270372e+00
2.058610204774333763e-01 3.466208080719098916e+00
2.072021346168302081e-01 3.962319509157246955e+00
2.085432487562270676e-01 4.252022520782233528e+00
2.098843628956239271e-01 4.235620518519276345e+00
2.112254770350207866e-01 4.479472852419860374e+00
2.125665911744176462e-01 4.443835168352961773e+00
2.139077053138144502e-01 4.841415077599798167e+00
2.152488194532113097e-01 4.799641427447731701e+00
2.165899335926081692e-01 4.485531066933532429e+00
2.179310477320050288e-01 4.592670911213495799e+00
2.192721618714018883e-01 5.133776500844255963e+00
2.206132760107987478e-01 5.251317068967715329e+00
2.219543901501955796e-01 5.401069712948704193e+00
2.232955042895924391e-01 5.317159118880134372e+00
2.246366184289892987e-01 5.077044389527969770e+00
2.259777325683861582e-01 5.818693547853222015e+00
2.273188467077830177e-01 5.876698571434168628e+00
2.286599608471798217e-01 5.652924266550527932e+00
2.300010749865766813e-01 5.906996384744054751e+00
2.313421891259735408e-01 5.788280333937869671e+00
2.326833032653704003e-01 5.225053930043685568e+00
2.340244174047672598e-01 5.333313712045068655e+00
2.353655315441641194e-01 5.404386497224038521e+00
2.367066456835609234e-01 5.739642526142716861e+00
2.380477598229577829e-01 5.701746171684526132e+00
2.393888739623546424e-01 5.253890006424846604e+00
2.407299881017515020e-01 5.329459506961704562e+00
2.420711022411483615e-01 5.306491610656145497e+00
2.434122163805451933e-01 5.046176152018759353e+00
2.447533305199420528e-01 4.883203325597456512e+00
2.460944446593389123e-01 5.125672154699955740e+00
2.474355587987357719e-01 5.244205906852336341e+00
2.487766729381326314e-01 5.081084110807424281e+00
2.501177870775294632e-01 5.150056563171055757e+00
2.514589012169263227e-01 5.003951921081657872e+00
2.528000153563231822e-01 5.290351935612797263e+00
2.541411294957200417e-01 4.426761368353595572e+00
2.554822436351169013e-01 4.248627206158410274e+00
2.568233577745137608e-01 3.800966819677370268e+00
2.581644719139106203e-01 3.980698975000812823e+00
2.595055860533074243e-01 3.868370296702785538e+00
2.608467001927042839e-01 3.918877678593439384e+00
2.621878143321011434e-01 3.926088416595085562e+00
2.635289284714980029e-01 4.177159596776540695e+00
2.648700426108948625e-01 3.629775911414263589e+00
2.662111567502916665e-01 3.810996376205942227e+00
2.675522708896885260e-01 4.340537584962845585e+00
2.688933850290853855e-01 4.195813206305942344e+00
2.702344991684822451e-01 3.703645259826529923e+00
2.715756133078791046e-01 3.370551834288583848e+00
2.729167274472759641e-01 2.918024627811220739e+00
2.742578415866727681e-01 2.550869182755334919e+00
2.755989557260696277e-01 2.630915239608732747e+00
2.769400698654664872e-01 2.871389505285947052e+00
2.782811840048633467e-01 2.983735596103521459e+00
2.796222981442602062e-01 2.472557449445929478e+00
2.809634122836570103e-01 1.923639810450666232e+00
2.823045264230538698e-01 2.140045198134721716e+00
2.836456405624507293e-01 1.924501533158675670e+00
2.849867547018475888e-01 2.153664807100078349e+00
2.863278688412444484e-01 2.673308870450824770e+00
2.876689829806413079e-01 2.397845967377740806e+00
2.890100971200381674e-01 2.051962253127918245e+00
2.903512112594350270e-01 2.474604712575235510e+00
2.916923253988318865e-01 1.906819986129974609e+00
2.930334395382287460e-01 1.631084032960053776e+00
2.943745536776256055e-01 1.958206128292097503e+00
2.957156678170224096e-01 2.259489271209687899e+00
2.970567819564192691e-01 2.269207994586714960e+00
2.983978960958161286e-01 2.211142710888815088e+00
2.997390102352129881e-01 2.008339085685683756e+00
3.010801243746098477e-01 1.794451317036696025e+00
3.024212385140067072e-01 1.731778176685629944e+00
3.037623526534035112e-01 1.714475278001373226e+00
3.051034667928003707e-01 1.829680069298049716e+00
3.064445809321972303e-01 1.522182285471124885e+00
3.077856950715940898e-01 1.538135404030533948e+00
3.091268092109909493e-01 1.529575008413587511e+00
3.104679233503877533e-01 1.600716781870616501e+00
3.118090374897846129e-01 1.330345848217710625e+00
3.131501516291814724e-01 1.194548808916174210e+00
3.144912657685783319e-01 1.525236327448780571e+00
3.158323799079751915e-01 1.284309171507644010e+00
3.171734940473720510e-01 1.370351557084013905e+00
3.185146081867689105e-01 1.668989689376275010e+00
3.198557223261657700e-01 1.756942592291359517e+00
3.211968364655626296e-01 1.584829650025021408e+00
3.225379506049594891e-01 1.443794886133566990e+00
3.238790647443563486e-01 1.101247743915926947e+00
3.252201788837532082e-01 1.071950347971714734e+00
3.265612930231500122e-01 1.055518999810914238e+00
3.279024071625468717e-01 1.325760072121894950e+00
3.292435213019437312e-01 1.565518890046412537e+00
3.305846354413405908e-01 1.149522348038999553e+00
3.319257495807374503e-01 1.213699307477774880e+00
3.332668637201342543e-01 1.478169959069568051e+00
3.346079778595311138e-01 1.460177499479989649e+00
3.359490919989279734e-01 1.447460090480383599e+00
3.372902061383248329e-01 1.471524262198165900e+00
3.386313202777216924e-01 1.296062546825901052e+00
3.399724344171185519e-01 1.822267151386164130e+00
3.413135485565153560e-01 1.856130830623833106e+00
3.426546626959122155e-01 1.521647868723469799e+00
3.439957768353090750e-01 1.885207842631828612e+00
3.453368909747059345e-01 1.767951359597439875e+00
3.466780051141027941e-01 1.609957546141075113e+00
3.480191192534995981e-01 1.583785225721001666e+00
3.493602333928964576e-01 1.066706742458272572e+00
3.507013475322933171e-01 1.116970174445249597e+00
3.520424616716901767e-01 1.805563800455033174e+00
3.533835758110870362e-01 1.578552588578226334e+00
3.547246899504838957e-01 1.465844597776879255e+00
3.560658040898807553e-01 2.013147321283057067e+00
3.574069182292776148e-01 1.733183442391037943e+00
3.587480323686744743e-01 1.466787264216243614e+00
3.600891465080713338e-01 1.958586616689039772e+00
3.614302606474681934e-01 1.709865004711062397e+00
3.627713747868649974e-01 1.432173417189780196e+00
3.641124889262618569e-01 1.352441375768286491e+00
3.654536030656587164e-01 1.256459897510659118e+00
3.667947172050555760e-01 1.348137871064771787e+00
3.681358313444524355e-01 1.614936112412991065e+00
3.694769454838492950e-01 1.366779504994354966e+00
3.708180596232460990e-01 1.310127765499480290e+00
3.721591737626429586e-01 1.655858074860951490e+00
3.735002879020398181e-01 1.561784812937794698e+00
3.748414020414366776e-01 1.703159508363427221e+00
3.761825161808335372e-01 1.832224425418360170e+00
3.775236303202303967e-01 1.647895351060618907e+00
3.788647444596272007e-01 1.520242424553131855e+00
3.802058585990240602e-01 1.707389670972105478e+00
3.815469727384209198e-01 1.460395423391126712e+00
3.828880868778177793e-01 1.504603629539829512e+00
3.842292010172146388e-01 1.296228509746342183e+00
3.855703151566114428e-01 1.325187377019524604e+00
3.869114292960083024e-01 1.300818540078459762e+00
3.882525434354051619e-01 1.577297978948024593e+00
3.895936575748020214e-01 1.288600786855845115e+00
3.909347717141988809e-01 1.412595359168776099e+00
3.922758858535957405e-01 1.472625620914186584e+00
3.936169999929926000e-01 1.664702478424366916e+00
3.949581141323894595e-01 1.646073019451257835e+00
3.962992282717863191e-01 1.593483253940043198e+00
3.976403424111831786e-01 1.217078910074647524e+00
3.989814565505800381e-01 1.159275209419021735e+00
4.003225706899768976e-01 1.260752021056781302e+00
4.016636848293737572e-01 1.342297307582747123e+00
4.030047989687706167e-01 1.199256786074094805e+00
4.043459131081674207e-01 1.156820974981656036e+00
4.056870272475643358e-01 9.821404851870596531e-01
4.070281413869611398e-01 1.133512403633339716e+00
4.083692555263580548e-01 1.556400413225119905e+00
4.097103696657548588e-01 1.651136650371228143e+00
4.110514838051517739e-01 1.038983592317237026e+00
4.123925979445485779e-01 9.175450359119068366e-01
4.137337120839453819e-01 8.424970970236316248e-01
4.150748262233422969e-01 1.113872308597613880e+00
4.164159403627391010e-01 1.631219376718249237e+00
4.177570545021360160e-01 1.457911890377253883e+00
4.190981686415328200e-01 1.703732381417495390e+00
4.204392827809296240e-01 1.338888046153954292e+00
4.217803969203265391e-01 1.283165133250861345e+00
4.231215110597233431e-01 1.284781183062641219e+00
4.244626251991202581e-01 1.359718756371449899e+00
4.258037393385170621e-01 9.064419623550818983e-01
4.271448534779138662e-01 1.041089572970690824e+00
4.284859676173107812e-01 1.017402149987866267e+00
4.298270817567075852e-01 1.026419368906275054e+00
4.311681958961045003e-01 9.274747214312455412e-01
4.325093100355013043e-01 1.000587604545863485e+00
4.338504241748981638e-01 1.037522388909238202e+00
4.351915383142950233e-01 9.889814930838483065e-01
4.365326524536918829e-01 1.280453187423084671e+00
4.378737665930887424e-01 1.308146623638670292e+00
4.392148807324856019e-01 1.328523955150750169e+00
4.405559948718824614e-01 1.123604413651705158e+00
4.418971090112793210e-01 1.156804229750854063e+00
4.432382231506761250e-01 1.087447793403896412e+00
4.445793372900730400e-01 1.008639635778962429e+00
4.459204514294698440e-01 8.367969746147991827e-01
4.472615655688667591e-01 1.037859476894290367e+00
4.486026797082635631e-01 1.125868721520781435e+00
4.499437938476603671e-01 1.165854485824283415e+00
4.512849079870572822e-01 8.961401957756933712e-01
4.526260221264540862e-01 1.071512457422493014e+00
4.539671362658510012e-01 1.326998428432226262e+00
4.553082504052478052e-01 9.257306314082356380e-01
4.566493645446446092e-01 6.726193521830410305e-01
4.579904786840415243e-01 7.566512485362579810e-01
4.593315928234383283e-01 9.398044744827913632e-01
4.606727069628352433e-01 8.263320525843766973e-01
4.620138211022320474e-01 1.027757951312750606e+00
4.633549352416289624e-01 9.245865899697349732e-01
4.646960493810257664e-01 1.093669929696091003e+00
4.660371635204225704e-01 1.308534969118944957e+00
4.673782776598194855e-01 1.140400646378871841e+00
4.687193917992162895e-01 1.011857257683111300e+00
4.700605059386132045e-01 8.703423542787689371e-01
4.714016200780100085e-01 8.712017686665305405e-01
4.727427342174068681e-01 9.613431739041118362e-01
4.740838483568037276e-01 9.993093779902508800e-01
4.754249624962005871e-01 9.500544546898410658e-01
4.767660766355974467e-01 1.143439104427528719e+00
4.781071907749943062e-01 1.130254950413558390e+00
4.794483049143911102e-01 1.065372002027551446e+00
4.807894190537880252e-01 1.119561928216903368e+00
4.821305331931848293e-01 9.358185102403950850e-01
4.834716473325817443e-01 1.068173013457197840e+00
4.848127614719785483e-01 1.092661932853133067e+00
4.861538756113753523e-01 1.017253392577359250e+00
4.874949897507722674e-01 7.758126568317038618e-01
4.888361038901690714e-01 7.966166143353277107e-01
4.901772180295659864e-01 8.144628609306892031e-01
4.915183321689627904e-01 7.096668848489571246e-01
4.928594463083597055e-01 6.055473256065653231e-01
4.942005604477565095e-01 7.210984581965789175e-01
4.955416745871533135e-01 7.839636090703550053e-01
4.968827887265502286e-01 5.648340162276923593e-01
4.982239028659470326e-01 7.249805175766255161e-01
4.995650170053439476e-01 1.059962938096660423e+00
5.009061311447408071e-01 7.856495484726622180e-01
5.022472452841375556e-01 7.119769598576084491e-01
5.035883594235345262e-01 4.859604164983721830e-01
5.049294735629312747e-01 7.756028727305022130e-01
5.062705877023282452e-01 7.876772853067350866e-01
5.076117018417249938e-01 9.378177310385780174e-01
5.089528159811218533e-01 7.041233317795700941e-01
5.102939301205187128e-01 7.174420515925206132e-01
5.116350442599155723e-01 6.036660853033239960e-01
5.129761583993124319e-01 3.956924389946081533e-01
5.143172725387092914e-01 7.062838860349387460e-01
5.156583866781061509e-01 8.117752219908140887e-01
5.169995008175030105e-01 9.368420993094233040e-01
5.183406149568997590e-01 6.902687700941925186e-01
5.196817290962967295e-01 5.762421171165144074e-01
5.210228432356934780e-01 6.174774581898603287e-01
5.223639573750904486e-01 7.038809377476553664e-01
5.237050715144871971e-01 6.372201372987333912e-01
5.250461856538840566e-01 6.853338261557126998e-01
5.263872997932809161e-01 6.058364590939007144e-01
5.277284139326777757e-01 6.926261207682244958e-01
5.290695280720746352e-01 7.028008178698001984e-01
5.304106422114714947e-01 7.545748370228295698e-01
5.317517563508683542e-01 6.051467840940460974e-01
5.330928704902652138e-01 6.069688455222177481e-01
5.344339846296620733e-01 4.206691063738290381e-01
5.357750987690589328e-01 5.424048650808188654e-01
5.371162129084557924e-01 5.110020283050928924e-01
5.384573270478525409e-01 6.715717318298288774e-01
5.397984411872495114e-01 8.573408454570170534e-01
5.411395553266462599e-01 1.159954175810753441e+00
5.424806694660432305e-01 1.074583837271923414e+00
5.438217836054399790e-01 1.140695611253505604e+00
5.451628977448369495e-01 7.052318884109922692e-01
5.465040118842336980e-01 8.344821933994666097e-01
5.478451260236305576e-01 9.323219590162494796e-01
5.491862401630274171e-01 8.682393051439305509e-01
5.505273543024242766e-01 3.375343122968246234e-01
5.518684684418211361e-01 3.177990147886262662e-01
5.532095825812179957e-01 6.111309778490294775e-01
5.545506967206147442e-01 4.946929051735722283e-01
