# q (1/Angstrom), Intensity (arb)
2.078726924066784734e-02 1.699998564702208625e+02
2.212838338006469993e-02 3.251404714070417867e+02
2.346949751946154905e-02 4.848094168010582052e+02
2.481061165885840164e-02 6.713306836188465923e+02
2.615172579825525423e-02 7.502177884904123175e+02
2.749283993765210335e-02 7.861634561116811710e+02
2.883395407704895941e-02 8.222518326877175241e+02
3.017506821644580506e-02 8.460868830234555844e+02
3.151618235584265765e-02 8.515476176161361082e+02
3.285729649523951718e-02 8.465987462511740205e+02
3.419841063463636283e-02 8.401297028767055508e+02
3.553952477403321542e-02 8.352109620527560310e+02
3.688063891343006800e-02 8.317483896143692164e+02
3.822175305282692059e-02 8.211973821859319287e+02
3.956286719222376624e-02 8.148050347742985196e+02
4.090398133162062577e-02 8.076533468450585360e+02
4.224509547101747142e-02 7.957739577494904779e+02
4.358620961041432401e-02 7.859869168828066677e+02
4.492732374981117660e-02 7.787684921444516704e+02
4.626843788920802919e-02 7.693812107178594033e+02
4.760955202860488178e-02 7.600764943608162412e+02
4.895066616800172743e-02 7.472792215035437948e+02
5.029178030739858696e-02 7.352704942280139448e+02
5.163289444679544649e-02 7.244583287425466551e+02
5.297400858619229214e-02 7.159306384028609500e+02
5.431512272558913779e-02 7.032759052781453875e+02
5.565623686498599731e-02 6.864741819227429005e+02
5.699735100438284990e-02 6.709265210738774385e+02
5.833846514377969555e-02 6.581377945807143988e+02
5.967957928317654814e-02 6.459706479801008072e+02
6.102069342257340767e-02 6.285696500551763393e+02
6.236180756197025332e-02 6.153462024969498998e+02
6.370292170136709897e-02 6.023678639186186956e+02
6.504403584076395850e-02 5.904539445916153682e+02
6.638514998016080415e-02 5.753025376019594432e+02
6.772626411955766368e-02 5.567258381391094417e+02
6.906737825895450933e-02 5.379034577845175136e+02
7.040849239835136886e-02 5.222159444996151478e+02
7.174960653774821451e-02 5.065234457247258888e+02
7.309072067714506016e-02 4.895112388816211819e+02
7.443183481654190581e-02 4.719832375092108805e+02
7.577294895593877921e-02 4.585604488660234779e+02
7.711406309533562486e-02 4.435927344050465990e+02
7.845517723473247051e-02 4.279913867627412856e+02
7.979629137412933004e-02 4.122828595415545578e+02
8.113740551352617569e-02 3.974583564782129770e+02
8.247851965292302134e-02 3.814998866854240305e+02
8.381963379231988087e-02 3.660159261075054360e+02
8.516074793171674040e-02 3.527928882823505319e+02
8.650186207111358605e-02 3.401313557495554960e+02
8.784297621051043170e-02 3.253159072697517331e+02
8.918409034990729123e-02 3.105772385921428622e+02
9.052520448930413688e-02 2.994123850482706075e+02
9.186631862870098253e-02 2.857568359345276576e+02
9.320743276809784206e-02 2.736356529320693198e+02
9.454854690749470159e-02 2.615392803206781309e+02
9.588966104689154724e-02 2.485330858341879434e+02
9.723077518628839289e-02 2.383831468657040773e+02
9.857188932568525241e-02 2.324714282249469193e+02
9.991300346508209806e-02 2.350209913314681671e+02
1.012541176044789437e-01 2.367309719776160932e+02
1.025952317438758032e-01 2.378767317785204227e+02
1.039363458832726350e-01 2.677184449047202293e+02
1.052774600226694945e-01 3.620781054494395335e+02
1.066185741620663541e-01 4.182174991994149877e+02
1.079596883014631858e-01 3.344244094652548256e+02
1.093008024408600454e-01 2.300552802778539672e+02
1.106419165802569049e-01 1.832787263243137659e+02
1.119830307196537506e-01 1.640782829097361173e+02
1.133241448590506101e-01 1.506813912877622670e+02
1.146652589984474419e-01 1.377654648695144601e+02
1.160063731378443014e-01 1.273091427653069587e+02
1.173474872772411609e-01 1.165466311731076416e+02
1.186886014166380066e-01 1.082651265045404045e+02
1.200297155560348661e-01 1.059757468627777683e+02
1.213708296954317256e-01 1.106269217415497792e+02
1.227119438348285574e-01 1.153785844336138950e+02
1.240530579742254169e-01 1.010597422763642612e+02
1.253941721136222764e-01 7.653610468360592733e+01
1.267352862530191082e-01 6.181543169567684970e+01
1.280764003924159677e-01 5.482277425851053465e+01
1.294175145318128273e-01 4.978185064177256436e+01
1.307586286712096590e-01 4.498454530127855833e+01
1.320997428106065186e-01 4.065128290122510180e+01
1.334408569500033781e-01 3.646924885023246077e+01
1.347819710894002376e-01 3.299443093251142045e+01
1.361230852287970972e-01 2.918257476341260315e+01
1.374641993681939289e-01 2.594034367598398205e+01
1.388053135075907885e-01 2.383595688147241276e+01
1.401464276469876480e-01 2.156922402385647786e+01
1.414875417863844798e-01 1.898197280081203075e+01
1.428286559257813393e-01 1.671578876061857954e+01
1.441697700651781988e-01 1.453426056261086785e+01
1.455108842045750306e-01 1.309243486594058936e+01
1.468519983439718901e-01 1.183549607945272442e+01
1.481931124833687219e-01 1.094323219206339104e+01
1.495342266227655814e-01 9.411824474860068790e+00
1.508753407621624687e-01 8.226968210858004227e+00
1.522164549015593005e-01 6.951619597403180251e+00
1.535575690409561600e-01 5.392478277624491056e+00
1.548986831803530195e-01 5.540499930100267534e+00
1.562397973197498513e-01 5.081511645431277202e+00
1.575809114591467108e-01 3.854289657359387888e+00
1.589220255985435704e-01 3.696837980169036086e+00
1.602631397379404021e-01 3.094655690160308836e+00
1.616042538773372617e-01 2.662750586040743883e+00
1.629453680167341212e-01 2.589927003498331715e+00
1.642864821561309530e-01 2.666382376791816000e+00
1.656275962955278125e-01 2.569233814872717403e+00
1.669687104349246720e-01 2.717863708967442449e+00
1.683098245743215315e-01 2.048736387339616272e+00
1.696509387137183911e-01 2.237032336598403504e+00
1.709920528531152228e-01 2.984104125073614000e+00
1.723331669925120824e-01 4.650545240749664799e+00
1.736742811319089419e-01 6.014204512244006651e+00
1.750153952713057737e-01 5.281734072814941783e+00
1.763565094107026332e-01 4.358702791968482870e+00
1.776976235500994927e-01 3.584334739708452844e+00
1.790387376894963245e-01 4.036302477433395097e+00
1.803798518288931840e-01 4.784835638336687680e+00
1.817209659682900158e-01 5.024972728896273111e+00
1.830620801076868753e-01 5.274384496270272393e+00
1.844031942470837349e-01 5.588615916560613073e+00
1.857443083864805944e-01 6.329619757695638782e+00
1.870854225258774539e-01 6.714185098437710053e+00
1.884265366652743134e-01 6.332019228367386177e+00
1.897676508046711452e-01 6.354052426299304557e+00
1.911087649440680047e-01 7.395318038458469800e+00
1.924498790834648643e-01 7.541049788294117207e+00
1.937909932228616960e-01 7.273992041044436974e+00
1.951321073622585556e-01 7.360582412546349929e+00
1.964732215016554151e-01 7.451861130067626959e+00
1.978143356410522469e-01 8.263045174228807355e+00
1.991554497804491064e-01 8.561936657508809390e+00
2.004965639198459382e-01 9.671604301148107652e+00
2.018376780592427977e-01 1.271754670798233633e+01
2.031787921986396572e-01 1.785378028030109476e+01
2.045199063380365168e-01 1.923462619008641639e+01
2.058610204774333763e-01 1.437240620527769863e+01
2.072021346168302081e-01 1.123060828988003834e+01
2.085432487562270676e-01 1.004152996486519100e+01
2.098843628956239271e-01 9.841782957602788429e+00
2.112254770350207866e-01 1.052497117739542887e+01
2.125665911744176462e-01 1.146712562531739366e+01
2.139077053138144502e-01 1.084467384861092398e+01
2.152488194532113097e-01 9.656108641250497726e+00
2.165899335926081692e-01 8.985111157751973110e+00
2.179310477320050288e-01 8.780987665785673357e+00
2.192721618714018883e-01 8.049917681653091961e+00
2.206132760107987478e-01 7.738394434485563522e+00
2.219543901501955796e-01 7.468771597779081617e+00
2.232955042895924391e-01 7.177199427536429255e+00
2.246366184289892987e-01 7.059784723121879324e+00
2.259777325683861582e-01 6.525682971775808028e+00
2.273188467077830177e-01 6.738527432204854506e+00
2.286599608471798217e-01 6.773070219219277988e+00
2.300010749865766813e-01 6.945101560891757231e+00
2.313421891259735408e-01 6.764115951156895790e+00
2.326833032653704003e-01 6.081458557278374144e+00
2.340244174047672598e-01 5.530284334258503520e+00
2.353655315441641194e-01 6.335273521836789712e+00
2.367066456835609234e-01 6.232996300135866363e+00
2.380477598229577829e-01 5.465124188239926184e+00
2.393888739623546424e-01 4.384163379484405709e+00
2.407299881017515020e-01 4.220499263346418672e+00
2.420711022411483615e-01 4.351960332675112397e+00
2.434122163805451933e-01 4.257396644827643684e+00
2.447533305199420528e-01 4.308632311810569604e+00
2.460944446593389123e-01 3.993706713718658818e+00
2.474355587987357719e-01 3.973906580446403325e+00
2.487766729381326314e-01 3.340017559736111252e+00
2.501177870775294632e-01 3.145418748934623920e+00
2.514589012169263227e-01 3.074610040978470238e+00
2.528000153563231822e-01 3.020472274503099186e+00
2.541411294957200417e-01 2.843152656054058980e+00
2.554822436351169013e-01 2.649329487044994380e+00
2.568233577745137608e-01 1.971872717624918891e+00
2.581644719139106203e-01 1.639155555672864750e+00
2.595055860533074243e-01 1.879261075937911585e+00
2.608467001927042839e-01 2.089216328689332158e+00
2.621878143321011434e-01 2.158168573704507764e+00
2.635289284714980029e-01 1.901623703334699655e+00
2.648700426108948625e-01 2.015394992436299049e+00
2.662111567502916665e-01 1.830820950532221048e+00
2.675522708896885260e-01 1.866185691311848416e+00
2.688933850290853855e-01 2.035212115327041715e+00
2.702344991684822451e-01 1.511473930195563753e+00
2.715756133078791046e-01 1.226894482919007601e+00
2.729167274472759641e-01 1.124475315640559359e+00
2.742578415866727681e-01 8.810977298809561375e-01
2.755989557260696277e-01 1.165041557604240552e+00
2.769400698654664872e-01 1.427723719192556473e+00
2.782811840048633467e-01 1.466315030513364093e+00
2.796222981442602062e-01 1.251002592652000089e+00
2.809634122836570103e-01 1.410013477430858586e+00
2.823045264230538698e-01 7.843904285865619386e-01
2.836456405624507293e-01 6.088227010680924423e-01
2.849867547018475888e-01 1.253391308074959909e+00
2.863278688412444484e-01 1.263371123333868695e+00
2.876689829806413079e-01 1.261851733599293368e+00
2.890100971200381674e-01 1.391764382015637125e+00
2.903512112594350270e-01 1.684280144092547005e+00
2.916923253988318865e-01 9.944678966551947497e-01
2.930334395382287460e-01 8.308203161748437537e-01
2.943745536776256055e-01 1.062266957043043192e+00
2.957156678170224096e-01 1.386675327648845268e+00
2.970567819564192691e-01 1.457054793665186310e+00
2.983978960958161286e-01 1.611130010334761664e+00
2.997390102352129881e-01 1.284963697006531902e+00
3.010801243746098477e-01 1.479221625193140710e+00
3.024212385140067072e-01 1.562350463763870323e+00
3.037623526534035112e-01 1.643939739124320454e+00
3.051034667928003707e-01 1.526591076333190244e+00
3.064445809321972303e-01 1.348706939377585456e+00
3.077856950715940898e-01 1.715899467183774618e+00
3.091268092109909493e-01 2.033471771419300467e+00
3.104679233503877533e-01 1.840773059311821669e+00
3.118090374897846129e-01 1.694275708497229971e+00
3.131501516291814724e-01 1.664019315942823596e+00
3.144912657685783319e-01 1.951346732210659241e+00
3.158323799079751915e-01 2.086293534393853122e+00
3.171734940473720510e-01 2.434330029692603148e+00
3.185146081867689105e-01 2.396438429892469912e+00
3.198557223261657700e-01 2.372990100595821161e+00
3.211968364655626296e-01 2.345527276946484108e+00
3.225379506049594891e-01 2.086097848300980218e+00
3.238790647443563486e-01 1.418561412523942522e+00
3.252201788837532082e-01 1.467206340116909757e+00
3.265612930231500122e-01 1.988485836294948683e+00
3.279024071625468717e-01 2.481762588926905266e+00
3.292435213019437312e-01 2.117839707736386856e+00
3.305846354413405908e-01 2.145039204186282689e+00
3.319257495807374503e-01 1.591145866436917800e+00
3.332668637201342543e-01 1.386704880900069270e+00
3.346079778595311138e-01 1.531669550542957836e+00
3.359490919989279734e-01 2.248721488680324399e+00
3.372902061383248329e-01 2.386651342882373683e+00
3.386313202777216924e-01 1.890523829065003270e+00
3.399724344171185519e-01 1.459022663634279127e+00
3.413135485565153560e-01 1.722080070746699221e+00
3.426546626959122155e-01 1.729601367212730167e+00
3.439957768353090750e-01 1.770230710583462042e+00
3.453368909747059345e-01 1.225388693567040832e+00
3.466780051141027941e-01 1.331919551475039043e+00
3.480191192534995981e-01 1.558349649924494429e+00
3.493602333928964576e-01 1.711511382406101234e+00
3.507013475322933171e-01 1.790690208104187775e+00
3.520424616716901767e-01 1.598663708598543565e+00
3.533835758110870362e-01 1.155524388713189410e+00
3.547246899504838957e-01 1.428142100554921967e+00
3.560658040898807553e-01 1.582389448123819875e+00
3.574069182292776148e-01 1.294184087847746412e+00
3.587480323686744743e-01 1.269859325084389923e+00
3.600891465080713338e-01 1.372859385750821559e+00
3.614302606474681934e-01 1.436442444425111375e+00
3.627713747868649974e-01 1.113191497101894356e+00
3.641124889262618569e-01 1.078984762609699999e+00
3.654536030656587164e-01 1.567561298606960918e+00
3.667947172050555760e-01 1.323616915561530050e+00
3.681358313444524355e-01 1.186070434568009091e+00
3.694769454838492950e-01 1.046112397351194545e+00
3.708180596232460990e-01 5.332795569478463449e-01
3.721591737626429586e-01 7.138138092970933712e-01
3.735002879020398181e-01 8.544275054626808696e-01
3.748414020414366776e-01 8.489975961602880261e-01
3.761825161808335372e-01 1.059279124659184390e+00
3.775236303202303967e-01 1.360628260736461925e+00
3.788647444596272007e-01 1.238816595394808928e+00
3.802058585990240602e-01 1.065775851566584720e+00
3.815469727384209198e-01 1.028742322680813004e+00
3.828880868778177793e-01 9.938413549917157752e-01
3.842292010172146388e-01 1.091133469163374059e+00
3.855703151566114428e-01 1.397216482015075201e+00
3.869114292960083024e-01 1.464718689964129794e+00
3.882525434354051619e-01 1.106980217681417855e+00
3.895936575748020214e-01 9.468310079360122700e-01
3.909347717141988809e-01 1.155649611949037592e+00
3.922758858535957405e-01 9.297191175941250663e-01
3.936169999929926000e-01 9.143570897102861750e-01
3.949581141323894595e-01 6.759940807734921009e-01
3.962992282717863191e-01 4.777388854213313607e-01
3.976403424111831786e-01 8.341998055690567071e-01
3.989814565505800381e-01 5.442277795690202424e-01
4.003225706899768976e-01 6.515624136546875889e-01
4.016636848293737572e-01 8.064567961432302923e-01
4.030047989687706167e-01 9.763336606742143431e-01
4.043459131081674207e-01 1.078577202215925013e+00
4.056870272475643358e-01 9.555242778265125025e-01
4.070281413869611398e-01 1.028763120035975476e+00
4.083692555263580548e-01 9.796078733070530120e-01
4.097103696657548588e-01 8.690047514496512804e-01
4.110514838051517739e-01 6.817705575075621027e-01
4.123925979445485779e-01 9.149078132431469612e-01
4.137337120839453819e-01 9.475593627722957990e-01
4.150748262233422969e-01 9.664112687556567494e-01
4.164159403627391010e-01 9.008177470656519858e-01
4.177570545021360160e-01 9.325846784500839703e-01
4.190981686415328200e-01 9.080038313919516213e-01
4.204392827809296240e-01 9.991621059944577610e-01
4.217803969203265391e-01 1.112388277080121668e+00
4.231215110597233431e-01 1.065763926586107857e+00
4.244626251991202581e-01 9.283778624576086713e-01
4.258037393385170621e-01 7.018624468686667228e-01
4.271448534779138662e-01 7.868844297502235463e-01
4.284859676173107812e-01 7.724394152214628662e-01
4.298270817567075852e-01 7.988258148722451324e-01
4.311681958961045003e-01 9.484158071445705218e-01
4.325093100355013043e-01 8.551054648743132702e-01
4.338504241748981638e-01 1.037652263980817224e+00
4.351915383142950233e-01 1.246920669383882796e+00
4.365326524536918829e-01 9.162758007059466081e-01
4.378737665930887424e-01 8.013145210477503610e-01
4.392148807324856019e-01 1.106861737356588549e+00
4.405559948718824614e-01 1.069488354121027385e+00
4.418971090112793210e-01 1.070508507435334877e+00
4.432382231506761250e-01 1.173811440116310223e+00
4.445793372900730400e-01 1.092486748678091146e+00
4.459204514294698440e-01 9.948993538294104155e-01
4.472615655688667591e-01 1.312199810167079761e+00
4.486026797082635631e-01 1.339359366295909126e+00
4.499437938476603671e-01 8.658781980154302005e-01
4.512849079870572822e-01 1.102420181948502886e+00
4.526260221264540862e-01 1.033507595840589488e+00
4.539671362658510012e-01 7.698472490952354974e-01
4.553082504052478052e-01 5.267332629695502533e-01
4.566493645446446092e-01 8.170752908943370585e-01
4.579904786840415243e-01 6.360557330450404834e-01
4.593315928234383283e-01 6.089104275806462852e-01
4.606727069628352433e-01 9.391204979778819961e-01
4.620138211022320474e-01 6.147507551385658076e-01
4.633549352416289624e-01 6.379630166407679326e-01
4.646960493810257664e-01 9.982565742728510827e-01
4.660371635204225704e-01 8.198188733446372112e-01
4.673782776598194855e-01 8.465554941903903341e-01
4.687193917992162895e-01 1.153702451838810816e+00
4.700605059386132045e-01 9.359060553667575277e-01
4.714016200780100085e-01 8.068916242269352779e-01
4.727427342174068681e-01 1.123256145641079229e+00
4.740838483568037276e-01 1.067353914697903861e+00
4.754249624962005871e-01 9.479538350830338800e-01
4.767660766355974467e-01 7.807527296121321569e-01
4.781071907749943062e-01 1.066741282963072024e+00
4.794483049143911102e-01 1.171008618728535566e+00
4.807894190537880252e-01 1.018958574021468166e+00
4.821305331931848293e-01 6.500373918276096674e-01
4.834716473325817443e-01 8.644155566412905500e-01
4.848127614719785483e-01 1.013907915036298846e+00
4.861538756113753523e-01 8.189860493447582712e-01
4.874949897507722674e-01 4.551843892152476201e-01
4.888361038901690714e-01 4.953311743728647798e-01
4.901772180295659864e-01 7.526402501398550271e-01
4.915183321689627904e-01 9.762241515232759070e-01
4.928594463083597055e-01 6.743903262183863490e-01
4.942005604477565095e-01 6.039480182862178026e-01
4.955416745871533135e-01 4.137088729881241989e-01
4.968827887265502286e-01 5.640443964887751349e-01
4.982239028659470326e-01 9.054017868267294489e-01
4.995650170053439476e-01 6.910408385490711680e-01
5.009061311447408071e-01 8.597278608349938622e-01
5.022472452841375556e-01 6.119901773338796147e-01
5.035883594235345262e-01 7.181656950384081028e-01
5.049294735629312747e-01 7.802997256281614114e-01
5.062705877023282452e-01 4.307012475274163421e-01
5.076117018417249938e-01 4.330144690016410891e-01
5.089528159811218533e-01 1.672996201693663920e-01
5.102939301205187128e-01 2.355805266329724645e-02
5.116350442599155723e-01 3.645606684957627408e-01
5.129761583993124319e-01 3.494285826295495667e-01
5.143172725387092914e-01 1.676144016764098410e-01
5.156583866781061509e-01 6.203395590512172930e-01
5.169995008175030105e-01 7.972192432143501151e-01
5.183406149568997590e-01 5.235443487234974214e-01
5.196817290962967295e-01 5.417864767334208409e-01
5.210228432356934780e-01 5.488517162211650202e-01
5.223639573750904486e-01 5.967365514772993151e-01
5.237050715144871971e-01 5.310770600038026146e-01
5.250461856538840566e-01 5.151629440543317173e-01
5.263872997932809161e-01 4.274090081313488554e-01
5.277284139326777757e-01 4.414430324819917928e-01
5.290695280720746352e-01 8.676465762946818927e-01
5.304106422114714947e-01 6.970310952265066362e-01
5.317517563508683542e-01 6.484379537716549180e-01
5.330928704902652138e-01 4.330699036089384890e-01
5.344339846296620733e-01 3.002566750685744523e-01
5.357750987690589328e-01 2.719645127780836447e-01
5.371162129084557924e-01 3.394777701645992352e-01
5.384573270478525409e-01 4.979379703613346919e-01
5.397984411872495114e-01 4.818004251288385831e-01
5.411395553266462599e-01 5.354918471784486655e-01
5.424806694660432305e-01 6.738311280348696641e-01
5.438217836054399790e-01 4.957418005251525983e-01
5.451628977448369495e-01 5.358891584202041258e-01
5.465040118842336980e-01 3.405253731375026405e-01
5.478451260236305576e-01 3.045028148309754101e-01
5.491862401630274171e-01 4.514307568353359557e-01
5.505273543024242766e-01 1.625254643195574999e-01
5.518684684418211361e-01 4.089962205341706181e-01
5.532095825812179957e-01 4.356202000296462984e-01
5.545506967206147442e-01 3.653381791617249519e-01
