# q (1/Angstrom), Intensity (arb)
2.078726924066784734e-02 2.190864651263012775e+01
2.212838338006469993e-02 6.443645044527727350e+01
2.346949751946154905e-02 9.662522332768904221e+01
2.481061165885840164e-02 1.190379948986936256e+02
2.615172579825525423e-02 1.291463408557639525e+02
2.749283993765210335e-02 1.305661725771851991e+02
2.883395407704895941e-02 1.332194704213945045e+02
3.017506821644580506e-02 1.364060301450307691e+02
3.151618235584265765e-02 1.358610825250731580e+02
3.285729649523951718e-02 1.337155208423551755e+02
3.419841063463636283e-02 1.314870965109972474e+02
3.553952477403321542e-02 1.301546371097552992e+02
3.688063891343006800e-02 1.272437914365354317e+02
3.822175305282692059e-02 1.234361992428227950e+02
3.956286719222376624e-02 1.219846420804411053e+02
4.090398133162062577e-02 1.208987973527994058e+02
4.224509547101747142e-02 1.192117977161153135e+02
4.358620961041432401e-02 1.158661213138104813e+02
4.492732374981117660e-02 1.141547727428899606e+02
4.626843788920802919e-02 1.129214340107976113e+02
4.760955202860488178e-02 1.121552627117133625e+02
4.895066616800172743e-02 1.100307773077507818e+02
5.029178030739858696e-02 1.075611806538357911e+02
5.163289444679544649e-02 1.044908141573168621e+02
5.297400858619229214e-02 1.037031960335906859e+02
5.431512272558913779e-02 1.040214444978824133e+02
5.565623686498599731e-02 1.012966628422198880e+02
5.699735100438284990e-02 9.939717248127146831e+01
5.833846514377969555e-02 9.709615834283772529e+01
5.967957928317654814e-02 9.368791047215177059e+01
6.102069342257340767e-02 9.038297497773928058e+01
6.236180756197025332e-02 9.034796996603884622e+01
6.370292170136709897e-02 8.873074516828978631e+01
6.504403584076395850e-02 8.706224432362718346e+01
6.638514998016080415e-02 8.479111173237178889e+01
6.772626411955766368e-02 8.276182126097205582e+01
6.906737825895450933e-02 8.063078527588513111e+01
7.040849239835136886e-02 7.795972816836655284e+01
7.174960653774821451e-02 7.578870536470454056e+01
7.309072067714506016e-02 7.490140326414709193e+01
7.443183481654190581e-02 7.302999463741321051e+01
7.577294895593877921e-02 7.237371326389335024e+01
7.711406309533562486e-02 7.069408220724103842e+01
7.845517723473247051e-02 6.946236718694123624e+01
7.979629137412933004e-02 6.909387937516552824e+01
8.113740551352617569e-02 6.803099872806544113e+01
8.247851965292302134e-02 6.816403125958190401e+01
8.381963379231988087e-02 6.819484672429200600e+01
8.516074793171674040e-02 7.210027104186301017e+01
8.650186207111358605e-02 8.976659395075725456e+01
8.784297621051043170e-02 1.516482970129079604e+02
8.918409034990729123e-02 2.862149876661787289e+02
9.052520448930413688e-02 4.347080028606196720e+02
9.186631862870098253e-02 6.700644698688242897e+02
9.320743276809784206e-02 1.413562458437686928e+03
9.454854690749470159e-02 2.472497293144961077e+03
9.588966104689154724e-02 2.455975490922289737e+03
9.723077518628839289e-02 1.422135780151465042e+03
9.857188932568525241e-02 7.480049326761404700e+02
9.991300346508209806e-02 4.964436465602515796e+02
1.012541176044789437e-01 3.905697703217974777e+02
1.025952317438758032e-01 3.260320938647691946e+02
1.039363458832726350e-01 2.784459583652932224e+02
1.052774600226694945e-01 2.450480051044704055e+02
1.066185741620663541e-01 2.492268121988144571e+02
1.079596883014631858e-01 3.349023333953263091e+02
1.093008024408600454e-01 4.421886378777608684e+02
1.106419165802569049e-01 3.806360852268977055e+02
1.119830307196537506e-01 2.074057140219190956e+02
1.133241448590506101e-01 9.783751172901587267e+01
1.146652589984474419e-01 5.548281002438972109e+01
1.160063731378443014e-01 3.935840940930025056e+01
1.173474872772411609e-01 3.083793491024688649e+01
1.186886014166380066e-01 2.607815096873621030e+01
1.200297155560348661e-01 2.295444333193314890e+01
1.213708296954317256e-01 1.929474345592629447e+01
1.227119438348285574e-01 1.664679969761166944e+01
1.240530579742254169e-01 1.505430852363815575e+01
1.253941721136222764e-01 1.343884894389182705e+01
1.267352862530191082e-01 1.171050982367013660e+01
1.280764003924159677e-01 1.053532621070989705e+01
1.294175145318128273e-01 9.456212085325816474e+00
1.307586286712096590e-01 9.144972836378968850e+00
1.320997428106065186e-01 8.157363379669973824e+00
1.334408569500033781e-01 8.379755038812263024e+00
1.347819710894002376e-01 7.708484555583751785e+00
1.361230852287970972e-01 6.202499634811445617e+00
1.374641993681939289e-01 5.521701826156828474e+00
1.388053135075907885e-01 6.630817159379716941e+00
1.401464276469876480e-01 5.821731912618915317e+00
1.414875417863844798e-01 4.692810500388915784e+00
1.428286559257813393e-01 4.362886168736793024e+00
1.441697700651781988e-01 4.573460786324915262e+00
1.455108842045750306e-01 4.973233353779619392e+00
1.468519983439718901e-01 4.735017580991126351e+00
1.481931124833687219e-01 4.924087688595250256e+00
1.495342266227655814e-01 5.373486537047199363e+00
1.508753407621624687e-01 6.776527723130953973e+00
1.522164549015593005e-01 1.196137458856598812e+01
1.535575690409561600e-01 2.587668869909242630e+01
1.548986831803530195e-01 4.361240029380638816e+01
1.562397973197498513e-01 3.953259802547421486e+01
1.575809114591467108e-01 2.238809700520621959e+01
1.589220255985435704e-01 1.369226651750892643e+01
1.602631397379404021e-01 1.063258101667970834e+01
1.616042538773372617e-01 8.816573465746557758e+00
1.629453680167341212e-01 8.325279095938270757e+00
1.642864821561309530e-01 9.148755911944775221e+00
1.656275962955278125e-01 9.449518301446190094e+00
1.669687104349246720e-01 9.737475109220099512e+00
1.683098245743215315e-01 9.069969457938384494e+00
1.696509387137183911e-01 9.510484285401432203e+00
1.709920528531152228e-01 9.444125078053275502e+00
1.723331669925120824e-01 1.047968393329638559e+01
1.736742811319089419e-01 1.075357290019573497e+01
1.750153952713057737e-01 1.068285647497917523e+01
1.763565094107026332e-01 1.267424352318771241e+01
1.776976235500994927e-01 1.775036665470879882e+01
1.790387376894963245e-01 3.661263012517689219e+01
1.803798518288931840e-01 8.385236751786618470e+01
1.817209659682900158e-01 1.336875272877925909e+02
1.830620801076868753e-01 1.179728304095818316e+02
1.844031942470837349e-01 6.682672547135534558e+01
1.857443083864805944e-01 3.933455141705269398e+01
1.870854225258774539e-01 3.145757975564416142e+01
1.884265366652743134e-01 3.478846953855349966e+01
1.897676508046711452e-01 4.073680864464134288e+01
1.911087649440680047e-01 3.426887385060794600e+01
1.924498790834648643e-01 2.032125529238294348e+01
1.937909932228616960e-01 1.131022636016507477e+01
1.951321073622585556e-01 8.274920124036768243e+00
1.964732215016554151e-01 6.634932466646560556e+00
1.978143356410522469e-01 5.901289396245275043e+00
1.991554497804491064e-01 5.287076732909937959e+00
2.004965639198459382e-01 4.180348723549229817e+00
2.018376780592427977e-01 4.076337202530410764e+00
2.031787921986396572e-01 4.177583097603374540e+00
2.045199063380365168e-01 4.682550918636451343e+00
2.058610204774333763e-01 4.138012287757860008e+00
2.072021346168302081e-01 3.403601338391680997e+00
2.085432487562270676e-01 2.839593077239470631e+00
2.098843628956239271e-01 3.522415407392429643e+00
2.112254770350207866e-01 3.276665592796192072e+00
2.125665911744176462e-01 3.126630413748046067e+00
2.139077053138144502e-01 3.329870677054600492e+00
2.152488194532113097e-01 3.616474766908623906e+00
2.165899335926081692e-01 3.872015464691060060e+00
2.179310477320050288e-01 4.796549895863712720e+00
2.192721618714018883e-01 4.771826197771446232e+00
2.206132760107987478e-01 4.144462933795594495e+00
2.219543901501955796e-01 3.106719729061239832e+00
2.232955042895924391e-01 2.761796423613539275e+00
2.246366184289892987e-01 2.808747271484271835e+00
2.259777325683861582e-01 2.573608395053319953e+00
2.273188467077830177e-01 2.548944910845108325e+00
2.286599608471798217e-01 2.299807426423875256e+00
2.300010749865766813e-01 1.519438896680412654e+00
2.313421891259735408e-01 2.025411998428843674e+00
2.326833032653704003e-01 2.076737050656156214e+00
2.340244174047672598e-01 1.507190398205906945e+00
2.353655315441641194e-01 1.710011286622005855e+00
2.367066456835609234e-01 1.628556147498180451e+00
2.380477598229577829e-01 1.498424645142229394e+00
2.393888739623546424e-01 1.316047205013184396e+00
2.407299881017515020e-01 9.705767943663161645e-01
2.420711022411483615e-01 9.769672906422997016e-01
2.434122163805451933e-01 1.679936033661448391e+00
2.447533305199420528e-01 1.935504165252588393e+00
2.460944446593389123e-01 2.463535978482340738e+00
2.474355587987357719e-01 2.230687381844980166e+00
2.487766729381326314e-01 1.370227773881829592e+00
2.501177870775294632e-01 1.398429204250589919e+00
2.514589012169263227e-01 1.563569738633219686e+00
2.528000153563231822e-01 1.794004430136446615e+00
2.541411294957200417e-01 1.700960843283432666e+00
2.554822436351169013e-01 1.666541324182169603e+00
2.568233577745137608e-01 1.087908514218973721e+00
2.581644719139106203e-01 1.361779629463079289e+00
2.595055860533074243e-01 1.465768525432658009e+00
2.608467001927042839e-01 1.805865086493909644e+00
2.621878143321011434e-01 1.730132515354405598e+00
2.635289284714980029e-01 1.923138488018139469e+00
2.648700426108948625e-01 2.931886053877377663e+00
2.662111567502916665e-01 3.751630735055002219e+00
2.675522708896885260e-01 5.707439555787047425e+00
2.688933850290853855e-01 6.917495458859782786e+00
2.702344991684822451e-01 5.727386912045481893e+00
2.715756133078791046e-01 4.057137546319971477e+00
2.729167274472759641e-01 2.841889000902185103e+00
2.742578415866727681e-01 2.380067677867742759e+00
2.755989557260696277e-01 1.945814146397935929e+00
2.769400698654664872e-01 2.414277073288261022e+00
2.782811840048633467e-01 2.519399498103076951e+00
2.796222981442602062e-01 2.479598277185736777e+00
2.809634122836570103e-01 3.152622838343255296e+00
2.823045264230538698e-01 4.702294673192078278e+00
2.836456405624507293e-01 7.236556236178763868e+00
2.849867547018475888e-01 8.732236222227676592e+00
2.863278688412444484e-01 7.605574136041525435e+00
2.876689829806413079e-01 4.804960872022228102e+00
2.890100971200381674e-01 3.139063604953229003e+00
2.903512112594350270e-01 2.653905947860955905e+00
2.916923253988318865e-01 2.386997333372512742e+00
2.930334395382287460e-01 1.613496687403092267e+00
2.943745536776256055e-01 1.866056508091496369e+00
2.957156678170224096e-01 1.732382052828597807e+00
2.970567819564192691e-01 1.512213186965510658e+00
2.983978960958161286e-01 1.533155615132614003e+00
2.997390102352129881e-01 1.515558086314356956e+00
3.010801243746098477e-01 1.111670262360263450e+00
3.024212385140067072e-01 1.145490690172081827e+00
3.037623526534035112e-01 1.171995868764646787e+00
3.051034667928003707e-01 1.721723239170579234e+00
3.064445809321972303e-01 1.365606516345913235e+00
3.077856950715940898e-01 1.254632406817194124e+00
3.091268092109909493e-01 1.988945755688533268e+00
3.104679233503877533e-01 2.250997012093108651e+00
3.118090374897846129e-01 1.766874394808397142e+00
3.131501516291814724e-01 1.414956327430239469e+00
3.144912657685783319e-01 1.400457082353788962e+00
3.158323799079751915e-01 1.646256465407660130e+00
3.171734940473720510e-01 1.773185199456968064e+00
3.185146081867689105e-01 1.052115820310618233e+00
3.198557223261657700e-01 1.236424502603156839e+00
3.211968364655626296e-01 1.489135699922336187e+00
3.225379506049594891e-01 1.537169951232755238e+00
3.238790647443563486e-01 1.558004563344184135e+00
3.252201788837532082e-01 1.464500984240928005e+00
3.265612930231500122e-01 1.679721083940741266e+00
3.279024071625468717e-01 1.810208820708893995e+00
3.292435213019437312e-01 1.546380885049266851e+00
3.305846354413405908e-01 1.332172250984292816e+00
3.319257495807374503e-01 9.529633720047172574e-01
3.332668637201342543e-01 7.395538486340598183e-01
3.346079778595311138e-01 7.882598350347151950e-01
3.359490919989279734e-01 1.065837344969182254e+00
3.372902061383248329e-01 1.194997101876637657e+00
3.386313202777216924e-01 1.170603074351198813e+00
3.399724344171185519e-01 1.043183189587971071e+00
3.413135485565153560e-01 1.021744747270631137e+00
3.426546626959122155e-01 8.817034181746166155e-01
3.439957768353090750e-01 1.003291521530663033e+00
3.453368909747059345e-01 1.226570485986030690e+00
3.466780051141027941e-01 9.030325543177397662e-01
3.480191192534995981e-01 7.051136994351168141e-01
3.493602333928964576e-01 8.948842993802728074e-01
3.507013475322933171e-01 1.189087238043519790e+00
3.520424616716901767e-01 9.932496423056633716e-01
3.533835758110870362e-01 7.011873329758273599e-01
3.547246899504838957e-01 8.032483787344517623e-01
3.560658040898807553e-01 1.235792072276275633e+00
3.574069182292776148e-01 1.272181412722133587e+00
3.587480323686744743e-01 1.048269731256567638e+00
3.600891465080713338e-01 1.428902995659782960e+00
3.614302606474681934e-01 1.196531174749111415e+00
3.627713747868649974e-01 1.476901924092366869e+00
3.641124889262618569e-01 9.355875655534759971e-01
3.654536030656587164e-01 1.318753885069746445e+00
3.667947172050555760e-01 1.125511791319176780e+00
3.681358313444524355e-01 8.493775246343915342e-01
3.694769454838492950e-01 7.289174648298413217e-01
3.708180596232460990e-01 4.270819072925533533e-01
3.721591737626429586e-01 2.216619345369394978e-01
3.735002879020398181e-01 4.447089905715060354e-01
3.748414020414366776e-01 6.992013097685756406e-01
3.761825161808335372e-01 7.384163264801841819e-01
3.775236303202303967e-01 1.161033597267092432e+00
3.788647444596272007e-01 1.385534493085252450e+00
3.802058585990240602e-01 1.240757232760437034e+00
3.815469727384209198e-01 1.086563153771663792e+00
3.828880868778177793e-01 1.357707315908520229e+00
3.842292010172146388e-01 1.430069251184754364e+00
3.855703151566114428e-01 1.518153340862987477e+00
3.869114292960083024e-01 1.540186462407234558e+00
3.882525434354051619e-01 1.236158509152119223e+00
3.895936575748020214e-01 1.513704813341327338e+00
3.909347717141988809e-01 1.888143734180722788e+00
3.922758858535957405e-01 1.827715320315370207e+00
3.936169999929926000e-01 1.892037575104417613e+00
3.949581141323894595e-01 1.884871584966369085e+00
3.962992282717863191e-01 1.781430737223665517e+00
3.976403424111831786e-01 1.327700287528813305e+00
3.989814565505800381e-01 7.744607080897267792e-01
4.003225706899768976e-01 9.509281459542719972e-01
4.016636848293737572e-01 1.092188013078612130e+00
4.030047989687706167e-01 1.050240600213925291e+00
4.043459131081674207e-01 1.112543406697923842e+00
4.056870272475643358e-01 1.250481207650473436e+00
4.070281413869611398e-01 1.271347086856238207e+00
4.083692555263580548e-01 1.540176915252985168e+00
4.097103696657548588e-01 1.450189499766999290e+00
4.110514838051517739e-01 1.085054225072610734e+00
4.123925979445485779e-01 1.243328819333264335e+00
4.137337120839453819e-01 1.167924953501675134e+00
4.150748262233422969e-01 9.742815376240017144e-01
4.164159403627391010e-01 5.653966518869566471e-01
4.177570545021360160e-01 6.756151803057903749e-01
4.190981686415328200e-01 1.140178236917705590e+00
4.204392827809296240e-01 1.101814616661641821e+00
4.217803969203265391e-01 1.157396245866792128e+00
4.231215110597233431e-01 1.094102422360343496e+00
4.244626251991202581e-01 1.078537179315297578e+00
4.258037393385170621e-01 8.237351283513731914e-01
4.271448534779138662e-01 2.717289322196734247e-01
4.284859676173107812e-01 4.176233274345335644e-01
4.298270817567075852e-01 6.387562859304267704e-01
4.311681958961045003e-01 7.919967928361302256e-01
4.325093100355013043e-01 5.366097875866771005e-01
4.338504241748981638e-01 6.414008583971408939e-01
4.351915383142950233e-01 1.255329176323400020e+00
4.365326524536918829e-01 1.072093321749420625e+00
4.378737665930887424e-01 7.548011051176075625e-01
4.392148807324856019e-01 9.038346570270476832e-01
4.405559948718824614e-01 7.259828416889178015e-01
4.418971090112793210e-01 9.231841489891081665e-01
4.432382231506761250e-01 1.109089464903917133e+00
4.445793372900730400e-01 9.595410740679213291e-01
4.459204514294698440e-01 1.023603865439532967e+00
4.472615655688667591e-01 1.186528861261550105e+00
4.486026797082635631e-01 9.387608313025381790e-01
4.499437938476603671e-01 6.484179014808333363e-01
4.512849079870572822e-01 1.022599412439603839e+00
4.526260221264540862e-01 9.970836338517230502e-01
4.539671362658510012e-01 9.486832462973495694e-01
4.553082504052478052e-01 8.349106902565281985e-01
4.566493645446446092e-01 1.124932537337159033e+00
4.579904786840415243e-01 7.775464202339108510e-01
4.593315928234383283e-01 3.804363740732057408e-01
4.606727069628352433e-01 4.514948862733945134e-01
4.620138211022320474e-01 5.877904483425098192e-01
4.633549352416289624e-01 7.607047961852373419e-01
4.646960493810257664e-01 1.178662359800270565e+00
4.660371635204225704e-01 8.367166307080253773e-01
4.673782776598194855e-01 5.675320516380537583e-01
4.687193917992162895e-01 7.576463399061594828e-01
4.700605059386132045e-01 7.478424900274731613e-01
4.714016200780100085e-01 4.837837904762025687e-01
4.727427342174068681e-01 8.461953984599901446e-01
4.740838483568037276e-01 9.304813265999811733e-01
4.754249624962005871e-01 1.137237323905495145e+00
4.767660766355974467e-01 1.032309298806616482e+00
4.781071907749943062e-01 1.046555884213191234e+00
4.794483049143911102e-01 8.222720127574874027e-01
4.807894190537880252e-01 8.725214115422232908e-01
4.821305331931848293e-01 6.213202959994532648e-01
4.834716473325817443e-01 8.031485653934424818e-01
4.848127614719785483e-01 8.711731313393187293e-01
4.861538756113753523e-01 7.931608079485243934e-01
4.874949897507722674e-01 5.945477667597671712e-01
4.888361038901690714e-01 8.192907812603706930e-01
4.901772180295659864e-01 7.940321073904712534e-01
4.915183321689627904e-01 1.084163802097904750e+00
4.928594463083597055e-01 9.200511993722102488e-01
4.942005604477565095e-01 8.410378586280344848e-01
4.955416745871533135e-01 9.510377907337002057e-01
4.968827887265502286e-01 7.595837743479023629e-01
4.982239028659470326e-01 1.113009443294281198e+00
4.995650170053439476e-01 1.157282879405975962e+00
5.009061311447408071e-01 1.043156632395557892e+00
5.022472452841375556e-01 1.122876635664979972e+00
5.035883594235345262e-01 1.106549700167200001e+00
5.049294735629312747e-01 9.726979797730095356e-01
5.062705877023282452e-01 6.686973802603262129e-01
5.076117018417249938e-01 6.109135610198705990e-01
5.089528159811218533e-01 3.815659809719349482e-01
5.102939301205187128e-01 8.048963688739974032e-02
5.116350442599155723e-01 3.715132048372851159e-01
5.129761583993124319e-01 3.645000009153704923e-01
5.143172725387092914e-01 2.664995897835140681e-01
5.156583866781061509e-01 7.280155158023333684e-01
5.169995008175030105e-01 8.218413305685530190e-01
5.183406149568997590e-01 7.163047587798914151e-01
5.196817290962967295e-01 8.789172738547748054e-01
5.210228432356934780e-01 9.243249709931617986e-01
5.223639573750904486e-01 8.671863416688552206e-01
5.237050715144871971e-01 7.229444507522018171e-01
5.250461856538840566e-01 3.216124142185421420e-01
5.263872997932809161e-01 2.844706211241714300e-01
5.277284139326777757e-01 6.668919183196493350e-01
5.290695280720746352e-01 9.900739224588619436e-01
5.304106422114714947e-01 7.801061810282021725e-01
5.317517563508683542e-01 9.307240099365472474e-01
5.330928704902652138e-01 6.342622526437295960e-01
5.344339846296620733e-01 4.515019987711568206e-01
5.357750987690589328e-01 4.388709121805334235e-01
5.371162129084557924e-01 4.625936375013139923e-01
5.384573270478525409e-01 3.343490895771026317e-01
5.397984411872495114e-01 3.151691427330476358e-01
5.411395553266462599e-01 6.104418712998764818e-01
5.424806694660432305e-01 6.394035371808968193e-01
5.438217836054399790e-01 7.986246900565845408e-01
5.451628977448369495e-01 4.819648633979412011e-01
5.465040118842336980e-01 3.330108995277925032e-01
5.478451260236305576e-01 5.483548838400267300e-01
5.491862401630274171e-01 4.417585776589803004e-01
5.505273543024242766e-01 1.600852439014275319e-01
5.518684684418211361e-01 2.672673443109943037e-01
5.532095825812179957e-01 5.102868066717789475e-01
5.545506967206147442e-01 6.061312560768712387e-01
