# q (1/Angstrom), Intensity (arb)
2.078726924066784734e-02 2.988346406397184296e+01
2.212838338006469993e-02 8.356966776764807037e+01
2.346949751946154905e-02 1.185079407111041974e+02
2.481061165885840164e-02 1.492143397064389490e+02
2.615172579825525423e-02 1.639234072429738376e+02
2.749283993765210335e-02 1.676017558731452937e+02
2.883395407704895941e-02 1.738976565660163374e+02
3.017506821644580506e-02 1.780583993879054390e+02
3.151618235584265765e-02 1.788752686248299142e+02
3.285729649523951718e-02 1.727565233849663571e+02
3.419841063463636283e-02 1.710080453234789957e+02
3.553952477403321542e-02 1.708436589309713440e+02
3.688063891343006800e-02 1.674463079694283465e+02
3.822175305282692059e-02 1.626338234843912005e+02
3.956286719222376624e-02 1.614904454828605367e+02
4.090398133162062577e-02 1.580200154666099479e+02
4.224509547101747142e-02 1.561946449646970336e+02
4.358620961041432401e-02 1.539859887514754178e+02
4.492732374981117660e-02 1.520105747399324798e+02
4.626843788920802919e-02 1.512202930950002440e+02
4.760955202860488178e-02 1.475795312355317606e+02
4.895066616800172743e-02 1.439290480186572836e+02
5.029178030739858696e-02 1.421816894867860128e+02
5.163289444679544649e-02 1.383834100232878654e+02
5.297400858619229214e-02 1.364123179853781949e+02
5.431512272558913779e-02 1.342558305704828854e+02
5.565623686498599731e-02 1.303102688801380395e+02
5.699735100438284990e-02 1.280032120831337465e+02
5.833846514377969555e-02 1.265363574445355113e+02
5.967957928317654814e-02 1.233472023781313851e+02
6.102069342257340767e-02 1.209999694438373439e+02
6.236180756197025332e-02 1.193525378440306355e+02
6.370292170136709897e-02 1.157373415744314542e+02
6.504403584076395850e-02 1.123072426778775679e+02
6.638514998016080415e-02 1.096913328587865806e+02
6.772626411955766368e-02 1.081177202481533470e+02
6.906737825895450933e-02 1.046171803759578864e+02
7.040849239835136886e-02 1.001619395796781333e+02
7.174960653774821451e-02 9.789705789235537736e+01
7.309072067714506016e-02 9.639319970841697227e+01
7.443183481654190581e-02 9.342913693009590759e+01
7.577294895593877921e-02 9.103466384984722026e+01
7.711406309533562486e-02 8.801145164428076839e+01
7.845517723473247051e-02 8.560021412209606240e+01
7.979629137412933004e-02 8.379390619839672638e+01
8.113740551352617569e-02 8.277984379697134898e+01
8.247851965292302134e-02 8.068069549157445408e+01
8.381963379231988087e-02 7.957312837857601551e+01
8.516074793171674040e-02 7.797179839951814984e+01
8.650186207111358605e-02 8.067138671186273768e+01
8.784297621051043170e-02 8.757882794506187452e+01
8.918409034990729123e-02 1.186985638101081406e+02
9.052520448930413688e-02 2.107911835315547933e+02
9.186631862870098253e-02 3.464100724670487921e+02
9.320743276809784206e-02 4.773292598684159884e+02
9.454854690749470159e-02 8.441961487334665435e+02
9.588966104689154724e-02 1.787824110235909757e+03
9.723077518628839289e-02 2.502224573725209666e+03
9.857188932568525241e-02 1.889295280447674713e+03
9.991300346508209806e-02 9.423616292924693880e+02
1.012541176044789437e-01 5.313625043985140337e+02
1.025952317438758032e-01 3.980707540445773702e+02
1.039363458832726350e-01 3.332991533349677979e+02
1.052774600226694945e-01 2.841736246641708021e+02
1.066185741620663541e-01 2.430954804363829851e+02
1.079596883014631858e-01 2.212208690177405401e+02
1.093008024408600454e-01 2.395556061185377246e+02
1.106419165802569049e-01 3.410628796440701649e+02
1.119830307196537506e-01 4.286572479411809127e+02
1.133241448590506101e-01 3.340211713622672391e+02
1.146652589984474419e-01 1.661004614507742190e+02
1.160063731378443014e-01 7.939981160655121073e+01
1.173474872772411609e-01 4.949439707646780562e+01
1.186886014166380066e-01 3.740139901317448334e+01
1.200297155560348661e-01 3.072986719781077625e+01
1.213708296954317256e-01 2.558653566200122498e+01
1.227119438348285574e-01 2.235816120583290001e+01
1.240530579742254169e-01 1.921399933588840270e+01
1.253941721136222764e-01 1.648276843095122501e+01
1.267352862530191082e-01 1.549951583430734559e+01
1.280764003924159677e-01 1.374971226003765423e+01
1.294175145318128273e-01 1.231871714085578162e+01
1.307586286712096590e-01 1.153245505968000373e+01
1.320997428106065186e-01 9.960975086234199694e+00
1.334408569500033781e-01 9.444006571484621304e+00
1.347819710894002376e-01 8.596508796943837183e+00
1.361230852287970972e-01 7.611640356996716150e+00
1.374641993681939289e-01 6.506932360175255781e+00
1.388053135075907885e-01 6.634780561630265083e+00
1.401464276469876480e-01 6.692506019691890629e+00
1.414875417863844798e-01 5.823034746150213437e+00
1.428286559257813393e-01 5.348281941740083312e+00
1.441697700651781988e-01 4.906507971349739705e+00
1.455108842045750306e-01 5.198868304046456501e+00
1.468519983439718901e-01 4.348606201631085355e+00
1.481931124833687219e-01 5.201682701637437845e+00
1.495342266227655814e-01 5.753072516535070235e+00
1.508753407621624687e-01 5.355021773587438361e+00
1.522164549015593005e-01 4.759697587400623320e+00
1.535575690409561600e-01 4.791695964537836971e+00
1.548986831803530195e-01 6.479070654734968571e+00
1.562397973197498513e-01 1.338773533240991753e+01
1.575809114591467108e-01 2.910105473618742167e+01
1.589220255985435704e-01 3.903302770246001785e+01
1.602631397379404021e-01 2.764958425176529033e+01
1.616042538773372617e-01 1.450763249380598552e+01
1.629453680167341212e-01 9.288005631532143980e+00
1.642864821561309530e-01 8.258844466863763500e+00
1.656275962955278125e-01 7.765787274795727058e+00
1.669687104349246720e-01 7.681920497724817665e+00
1.683098245743215315e-01 7.219812777367735634e+00
1.696509387137183911e-01 7.780355513486895802e+00
1.709920528531152228e-01 7.943563728466671137e+00
1.723331669925120824e-01 9.039352457742921843e+00
1.736742811319089419e-01 9.431431612612882986e+00
1.750153952713057737e-01 9.075149542191851992e+00
1.763565094107026332e-01 8.748745639147287534e+00
1.776976235500994927e-01 8.872526108044098692e+00
1.790387376894963245e-01 9.601004399048093774e+00
1.803798518288931840e-01 1.163322687994070748e+01
1.817209659682900158e-01 1.624737116105433188e+01
1.830620801076868753e-01 3.307211258397967413e+01
1.844031942470837349e-01 7.669267991524290551e+01
1.857443083864805944e-01 1.229781663061682906e+02
1.870854225258774539e-01 1.088597340333550534e+02
1.884265366652743134e-01 5.991052854013354079e+01
1.897676508046711452e-01 3.274211571001225707e+01
1.911087649440680047e-01 2.598434757903591219e+01
1.924498790834648643e-01 2.904154059825334855e+01
1.937909932228616960e-01 3.601485348479135951e+01
1.951321073622585556e-01 3.298700023124474967e+01
1.964732215016554151e-01 1.958012980087072208e+01
1.978143356410522469e-01 1.082336141743530789e+01
1.991554497804491064e-01 7.680374635600202282e+00
2.004965639198459382e-01 6.013484899178322962e+00
2.018376780592427977e-01 5.481015472147163337e+00
2.031787921986396572e-01 5.201932579554622293e+00
2.045199063380365168e-01 5.285736835899527364e+00
2.058610204774333763e-01 4.883278461045193808e+00
2.072021346168302081e-01 4.443264676846553130e+00
2.085432487562270676e-01 3.444631217563625114e+00
2.098843628956239271e-01 3.831231660723815935e+00
2.112254770350207866e-01 4.337924773309509874e+00
2.125665911744176462e-01 4.156660216481839143e+00
2.139077053138144502e-01 3.406468961886233160e+00
2.152488194532113097e-01 3.414165497770383695e+00
2.165899335926081692e-01 3.755066199552842932e+00
2.179310477320050288e-01 4.039030243332931036e+00
2.192721618714018883e-01 3.670000031331397849e+00
2.206132760107987478e-01 3.360159405371973662e+00
2.219543901501955796e-01 3.429382654582440182e+00
2.232955042895924391e-01 4.438908694466192628e+00
2.246366184289892987e-01 5.100480303350281019e+00
2.259777325683861582e-01 4.303895234745780840e+00
2.273188467077830177e-01 3.562249894354479807e+00
2.286599608471798217e-01 2.875143911293548626e+00
2.300010749865766813e-01 2.530832906476291555e+00
2.313421891259735408e-01 2.355524445412882528e+00
2.326833032653704003e-01 2.491354203705739678e+00
2.340244174047672598e-01 2.092504514469680998e+00
2.353655315441641194e-01 2.413092124806908600e+00
2.367066456835609234e-01 2.660089623571877837e+00
2.380477598229577829e-01 2.041470020175850664e+00
2.393888739623546424e-01 1.503015613952342733e+00
2.407299881017515020e-01 1.321976644327889971e+00
2.420711022411483615e-01 1.100044336512908671e+00
2.434122163805451933e-01 1.695402594286832709e+00
2.447533305199420528e-01 1.272318856950192867e+00
2.460944446593389123e-01 1.421690573705319594e+00
2.474355587987357719e-01 1.721235524026482722e+00
2.487766729381326314e-01 1.391270166203611325e+00
2.501177870775294632e-01 1.744608432898559158e+00
2.514589012169263227e-01 1.728294729897982052e+00
2.528000153563231822e-01 1.619250790174575627e+00
2.541411294957200417e-01 1.838607775418424239e+00
2.554822436351169013e-01 1.916236715859895412e+00
2.568233577745137608e-01 1.037961035601256299e+00
2.581644719139106203e-01 1.569959804328988184e+00
2.595055860533074243e-01 1.789787742764815448e+00
2.608467001927042839e-01 1.416638381667382873e+00
2.621878143321011434e-01 1.532412132863527177e+00
2.635289284714980029e-01 1.586114415090094099e+00
2.648700426108948625e-01 1.718332500448887856e+00
2.662111567502916665e-01 1.584792226384564628e+00
2.675522708896885260e-01 1.958903543142582748e+00
2.688933850290853855e-01 2.409748242263582085e+00
2.702344991684822451e-01 2.081428445771976499e+00
2.715756133078791046e-01 2.442709914332041876e+00
2.729167274472759641e-01 3.380196872265372576e+00
2.742578415866727681e-01 5.173542234389927330e+00
2.755989557260696277e-01 5.515149615270487971e+00
2.769400698654664872e-01 4.086874469330666670e+00
2.782811840048633467e-01 2.815155971973602789e+00
2.796222981442602062e-01 2.350763148773879152e+00
2.809634122836570103e-01 2.569795663174986089e+00
2.823045264230538698e-01 2.531595959297568754e+00
2.836456405624507293e-01 2.555205206263167383e+00
2.849867547018475888e-01 2.720410207029438254e+00
2.863278688412444484e-01 3.001393846374220686e+00
2.876689829806413079e-01 3.163193548337481786e+00
2.890100971200381674e-01 4.621585828024009857e+00
2.903512112594350270e-01 7.315304635842245773e+00
2.916923253988318865e-01 7.751101217318627334e+00
2.930334395382287460e-01 5.363168254959738590e+00
2.943745536776256055e-01 3.468033440347127794e+00
2.957156678170224096e-01 2.378996053786138987e+00
2.970567819564192691e-01 1.911879443466176554e+00
2.983978960958161286e-01 1.781818703016234906e+00
2.997390102352129881e-01 1.447037464417221031e+00
3.010801243746098477e-01 1.297210555155778877e+00
3.024212385140067072e-01 1.220759043912600816e+00
3.037623526534035112e-01 1.563288107756214629e+00
3.051034667928003707e-01 1.919147304804091902e+00
3.064445809321972303e-01 1.564312929262356988e+00
3.077856950715940898e-01 1.385131193706236274e+00
3.091268092109909493e-01 1.393340205224284034e+00
3.104679233503877533e-01 1.297367026301884607e+00
3.118090374897846129e-01 1.275778408823590837e+00
3.131501516291814724e-01 1.567525084035729321e+00
3.144912657685783319e-01 1.677470824178513453e+00
3.158323799079751915e-01 2.006373057737604881e+00
3.171734940473720510e-01 2.165555509010928859e+00
3.185146081867689105e-01 1.804254804965346182e+00
3.198557223261657700e-01 1.720281721047818735e+00
3.211968364655626296e-01 1.545613603013144655e+00
3.225379506049594891e-01 1.014125917149009126e+00
3.238790647443563486e-01 5.888815266819662497e-01
3.252201788837532082e-01 1.094297414445634331e+00
3.265612930231500122e-01 1.416044278083340657e+00
3.279024071625468717e-01 1.730249038974797315e+00
3.292435213019437312e-01 1.488087619686368157e+00
3.305846354413405908e-01 1.950414047997909961e+00
3.319257495807374503e-01 2.105221774145199731e+00
3.332668637201342543e-01 1.808478003758793307e+00
3.346079778595311138e-01 1.628453382932853799e+00
3.359490919989279734e-01 1.767120812549563880e+00
3.372902061383248329e-01 1.538236222979875834e+00
3.386313202777216924e-01 1.430699167718621823e+00
3.399724344171185519e-01 1.117612758368473180e+00
3.413135485565153560e-01 1.296922705777646456e+00
3.426546626959122155e-01 8.493800499094277257e-01
3.439957768353090750e-01 1.279116550054695267e+00
3.453368909747059345e-01 9.069303956864729344e-01
3.466780051141027941e-01 7.440810785656353232e-01
3.480191192534995981e-01 3.661875407660772908e-01
3.493602333928964576e-01 6.247083564546258572e-01
3.507013475322933171e-01 6.995098555865766343e-01
3.520424616716901767e-01 8.468825790108951423e-01
3.533835758110870362e-01 6.863439330636751379e-01
3.547246899504838957e-01 5.794463708633443844e-01
3.560658040898807553e-01 8.767516491056994710e-01
3.574069182292776148e-01 6.928696800818698875e-01
3.587480323686744743e-01 3.497399469793478488e-01
3.600891465080713338e-01 8.848745387371081961e-01
3.614302606474681934e-01 1.119122212025843055e+00
3.627713747868649974e-01 1.032734263222266691e+00
3.641124889262618569e-01 8.984381297489392182e-01
3.654536030656587164e-01 1.165318985981357969e+00
3.667947172050555760e-01 1.109079709813045156e+00
3.681358313444524355e-01 8.230904877501643568e-01
3.694769454838492950e-01 9.166190728104979257e-01
3.708180596232460990e-01 8.237947098974132132e-01
3.721591737626429586e-01 1.023923356097142801e+00
3.735002879020398181e-01 1.314031434653124109e+00
3.748414020414366776e-01 9.760202685873622386e-01
3.761825161808335372e-01 7.382027253039140646e-01
3.775236303202303967e-01 1.088662228110003127e+00
3.788647444596272007e-01 1.279957597752002130e+00
3.802058585990240602e-01 1.214375748654262566e+00
3.815469727384209198e-01 1.155121643810119281e+00
3.828880868778177793e-01 8.883857120281959396e-01
3.842292010172146388e-01 1.111633734306323618e+00
3.855703151566114428e-01 1.324874342517105674e+00
3.869114292960083024e-01 1.197765018829393568e+00
3.882525434354051619e-01 1.120887562792113101e+00
3.895936575748020214e-01 1.328066561740129714e+00
3.909347717141988809e-01 1.564310068240679641e+00
3.922758858535957405e-01 1.057123497864473904e+00
3.936169999929926000e-01 1.083919481487825465e+00
3.949581141323894595e-01 1.142943389454416092e+00
3.962992282717863191e-01 1.266762608014708746e+00
3.976403424111831786e-01 1.717898952704835835e+00
3.989814565505800381e-01 1.547530281600856483e+00
4.003225706899768976e-01 2.088709009248645998e+00
4.016636848293737572e-01 2.062952959780638196e+00
4.030047989687706167e-01 2.065605001431059407e+00
4.043459131081674207e-01 1.872803929327567118e+00
4.056870272475643358e-01 1.890653308412488798e+00
4.070281413869611398e-01 1.464384271038341012e+00
4.083692555263580548e-01 1.577658401394252508e+00
4.097103696657548588e-01 1.324017384707346423e+00
4.110514838051517739e-01 9.969936194562620813e-01
4.123925979445485779e-01 1.179020338422766656e+00
4.137337120839453819e-01 9.382828079455265424e-01
4.150748262233422969e-01 1.162142952414150443e+00
4.164159403627391010e-01 1.250470293729826210e+00
4.177570545021360160e-01 1.181098895141055038e+00
4.190981686415328200e-01 1.329782955561931601e+00
4.204392827809296240e-01 1.315778009918787461e+00
4.217803969203265391e-01 1.451699706979098892e+00
4.231215110597233431e-01 1.466365195002069299e+00
4.244626251991202581e-01 8.349841300824394352e-01
4.258037393385170621e-01 6.947731632613809438e-01
4.271448534779138662e-01 7.620164456542966036e-01
4.284859676173107812e-01 6.603718093023687175e-01
4.298270817567075852e-01 8.967363139232844560e-01
4.311681958961045003e-01 1.073814165134798770e+00
4.325093100355013043e-01 1.091666569177341728e+00
4.338504241748981638e-01 9.651270196433898718e-01
4.351915383142950233e-01 1.452515200745700952e+00
4.365326524536918829e-01 8.488567789873613378e-01
4.378737665930887424e-01 6.680903752208209312e-01
4.392148807324856019e-01 1.122214133033615724e+00
4.405559948718824614e-01 1.139966113381291279e+00
4.418971090112793210e-01 9.327265590802440443e-01
4.432382231506761250e-01 1.319220341272178132e+00
4.445793372900730400e-01 1.006220690223571523e+00
4.459204514294698440e-01 9.893437399967766055e-01
4.472615655688667591e-01 1.037394665960988505e+00
4.486026797082635631e-01 1.139677323562835909e+00
4.499437938476603671e-01 8.667236039610912712e-01
4.512849079870572822e-01 9.363833870160149786e-01
4.526260221264540862e-01 9.986698749182494339e-01
4.539671362658510012e-01 9.454964110967125634e-01
4.553082504052478052e-01 6.908383813262872764e-01
4.566493645446446092e-01 8.715713407486234132e-01
4.579904786840415243e-01 4.826675262321771243e-01
4.593315928234383283e-01 2.207763071129633659e-01
4.606727069628352433e-01 4.294876215616554305e-01
4.620138211022320474e-01 4.676208538776691626e-01
4.633549352416289624e-01 6.907595096644385535e-01
4.646960493810257664e-01 1.017219077735617816e+00
4.660371635204225704e-01 8.371885513430399328e-01
4.673782776598194855e-01 7.071938695851116563e-01
4.687193917992162895e-01 1.228999660030048346e+00
4.700605059386132045e-01 1.051954161657477016e+00
4.714016200780100085e-01 6.605113071612223052e-01
4.727427342174068681e-01 1.250178670238803136e+00
4.740838483568037276e-01 1.141230561061178150e+00
4.754249624962005871e-01 1.044735361656037753e+00
4.767660766355974467e-01 8.120392716017335033e-01
4.781071907749943062e-01 9.072273394836116722e-01
4.794483049143911102e-01 5.960592109826379215e-01
4.807894190537880252e-01 9.093530921772128295e-01
4.821305331931848293e-01 8.901800874358301030e-01
4.834716473325817443e-01 1.166744658309859517e+00
4.848127614719785483e-01 1.066303328454473842e+00
4.861538756113753523e-01 9.345833665250040667e-01
4.874949897507722674e-01 8.225567001051814486e-01
4.888361038901690714e-01 8.073043409268834125e-01
4.901772180295659864e-01 7.831414027079262041e-01
4.915183321689627904e-01 9.499436301941059924e-01
4.928594463083597055e-01 7.736591208055969560e-01
4.942005604477565095e-01 4.980547528090681908e-01
4.955416745871533135e-01 5.167553742846422438e-01
4.968827887265502286e-01 5.476092893779451742e-01
4.982239028659470326e-01 8.608321866985733095e-01
4.995650170053439476e-01 6.939164993359128175e-01
5.009061311447408071e-01 6.556245127074902257e-01
5.022472452841375556e-01 6.308510848129884607e-01
5.035883594235345262e-01 8.650662506153352638e-01
5.049294735629312747e-01 7.999768859551394939e-01
5.062705877023282452e-01 6.343058972793969019e-01
5.076117018417249938e-01 7.188934483940983000e-01
5.089528159811218533e-01 5.256573597452245394e-01
5.102939301205187128e-01 3.519150450634214167e-01
5.116350442599155723e-01 6.992106128223127826e-01
5.129761583993124319e-01 7.562501056501247376e-01
5.143172725387092914e-01 3.387840007247291396e-01
5.156583866781061509e-01 7.284380243583754577e-01
5.169995008175030105e-01 8.506685994708433896e-01
5.183406149568997590e-01 6.979718013778892782e-01
5.196817290962967295e-01 6.763887713452660932e-01
5.210228432356934780e-01 8.490478239371483937e-01
5.223639573750904486e-01 6.697562450350815766e-01
5.237050715144871971e-01 6.980980742211571055e-01
5.250461856538840566e-01 9.246997943672994325e-01
5.263872997932809161e-01 5.629388070258158905e-01
5.277284139326777757e-01 2.461832522794651368e-01
5.290695280720746352e-01 6.715422049276895677e-01
5.304106422114714947e-01 6.611065990735767173e-01
5.317517563508683542e-01 1.076024134391175835e+00
5.330928704902652138e-01 9.193408472311261903e-01
5.344339846296620733e-01 6.111787108141442104e-01
5.357750987690589328e-01 5.553499097174281474e-01
5.371162129084557924e-01 5.854276568943177494e-01
5.384573270478525409e-01 7.320030413317297757e-01
5.397984411872495114e-01 6.402893182576008257e-01
5.411395553266462599e-01 7.789904905425402148e-01
5.424806694660432305e-01 6.656276322697749492e-01
5.438217836054399790e-01 7.290178558855586743e-01
5.451628977448369495e-01 5.007001068310472647e-01
5.465040118842336980e-01 4.121900401931242186e-01
5.478451260236305576e-01 4.367556881026217752e-01
5.491862401630274171e-01 3.147297570684202128e-01
5.505273543024242766e-01 0.000000000000000000e+00
5.518684684418211361e-01 2.869993246383941710e-01
5.532095825812179957e-01 5.957183816564466383e-01
5.545506967206147442e-01 5.856075893120262776e-01
