# q (1/Angstrom), Intensity (arb)
2.078726924066784734e-02 1.915401449919059473e+01
2.212838338006469993e-02 6.247407594340290871e+01
2.346949751946154905e-02 8.940765963937502647e+01
2.481061165885840164e-02 1.111150683051784540e+02
2.615172579825525423e-02 1.193999164635609134e+02
2.749283993765210335e-02 1.233359173956560824e+02
2.883395407704895941e-02 1.248089456581727745e+02
3.017506821644580506e-02 1.241097256480821613e+02
3.151618235584265765e-02 1.247838515080260322e+02
3.285729649523951718e-02 1.240522956661907301e+02
3.419841063463636283e-02 1.214398133852972848e+02
3.553952477403321542e-02 1.188475892423009270e+02
3.688063891343006800e-02 1.156460010082604839e+02
3.822175305282692059e-02 1.129376152561057012e+02
3.956286719222376624e-02 1.126094606489030099e+02
4.090398133162062577e-02 1.127920471165529221e+02
4.224509547101747142e-02 1.109096672673151858e+02
4.358620961041432401e-02 1.074119589977888722e+02
4.492732374981117660e-02 1.052965340173357305e+02
4.626843788920802919e-02 1.046082400473891596e+02
4.760955202860488178e-02 1.022937062248421825e+02
4.895066616800172743e-02 9.986213442764295678e+01
5.029178030739858696e-02 9.782718209699781653e+01
5.163289444679544649e-02 9.594251334353630511e+01
5.297400858619229214e-02 9.585503670035565449e+01
5.431512272558913779e-02 9.494254674852192011e+01
5.565623686498599731e-02 9.178143003661539012e+01
5.699735100438284990e-02 8.923453785647161851e+01
5.833846514377969555e-02 8.869130923853148829e+01
5.967957928317654814e-02 8.625710355579550992e+01
6.102069342257340767e-02 8.408938067513690839e+01
6.236180756197025332e-02 8.434112469078674224e+01
6.370292170136709897e-02 8.169725518523355845e+01
6.504403584076395850e-02 8.076841601848734342e+01
6.638514998016080415e-02 7.915665480033440815e+01
6.772626411955766368e-02 7.692585986225749650e+01
6.906737825895450933e-02 7.510817769129607768e+01
7.040849239835136886e-02 7.333716964888904499e+01
7.174960653774821451e-02 7.176883857143485557e+01
7.309072067714506016e-02 7.087452970391774443e+01
7.443183481654190581e-02 6.968979225460179805e+01
7.577294895593877921e-02 6.752026080164485222e+01
7.711406309533562486e-02 6.593517440693234732e+01
7.845517723473247051e-02 6.673101746921790323e+01
7.979629137412933004e-02 6.677003028081526281e+01
8.113740551352617569e-02 6.669936696036938883e+01
8.247851965292302134e-02 6.724436789775256784e+01
8.381963379231988087e-02 7.023632482030953383e+01
8.516074793171674040e-02 7.952550297307764993e+01
8.650186207111358605e-02 1.210859932666428591e+02
8.784297621051043170e-02 2.378010251283309913e+02
8.918409034990729123e-02 4.026135881963899692e+02
9.052520448930413688e-02 5.901786370628492477e+02
9.186631862870098253e-02 1.139317904451886079e+03
9.320743276809784206e-02 2.276014631465505317e+03
9.454854690749470159e-02 2.810995502235954973e+03
9.588966104689154724e-02 1.929837610415680274e+03
9.723077518628839289e-02 9.997005724162111164e+02
9.857188932568525241e-02 6.040679646680196129e+02
9.991300346508209806e-02 4.525735924613616135e+02
1.012541176044789437e-01 3.705150664339447530e+02
1.025952317438758032e-01 3.121774428702531736e+02
1.039363458832726350e-01 2.706759607405622887e+02
1.052774600226694945e-01 2.601854915145534619e+02
1.066185741620663541e-01 3.234251364579286019e+02
1.079596883014631858e-01 4.464579086176798910e+02
1.093008024408600454e-01 4.346725749389456723e+02
1.106419165802569049e-01 2.640194156436683670e+02
1.119830307196537506e-01 1.249648215064393639e+02
1.133241448590506101e-01 6.798759033657758266e+01
1.146652589984474419e-01 4.410610246032342729e+01
1.160063731378443014e-01 3.359373475969169931e+01
1.173474872772411609e-01 2.762261007804508495e+01
1.186886014166380066e-01 2.322105072336280784e+01
1.200297155560348661e-01 2.033431859334322667e+01
1.213708296954317256e-01 1.710835696037101172e+01
1.227119438348285574e-01 1.514052310917138300e+01
1.240530579742254169e-01 1.378014910013976646e+01
1.253941721136222764e-01 1.170290126580511014e+01
1.267352862530191082e-01 1.086061853349349349e+01
1.280764003924159677e-01 1.009326587332274983e+01
1.294175145318128273e-01 8.783746449081291985e+00
1.307586286712096590e-01 8.012432419308211706e+00
1.320997428106065186e-01 7.129119379447686811e+00
1.334408569500033781e-01 7.455377093859411275e+00
1.347819710894002376e-01 7.242965130869507107e+00
1.361230852287970972e-01 6.460174021484974105e+00
1.374641993681939289e-01 5.670169042307250606e+00
1.388053135075907885e-01 5.653368543143201919e+00
1.401464276469876480e-01 5.812811790505037379e+00
1.414875417863844798e-01 5.263681688905066380e+00
1.428286559257813393e-01 4.563639316947359248e+00
1.441697700651781988e-01 4.740322410678402321e+00
1.455108842045750306e-01 5.370307635785721345e+00
1.468519983439718901e-01 5.064846414422177645e+00
1.481931124833687219e-01 5.829230979104224275e+00
1.495342266227655814e-01 7.663160121868216379e+00
1.508753407621624687e-01 1.426277814931256671e+01
1.522164549015593005e-01 3.071110123742209908e+01
1.535575690409561600e-01 4.918422875718225384e+01
1.548986831803530195e-01 4.355346648318526093e+01
1.562397973197498513e-01 2.460293780362745508e+01
1.575809114591467108e-01 1.453544869682536955e+01
1.589220255985435704e-01 1.166170773092076729e+01
1.602631397379404021e-01 1.043568930577114884e+01
1.616042538773372617e-01 1.008034386780236957e+01
1.629453680167341212e-01 9.472056748573024265e+00
1.642864821561309530e-01 9.429770095228647619e+00
1.656275962955278125e-01 9.898322854777106272e+00
1.669687104349246720e-01 1.035228827195706458e+01
1.683098245743215315e-01 9.692410166379957559e+00
1.696509387137183911e-01 1.016436803332095451e+01
1.709920528531152228e-01 1.028523092831130725e+01
1.723331669925120824e-01 1.153141675773890995e+01
1.736742811319089419e-01 1.269702855536402808e+01
1.750153952713057737e-01 1.444291161988513750e+01
1.763565094107026332e-01 2.192139900695131871e+01
1.776976235500994927e-01 4.813233008893074327e+01
1.790387376894963245e-01 1.049111175252475192e+02
1.803798518288931840e-01 1.469886157952827830e+02
1.817209659682900158e-01 1.140389019434584981e+02
1.830620801076868753e-01 6.274812979456137896e+01
1.844031942470837349e-01 3.958884954802832112e+01
1.857443083864805944e-01 3.554450389340861705e+01
1.870854225258774539e-01 4.103022790854492996e+01
1.884265366652743134e-01 4.308712369778127993e+01
1.897676508046711452e-01 3.147269145576510141e+01
1.911087649440680047e-01 1.835208431119522743e+01
1.924498790834648643e-01 1.172368112791379247e+01
1.937909932228616960e-01 8.427347622408277061e+00
1.951321073622585556e-01 7.079540047464377039e+00
1.964732215016554151e-01 5.573544794633662036e+00
1.978143356410522469e-01 4.648256896033288399e+00
1.991554497804491064e-01 4.858010941935233973e+00
2.004965639198459382e-01 4.665361413816782488e+00
2.018376780592427977e-01 4.423181532895952728e+00
2.031787921986396572e-01 3.794498493514197435e+00
2.045199063380365168e-01 3.773460819109132558e+00
2.058610204774333763e-01 3.750714030188362358e+00
2.072021346168302081e-01 3.775636875126799907e+00
2.085432487562270676e-01 3.400899321501796635e+00
2.098843628956239271e-01 3.299915625716813850e+00
2.112254770350207866e-01 3.230249287271789171e+00
2.125665911744176462e-01 3.423038011267045988e+00
2.139077053138144502e-01 3.595223174432824464e+00
2.152488194532113097e-01 3.609442471713549594e+00
2.165899335926081692e-01 4.799998955176185689e+00
2.179310477320050288e-01 5.042144781444719115e+00
2.192721618714018883e-01 3.814479140089126474e+00
2.206132760107987478e-01 3.123521735510252029e+00
2.219543901501955796e-01 2.388747830871302824e+00
2.232955042895924391e-01 2.193073651868090224e+00
2.246366184289892987e-01 2.156791006117082077e+00
2.259777325683861582e-01 1.785874806960897843e+00
2.273188467077830177e-01 2.112359475618632132e+00
2.286599608471798217e-01 1.863659862224274377e+00
2.300010749865766813e-01 1.677030290556622560e+00
2.313421891259735408e-01 1.887682082713595833e+00
2.326833032653704003e-01 1.915988532637705077e+00
2.340244174047672598e-01 1.472933053199234621e+00
2.353655315441641194e-01 2.222739894867650889e+00
2.367066456835609234e-01 2.164541074499389595e+00
2.380477598229577829e-01 1.801117736939069403e+00
2.393888739623546424e-01 1.499958504749926647e+00
2.407299881017515020e-01 1.531092194237743342e+00
2.420711022411483615e-01 2.078726713326453535e+00
2.434122163805451933e-01 2.109413287366656675e+00
2.447533305199420528e-01 1.791492682558875060e+00
2.460944446593389123e-01 1.847300048248825988e+00
2.474355587987357719e-01 2.008160201503763176e+00
2.487766729381326314e-01 1.346611389447971874e+00
2.501177870775294632e-01 1.567543438025637670e+00
2.514589012169263227e-01 1.659100543423640772e+00
2.528000153563231822e-01 1.673257305577905640e+00
2.541411294957200417e-01 2.088479461429301409e+00
2.554822436351169013e-01 2.076981087459770947e+00
2.568233577745137608e-01 1.787538705448660892e+00
2.581644719139106203e-01 1.783915122505426609e+00
2.595055860533074243e-01 1.538015734524798006e+00
2.608467001927042839e-01 2.037706004915300184e+00
2.621878143321011434e-01 2.382174835239041499e+00
2.635289284714980029e-01 3.328865978767375111e+00
2.648700426108948625e-01 5.807151048750959887e+00
2.662111567502916665e-01 7.552149452679287833e+00
2.675522708896885260e-01 6.571903582475215444e+00
2.688933850290853855e-01 5.237844887056688492e+00
2.702344991684822451e-01 3.585992430604605374e+00
2.715756133078791046e-01 2.893134018887671743e+00
2.729167274472759641e-01 2.614282890771022494e+00
2.742578415866727681e-01 2.815591699756772925e+00
2.755989557260696277e-01 2.576792688551542199e+00
2.769400698654664872e-01 2.645557400727675201e+00
2.782811840048633467e-01 3.121077778034226924e+00
2.796222981442602062e-01 4.356759693015945345e+00
2.809634122836570103e-01 6.793983436241198604e+00
2.823045264230538698e-01 8.969706336277461389e+00
2.836456405624507293e-01 7.944614554680711649e+00
2.849867547018475888e-01 5.285223847279596043e+00
2.863278688412444484e-01 3.545666942360647056e+00
2.876689829806413079e-01 2.632886428517487332e+00
2.890100971200381674e-01 2.184119641845931881e+00
2.903512112594350270e-01 2.003827001914253003e+00
2.916923253988318865e-01 1.479690786479224585e+00
2.930334395382287460e-01 1.323074809865296686e+00
2.943745536776256055e-01 1.667809883925720271e+00
2.957156678170224096e-01 2.126226231638959518e+00
2.970567819564192691e-01 1.916956651807467438e+00
2.983978960958161286e-01 1.805605364057846884e+00
2.997390102352129881e-01 1.264631409611169488e+00
3.010801243746098477e-01 1.482995714299839562e+00
3.024212385140067072e-01 1.306646611601543384e+00
3.037623526534035112e-01 1.395210267528106840e+00
3.051034667928003707e-01 1.872134602761107658e+00
3.064445809321972303e-01 1.776136422851052998e+00
3.077856950715940898e-01 1.861456239847171901e+00
3.091268092109909493e-01 2.060728764990727768e+00
3.104679233503877533e-01 1.562961092306032640e+00
3.118090374897846129e-01 1.064664742403870434e+00
3.131501516291814724e-01 1.405797477139692830e+00
3.144912657685783319e-01 1.496940029811398176e+00
3.158323799079751915e-01 1.618436831828390154e+00
3.171734940473720510e-01 1.519006247467856952e+00
3.185146081867689105e-01 1.371754992912698867e+00
3.198557223261657700e-01 1.619100002718170117e+00
3.211968364655626296e-01 1.999949015870505775e+00
3.225379506049594891e-01 1.801921574985556163e+00
3.238790647443563486e-01 1.060440759338547423e+00
3.252201788837532082e-01 7.128176371996559624e-01
3.265612930231500122e-01 1.212520826099819260e+00
3.279024071625468717e-01 1.208092871610332963e+00
3.292435213019437312e-01 1.087793108280962429e+00
3.305846354413405908e-01 1.130608800187438590e+00
3.319257495807374503e-01 7.865013534279867713e-01
3.332668637201342543e-01 7.580568376726333213e-01
3.346079778595311138e-01 8.747649085819730885e-01
3.359490919989279734e-01 7.631331125068783194e-01
3.372902061383248329e-01 1.084413827533857955e+00
3.386313202777216924e-01 1.133040612505695321e+00
3.399724344171185519e-01 1.232012348008126423e+00
3.413135485565153560e-01 1.076788368007498775e+00
3.426546626959122155e-01 7.250272646922155673e-01
3.439957768353090750e-01 9.445429311986259791e-01
3.453368909747059345e-01 7.603687961672775941e-01
3.466780051141027941e-01 7.015068948095262158e-01
3.480191192534995981e-01 6.819272746514357664e-01
3.493602333928964576e-01 1.141039601151440763e+00
3.507013475322933171e-01 9.471856410097529988e-01
3.520424616716901767e-01 8.029385409453553279e-01
3.533835758110870362e-01 8.126625115875043548e-01
3.547246899504838957e-01 1.097622397728528654e+00
3.560658040898807553e-01 1.477684415173776245e+00
3.574069182292776148e-01 1.324409232213596965e+00
3.587480323686744743e-01 1.367571481856344917e+00
3.600891465080713338e-01 1.479839411278014438e+00
3.614302606474681934e-01 1.585608287540374306e+00
3.627713747868649974e-01 1.502261175274689720e+00
3.641124889262618569e-01 9.256525605920415956e-01
3.654536030656587164e-01 1.086636488643200948e+00
3.667947172050555760e-01 9.238963665703465722e-01
3.681358313444524355e-01 7.882576657716739987e-01
3.694769454838492950e-01 6.529571376896470269e-01
3.708180596232460990e-01 5.401716201498913961e-01
3.721591737626429586e-01 8.023380367029844251e-01
3.735002879020398181e-01 8.687099399130175925e-01
3.748414020414366776e-01 8.823055591700779132e-01
3.761825161808335372e-01 8.860059553180263947e-01
3.775236303202303967e-01 1.063604692083558234e+00
3.788647444596272007e-01 9.971455263765776067e-01
3.802058585990240602e-01 9.872281706463894579e-01
3.815469727384209198e-01 8.786820982153713544e-01
3.828880868778177793e-01 1.030252233006088147e+00
3.842292010172146388e-01 1.522454277734233585e+00
3.855703151566114428e-01 1.936210749409433163e+00
3.869114292960083024e-01 2.172645889007640108e+00
3.882525434354051619e-01 2.039423652080031957e+00
3.895936575748020214e-01 2.011595885218511626e+00
3.909347717141988809e-01 1.950988491924441348e+00
3.922758858535957405e-01 1.458657398156653073e+00
3.936169999929926000e-01 1.095065940847860020e+00
3.949581141323894595e-01 1.272147758037036169e+00
3.962992282717863191e-01 1.473923901114126522e+00
3.976403424111831786e-01 1.351571491616738285e+00
3.989814565505800381e-01 1.161985396426935324e+00
4.003225706899768976e-01 1.282711358270972823e+00
4.016636848293737572e-01 1.138365873321362187e+00
4.030047989687706167e-01 1.320033889291060802e+00
4.043459131081674207e-01 1.253494300732334921e+00
4.056870272475643358e-01 1.554949217151872176e+00
4.070281413869611398e-01 1.581841262853828312e+00
4.083692555263580548e-01 1.511472050081763996e+00
4.097103696657548588e-01 1.174260150318566787e+00
4.110514838051517739e-01 1.123146542998682662e+00
4.123925979445485779e-01 1.303066438037340902e+00
4.137337120839453819e-01 1.006384369717260086e+00
4.150748262233422969e-01 1.060499790895434558e+00
4.164159403627391010e-01 1.002628395939943573e+00
4.177570545021360160e-01 6.643735348529844487e-01
4.190981686415328200e-01 9.336429784688036193e-01
4.204392827809296240e-01 7.719415956117288147e-01
4.217803969203265391e-01 1.050608826833460796e+00
4.231215110597233431e-01 1.010022441909214308e+00
4.244626251991202581e-01 7.949800938101176939e-01
4.258037393385170621e-01 9.897317840134078892e-01
4.271448534779138662e-01 5.212464097524502904e-01
4.284859676173107812e-01 4.713086288108883082e-01
4.298270817567075852e-01 7.704876595986789312e-01
4.311681958961045003e-01 9.540485733324004514e-01
4.325093100355013043e-01 9.235152713146206338e-01
4.338504241748981638e-01 7.364482023596963245e-01
4.351915383142950233e-01 1.070622044411102536e+00
4.365326524536918829e-01 8.198355408008595191e-01
4.378737665930887424e-01 5.783333408954831611e-01
4.392148807324856019e-01 9.535160337958288324e-01
4.405559948718824614e-01 9.152487503079527187e-01
4.418971090112793210e-01 7.034626338516432043e-01
4.432382231506761250e-01 6.209570515405005153e-01
4.445793372900730400e-01 8.727885047600594248e-01
4.459204514294698440e-01 9.018262299609958177e-01
4.472615655688667591e-01 1.016448474005237301e+00
4.486026797082635631e-01 1.052320672181934924e+00
4.499437938476603671e-01 7.895292989432363129e-01
4.512849079870572822e-01 1.121997985833509404e+00
4.526260221264540862e-01 9.743902729601430224e-01
4.539671362658510012e-01 8.288240858460511618e-01
4.553082504052478052e-01 7.008418531045421673e-01
4.566493645446446092e-01 8.236565585087518571e-01
4.579904786840415243e-01 6.743887755703923403e-01
4.593315928234383283e-01 6.757387855688534728e-01
4.606727069628352433e-01 5.430083724197132256e-01
4.620138211022320474e-01 4.248919606190781906e-01
4.633549352416289624e-01 7.758003570181912778e-01
4.646960493810257664e-01 1.087741393303410575e+00
4.660371635204225704e-01 7.430256949401794486e-01
4.673782776598194855e-01 4.568798452976920998e-01
4.687193917992162895e-01 9.045625421434593250e-01
4.700605059386132045e-01 9.733118100920066240e-01
4.714016200780100085e-01 9.550733815986376385e-01
4.727427342174068681e-01 1.407128431911289113e+00
4.740838483568037276e-01 1.291299196899565516e+00
4.754249624962005871e-01 1.167851495905907200e+00
4.767660766355974467e-01 9.729816356129532551e-01
4.781071907749943062e-01 8.591876501762385487e-01
4.794483049143911102e-01 8.760389517100080070e-01
4.807894190537880252e-01 8.568647173103940418e-01
4.821305331931848293e-01 7.332353505443265362e-01
4.834716473325817443e-01 1.004459901266955058e+00
4.848127614719785483e-01 7.939658559709599217e-01
4.861538756113753523e-01 4.401826422387671300e-01
4.874949897507722674e-01 5.520199849123414992e-01
4.888361038901690714e-01 1.074559733858798438e+00
4.901772180295659864e-01 1.029294515593207393e+00
4.915183321689627904e-01 1.063455258131291714e+00
4.928594463083597055e-01 9.675110965629514226e-01
4.942005604477565095e-01 7.834793535850366197e-01
4.955416745871533135e-01 5.750330972757993209e-01
4.968827887265502286e-01 7.432168824286122799e-01
4.982239028659470326e-01 1.032165172892135274e+00
4.995650170053439476e-01 7.667400722654704737e-01
5.009061311447408071e-01 7.864484833912896988e-01
5.022472452841375556e-01 7.872605423277718728e-01
5.035883594235345262e-01 1.098703803592471218e+00
5.049294735629312747e-01 1.014705914471072390e+00
5.062705877023282452e-01 7.712014472924764164e-01
5.076117018417249938e-01 5.879760216216638469e-01
5.089528159811218533e-01 2.085476536093722189e-01
5.102939301205187128e-01 1.756177497316002700e-02
5.116350442599155723e-01 4.376816458035506230e-01
5.129761583993124319e-01 5.928545986412530056e-01
5.143172725387092914e-01 3.430103995032709463e-01
5.156583866781061509e-01 5.762150398835643728e-01
5.169995008175030105e-01 6.337479055701678021e-01
5.183406149568997590e-01 6.564083435522789500e-01
5.196817290962967295e-01 7.045485966797500055e-01
5.210228432356934780e-01 5.728278046806636326e-01
5.223639573750904486e-01 5.581310158553876022e-01
5.237050715144871971e-01 7.681995523479585586e-01
5.250461856538840566e-01 7.356083567867273132e-01
5.263872997932809161e-01 5.114232699844691865e-01
5.277284139326777757e-01 4.127492393828262607e-01
5.290695280720746352e-01 8.689726898546865641e-01
5.304106422114714947e-01 6.483170824712658487e-01
5.317517563508683542e-01 8.278914550598699407e-01
5.330928704902652138e-01 7.451796382995112822e-01
5.344339846296620733e-01 2.565965126335498780e-01
5.357750987690589328e-01 1.773872948241432823e-01
5.371162129084557924e-01 6.200487212839789208e-01
5.384573270478525409e-01 6.822342088055037834e-01
5.397984411872495114e-01 6.536327358153855016e-01
5.411395553266462599e-01 3.701739839351105843e-01
5.424806694660432305e-01 4.612950901576056140e-01
5.438217836054399790e-01 4.840380074044219327e-01
5.451628977448369495e-01 4.749116475191428322e-01
5.465040118842336980e-01 4.994493676858837716e-01
5.478451260236305576e-01 5.279072185994593269e-01
5.491862401630274171e-01 7.003062398519972476e-01
5.505273543024242766e-01 3.743470353212927648e-01
5.518684684418211361e-01 3.794049546891926639e-01
5.532095825812179957e-01 5.599464462059202674e-01
5.545506967206147442e-01 7.277141197080254642e-01
