# q (1/Angstrom), Intensity (arb)
2.029070354705860696e-02 1.536588789682881725e+03
2.133125244372399004e-02 1.533805512734323202e+03
2.237180134038937659e-02 1.528222244735477943e+03
2.341235023705475968e-02 1.523621937925066050e+03
2.445289913372014276e-02 1.514320374773119056e+03
2.549344803038552584e-02 1.506791713197146464e+03
2.653399692705091240e-02 1.494577731294148180e+03
2.757454582371629548e-02 1.475292341131565308e+03
2.861509472038167856e-02 1.459963000575641900e+03
2.965564361704706164e-02 1.441917746514934606e+03
3.069619251371244473e-02 1.424177344993999895e+03
3.173674141037782781e-02 1.403195938274718856e+03
3.277729030704321089e-02 1.384154276184611490e+03
3.381783920370859398e-02 1.363941568149609338e+03
3.485838810037397706e-02 1.337694463900964820e+03
3.589893699703936014e-02 1.316833739936678739e+03
3.693948589370474322e-02 1.298127365562217619e+03
3.798003479037012631e-02 1.270824196476321504e+03
3.902058368703550939e-02 1.246624197927966179e+03
4.006113258370089247e-02 1.224286134253861292e+03
4.110168148036627556e-02 1.202472697025140178e+03
4.214223037703165864e-02 1.178717223521170354e+03
4.318277927369704866e-02 1.154237080009568672e+03
4.422332817036243174e-02 1.124516210738512882e+03
4.526387706702781483e-02 1.097141169307722976e+03
4.630442596369319791e-02 1.076650047381359855e+03
4.734497486035858099e-02 1.051006630397072286e+03
4.838552375702396408e-02 1.028226053465005180e+03
4.942607265368934716e-02 1.003985488862196689e+03
5.046662155035473024e-02 9.808045534655186657e+02
5.150717044702011332e-02 9.542664480304445078e+02
5.254771934368549641e-02 9.238530648860073597e+02
5.358826824035087949e-02 8.958074201784826300e+02
5.462881713701626257e-02 8.721774813787608309e+02
5.566936603368164566e-02 8.480532724490798273e+02
5.670991493034702874e-02 8.194902131637416005e+02
5.775046382701241182e-02 7.946355529679532310e+02
5.879101272367779490e-02 7.709806238682685944e+02
5.983156162034317799e-02 7.477685213040451799e+02
6.087211051700856107e-02 7.265881878996325440e+02
6.191265941367394415e-02 7.019141887552798380e+02
6.295320831033933417e-02 6.739604980269587031e+02
6.399375720700471726e-02 6.506033673935993420e+02
6.503430610367010034e-02 6.304691613742480740e+02
6.607485500033548342e-02 6.076559155947707040e+02
6.711540389700086651e-02 5.856509130164185990e+02
6.815595279366624959e-02 5.638117924283571938e+02
6.919650169033163267e-02 5.411408091399472369e+02
7.023705058699701576e-02 5.202454489377300888e+02
7.127759948366239884e-02 4.990100833463595222e+02
7.231814838032778192e-02 4.788292938398693082e+02
7.335869727699316500e-02 4.589879602450824336e+02
7.439924617365854809e-02 4.382694733005232592e+02
7.543979507032393117e-02 4.174232135678226427e+02
7.648034396698931425e-02 3.991110960064048072e+02
7.752089286365469734e-02 3.816942209659131890e+02
7.856144176032008042e-02 3.633357417223875814e+02
7.960199065698546350e-02 3.449013113995850972e+02
8.064253955365084658e-02 3.277449876495933268e+02
8.168308845031622967e-02 3.133509905302856851e+02
8.272363734698161275e-02 2.985509137487682096e+02
8.376418624364699583e-02 2.835787429610890626e+02
8.480473514031239279e-02 2.677891972362388060e+02
8.584528403697777588e-02 2.523996576198954358e+02
8.688583293364315896e-02 2.386510382239098647e+02
8.792638183030854204e-02 2.255274187592779072e+02
8.896693072697392513e-02 2.111344365432336758e+02
9.000747962363930821e-02 1.981190699830798110e+02
9.104802852030469129e-02 1.857731669672116652e+02
9.208857741697007437e-02 1.753242177151934982e+02
9.312912631363545746e-02 1.648623529191846444e+02
9.416967521030084054e-02 1.550027791472857359e+02
9.521022410696622362e-02 1.437899210331667348e+02
9.625077300363160671e-02 1.335437419622508628e+02
9.729132190029698979e-02 1.241345050718918799e+02
9.833187079696237287e-02 1.147525453754065978e+02
9.937241969362775595e-02 1.060556718350839134e+02
1.004129685902931390e-01 9.789260056324692982e+01
1.014535174869585221e-01 9.018456658530892867e+01
1.024940663836239052e-01 8.290285573548632669e+01
1.035346152802892883e-01 7.654030689028300571e+01
1.045751641769546714e-01 7.010462645836021522e+01
1.056157130736200545e-01 6.415621513657296759e+01
1.066562619702854375e-01 5.813274047575522729e+01
1.076968108669508206e-01 5.294499613974427632e+01
1.087373597636162037e-01 4.828769153477712450e+01
1.097779086602815868e-01 4.371023634831222182e+01
1.108184575569469699e-01 3.890592048217759213e+01
1.118590064536123529e-01 3.470089890312954850e+01
1.128995553502777360e-01 3.116920787333860687e+01
1.139401042469431191e-01 2.739642492182133893e+01
1.149806531436085022e-01 2.465197487427362688e+01
1.160212020402738853e-01 2.174011347530005978e+01
1.170617509369392684e-01 1.920548297262950044e+01
1.181022998336046514e-01 1.670666223862033206e+01
1.191428487302700345e-01 1.475420576989717603e+01
1.201833976269354176e-01 1.261236638946202859e+01
1.212239465236008007e-01 1.069481588593317767e+01
1.222644954202661838e-01 8.428047363510302148e+00
1.233050443169315669e-01 7.276186710976414673e+00
1.243455932135969499e-01 6.413614583480633513e+00
1.253861421102623330e-01 5.588462922403341082e+00
1.264266910069277161e-01 4.714026453364493108e+00
1.274672399035930992e-01 3.860205854802661207e+00
1.285077888002584823e-01 3.611218534281807280e+00
1.295483376969238654e-01 2.917047538219218694e+00
1.305888865935892484e-01 2.417378862270684436e+00
1.316294354902546315e-01 2.252770080067740821e+00
1.326699843869200146e-01 2.414387408688050130e+00
1.337105332835853977e-01 2.440924489020201094e+00
1.347510821802507808e-01 2.579804260723840059e+00
1.357916310769161639e-01 2.447960604825848208e+00
1.368321799735815469e-01 2.636249287131668950e+00
1.378727288702469300e-01 2.789559744096710148e+00
1.389132777669123131e-01 2.933333752884379919e+00
1.399538266635776962e-01 3.384929698971628653e+00
1.409943755602430793e-01 3.642614138502409560e+00
1.420349244569084624e-01 4.281995629832650252e+00
1.430754733535738454e-01 4.606714078660733236e+00
1.441160222502392285e-01 5.000437927357250345e+00
1.451565711469046116e-01 5.778378283794047832e+00
1.461971200435699947e-01 6.201347614727051649e+00
1.472376689402353778e-01 6.402916983979970666e+00
1.482782178369007609e-01 6.999047377250217750e+00
1.493187667335661439e-01 7.082760724695091881e+00
1.503593156302315270e-01 7.502836450035488269e+00
1.513998645268969101e-01 8.254655981955576038e+00
1.524404134235622932e-01 8.736815145283266304e+00
1.534809623202276763e-01 9.793187795495050807e+00
1.545215112168930593e-01 1.003329047249152239e+01
1.555620601135584424e-01 1.019081283569649443e+01
1.566026090102238255e-01 1.049983391619564088e+01
1.576431579068892086e-01 1.075753666828475374e+01
1.586837068035545917e-01 1.110996110164630579e+01
1.597242557002199748e-01 1.141253581054533583e+01
1.607648045968853578e-01 1.149676278537673824e+01
1.618053534935507409e-01 1.202737000000180601e+01
1.628459023902161240e-01 1.193727470661147905e+01
1.638864512868815071e-01 1.168382819598623712e+01
1.649270001835468902e-01 1.218673530122722326e+01
1.659675490802122733e-01 1.265799582118847866e+01
1.670080979768776563e-01 1.270728956466936310e+01
1.680486468735430672e-01 1.250290588576883266e+01
1.690891957702084503e-01 1.222503629230498490e+01
1.701297446668738333e-01 1.222570010836161458e+01
1.711702935635392164e-01 1.253177532454683529e+01
1.722108424602045995e-01 1.257606115256400159e+01
1.732513913568699826e-01 1.230519375418300143e+01
1.742919402535353657e-01 1.218765124654963472e+01
1.753324891502007488e-01 1.219259712881901692e+01
1.763730380468661318e-01 1.198037185046103659e+01
1.774135869435315149e-01 1.179167307370009965e+01
1.784541358401968980e-01 1.163633421670984447e+01
1.794946847368622811e-01 1.132468386480233846e+01
1.805352336335276642e-01 1.104323208303550885e+01
1.815757825301930473e-01 1.088857399504774648e+01
1.826163314268584303e-01 1.039807257260227402e+01
1.836568803235238134e-01 9.968998153063264311e+00
1.846974292201891965e-01 9.866536934184605201e+00
1.857379781168545796e-01 9.589739647890962004e+00
1.867785270135199627e-01 9.252610315870764879e+00
1.878190759101853458e-01 8.937039818157035853e+00
1.888596248068507288e-01 8.302634807147768470e+00
1.899001737035161119e-01 7.890986685722648275e+00
1.909407226001814950e-01 7.600700342511974128e+00
1.919812714968468781e-01 7.471714236809670950e+00
1.930218203935122612e-01 7.105354238730530625e+00
1.940623692901776443e-01 6.707387322307614141e+00
1.951029181868430273e-01 6.490913724811537833e+00
1.961434670835084104e-01 6.179780187655559587e+00
1.971840159801737935e-01 6.048320501253925841e+00
1.982245648768391766e-01 5.580022017669428180e+00
1.992651137735045597e-01 5.211988678047532630e+00
2.003056626701699428e-01 4.942058083347138364e+00
2.013462115668353813e-01 4.594907830925254899e+00
2.023867604635007644e-01 4.221383221446355805e+00
2.034273093601661475e-01 4.074180261841330974e+00
2.044678582568315306e-01 3.562452543345582257e+00
2.055084071534969137e-01 3.397061363958673752e+00
2.065489560501622968e-01 3.372369279847482915e+00
2.075895049468276798e-01 2.971094816479197931e+00
2.086300538434930629e-01 2.683053062016888646e+00
2.096706027401584460e-01 2.457132967052327643e+00
2.107111516368238291e-01 2.045609372441873575e+00
2.117517005334892122e-01 1.881733535072793728e+00
2.127922494301545953e-01 1.844584468798210253e+00
2.138327983268199783e-01 1.663795530540337353e+00
2.148733472234853614e-01 1.579846285593880850e+00
2.159138961201507445e-01 1.454593617575689279e+00
2.169544450168161276e-01 1.420329273514727930e+00
2.179949939134815107e-01 1.135136762152892942e+00
2.190355428101468938e-01 9.275210404738736258e-01
2.200760917068122768e-01 1.012162790701104598e+00
2.211166406034776599e-01 9.647242899926844473e-01
2.221571895001430430e-01 1.054820078844119990e+00
2.231977383968084261e-01 1.079412459677225655e+00
2.242382872934738092e-01 8.527368216785582433e-01
2.252788361901391923e-01 9.243968309606813705e-01
2.263193850868045753e-01 6.274141867501015213e-01
2.273599339834699584e-01 7.421250167775497175e-01
2.284004828801353415e-01 8.708613826629587606e-01
2.294410317768007246e-01 7.770224492574051567e-01
2.304815806734661077e-01 7.568585183944875894e-01
2.315221295701314908e-01 9.168694955268179569e-01
2.325626784667968738e-01 9.606821294687968305e-01
2.336032273634622569e-01 9.502911774449600557e-01
2.346437762601276400e-01 8.600782445147352462e-01
2.356843251567930231e-01 9.558567827455810573e-01
2.367248740534584062e-01 1.189306701537237387e+00
2.377654229501237892e-01 1.175321145063968231e+00
2.388059718467891723e-01 9.594487225043621947e-01
2.398465207434545554e-01 8.586888936315624221e-01
2.408870696401199385e-01 8.130664921755084151e-01
2.419276185367853216e-01 1.182043510128092834e+00
2.429681674334507047e-01 1.169676032200161586e+00
2.440087163301160877e-01 1.173226200340746317e+00
2.450492652267814708e-01 1.381510317578634073e+00
2.460898141234468539e-01 1.518524789927035101e+00
2.471303630201122370e-01 1.520953786091247650e+00
2.481709119167776201e-01 1.545727808772642931e+00
2.492114608134430032e-01 1.524028715955068947e+00
2.502520097101083585e-01 1.519904766360173909e+00
2.512925586067737416e-01 1.695748097719796732e+00
2.523331075034391247e-01 1.846191769956348594e+00
2.533736564001045077e-01 1.793366065765326312e+00
2.544142052967698908e-01 1.919068762055609056e+00
2.554547541934352739e-01 1.938163706917048756e+00
2.564953030901006570e-01 1.959052999823896357e+00
2.575358519867660401e-01 1.837621216601526442e+00
2.585764008834314231e-01 2.032756614660073069e+00
2.596169497800968062e-01 2.065268352798813822e+00
2.606574986767621893e-01 2.046028377602375770e+00
2.616980475734275724e-01 2.218143665707749790e+00
2.627385964700929555e-01 2.090216129684261404e+00
2.637791453667583386e-01 1.996354730481030515e+00
2.648196942634237216e-01 2.068799667195960978e+00
2.658602431600891047e-01 2.217087990112364793e+00
2.669007920567544878e-01 2.162563502420209005e+00
2.679413409534198709e-01 2.225406705945971453e+00
2.689818898500852540e-01 2.063834292912989810e+00
2.700224387467506371e-01 1.960326657620814927e+00
2.710629876434160201e-01 1.798083134316982523e+00
2.721035365400814032e-01 1.987077083318901316e+00
2.731440854367467863e-01 2.128173550475342068e+00
2.741846343334121694e-01 2.151660765366003147e+00
2.752251832300775525e-01 1.974676218887200463e+00
2.762657321267429356e-01 2.024097249484015038e+00
2.773062810234083186e-01 2.082764331978932404e+00
2.783468299200737017e-01 1.972189104667386061e+00
2.793873788167390848e-01 1.899920204817615144e+00
2.804279277134044679e-01 1.655618058732553521e+00
2.814684766100698510e-01 1.740618940193051856e+00
2.825090255067352341e-01 1.621645176987509984e+00
2.835495744034006171e-01 1.699049693588651877e+00
2.845901233000660002e-01 1.550308152013982976e+00
2.856306721967313833e-01 1.847462464622548595e+00
2.866712210933967664e-01 1.823849236365777671e+00
2.877117699900621495e-01 1.717748809162927159e+00
2.887523188867275326e-01 1.759047830196099227e+00
2.897928677833929156e-01 1.616961009389235926e+00
2.908334166800582987e-01 1.537112165385874363e+00
2.918739655767236818e-01 1.456282457772573480e+00
2.929145144733890649e-01 1.344854565768461185e+00
2.939550633700544480e-01 1.171914457008952581e+00
2.949956122667198311e-01 1.047403880545012100e+00
2.960361611633852141e-01 9.801130316906530027e-01
2.970767100600505972e-01 1.092920199720449403e+00
2.981172589567159803e-01 1.287709006184268645e+00
2.991578078533813634e-01 1.192008746134852970e+00
3.001983567500468020e-01 1.051455964087228523e+00
3.012389056467121851e-01 9.243749071920746019e-01
3.022794545433775681e-01 7.521824774033412098e-01
3.033200034400429512e-01 8.126179621537090725e-01
3.043605523367083343e-01 7.342331948071212366e-01
3.054011012333737174e-01 8.038134339307667631e-01
3.064416501300391005e-01 7.237461637918194413e-01
3.074821990267044836e-01 5.771027066488088053e-01
3.085227479233698666e-01 5.656665819111807991e-01
3.095632968200352497e-01 5.939093821481264968e-01
3.106038457167006328e-01 4.953001347498791063e-01
3.116443946133660159e-01 4.030557158247951577e-01
3.126849435100313990e-01 4.657773417474295741e-01
3.137254924066967821e-01 5.750057546388482876e-01
3.147660413033621651e-01 4.840189761249931166e-01
3.158065902000275482e-01 3.646804565690580091e-01
3.168471390966929313e-01 3.079355223946649289e-01
3.178876879933583144e-01 5.323571711781021065e-01
3.189282368900236975e-01 7.230313461757766902e-01
3.199687857866890806e-01 5.446199242811111674e-01
3.210093346833544636e-01 4.188771606029213501e-01
3.220498835800198467e-01 4.993726710333703522e-01
3.230904324766852298e-01 6.341454959810768344e-01
3.241309813733506129e-01 4.666924172318189790e-01
3.251715302700159960e-01 5.673402081343503767e-01
3.262120791666813790e-01 4.202986024903943019e-01
3.272526280633467621e-01 3.692200686873512439e-01
3.282931769600121452e-01 5.294755091317746576e-01
3.293337258566775283e-01 7.094885889490143427e-01
3.303742747533429114e-01 7.091211340175433975e-01
3.314148236500082945e-01 6.783307955110480236e-01
3.324553725466736775e-01 7.066946787059364965e-01
3.334959214433390606e-01 5.325028362619583788e-01
3.345364703400044437e-01 5.720054269832637317e-01
3.355770192366698268e-01 6.753175310254384556e-01
3.366175681333352099e-01 6.632944626105548025e-01
3.376581170300005930e-01 6.267332875848161677e-01
3.386986659266659760e-01 6.515677181634700332e-01
3.397392148233313591e-01 5.604119611863147554e-01
3.407797637199967422e-01 4.186372134841569448e-01
3.418203126166621253e-01 4.604119996762925382e-01
3.428608615133275084e-01 4.533936975694565774e-01
3.439014104099928915e-01 4.864497804940981496e-01
3.449419593066582745e-01 4.975653689535022295e-01
3.459825082033236576e-01 5.374594093542555129e-01
3.470230570999890407e-01 7.203155928305342570e-01
3.480636059966544238e-01 6.948110582085043063e-01
3.491041548933198069e-01 6.150293225923810780e-01
3.501447037899851900e-01 6.182880815608733371e-01
3.511852526866505730e-01 8.140550556478771682e-01
3.522258015833159561e-01 7.258823900397501916e-01
3.532663504799813392e-01 7.438513191671738412e-01
3.543068993766467223e-01 7.006767298696878754e-01
3.553474482733121054e-01 6.596472754118636317e-01
3.563879971699774885e-01 6.410488791126702779e-01
3.574285460666428715e-01 7.852759150528747512e-01
3.584690949633082546e-01 6.714068611260373132e-01
3.595096438599736377e-01 7.535304337172092914e-01
3.605501927566390208e-01 6.827016771924583338e-01
3.615907416533044039e-01 6.656919754968981806e-01
3.626312905499697870e-01 6.411118832514972610e-01
3.636718394466351700e-01 8.801957119983860878e-01
3.647123883433005531e-01 8.744285612218583026e-01
3.657529372399659362e-01 8.833577032786408267e-01
3.667934861366313193e-01 8.486783048777049032e-01
3.678340350332967024e-01 6.459622848700412590e-01
3.688745839299620854e-01 5.983993740874460343e-01
3.699151328266274685e-01 9.263242111733021034e-01
3.709556817232928516e-01 7.438287312398195184e-01
3.719962306199582347e-01 7.420989667834341219e-01
3.730367795166236178e-01 7.840815749603287088e-01
3.740773284132890009e-01 9.286546300884630512e-01
3.751178773099543839e-01 7.635927347905848706e-01
3.761584262066197670e-01 4.889269525467447863e-01
3.771989751032851501e-01 8.103159840191587193e-01
3.782395239999505332e-01 8.148905696125723352e-01
3.792800728966159163e-01 7.019407498137333334e-01
3.803206217932812994e-01 7.073121017336738703e-01
3.813611706899466824e-01 5.803229158430092127e-01
3.824017195866120655e-01 5.535826784523010247e-01
3.834422684832774486e-01 7.244211849989063978e-01
3.844828173799428317e-01 5.964038638750821519e-01
3.855233662766082148e-01 7.651300367104632016e-01
3.865639151732735979e-01 6.271762298128500390e-01
3.876044640699389809e-01 5.406998806430394211e-01
3.886450129666043640e-01 6.053508027054022023e-01
3.896855618632697471e-01 6.063431860583357036e-01
3.907261107599351302e-01 5.151047828895656266e-01
3.917666596566005133e-01 5.686804353882592977e-01
3.928072085532658964e-01 7.524380212367276499e-01
3.938477574499312794e-01 5.658855933390967152e-01
3.948883063465966625e-01 5.580244891722010436e-01
3.959288552432620456e-01 4.118183132503077104e-01
3.969694041399274287e-01 3.449968576596518233e-01
3.980099530365928118e-01 4.960256321129890011e-01
3.990505019332581949e-01 5.079454139479047114e-01
4.000910508299235779e-01 5.131898686432130319e-01
4.011315997265889610e-01 4.017958855714489630e-01
4.021721486232543441e-01 4.213612900059224842e-01
4.032126975199197272e-01 4.047616903232729157e-01
4.042532464165851103e-01 4.158815040139671737e-01
4.052937953132504934e-01 3.888266409886504960e-01
4.063343442099158764e-01 4.750426642876171002e-01
4.073748931065812595e-01 6.309430574853820417e-01
4.084154420032466426e-01 4.893034886230047675e-01
4.094559908999120257e-01 4.018546003789502663e-01
4.104965397965774088e-01 3.880188671610689255e-01
4.115370886932427918e-01 2.774084947353507857e-01
4.125776375899081749e-01 2.394742147490980244e-01
4.136181864865735580e-01 4.394456681682470389e-01
4.146587353832389411e-01 4.794584827724825971e-01
4.156992842799043242e-01 4.219896133611058531e-01
4.167398331765697073e-01 3.946863995584450890e-01
4.177803820732350903e-01 5.073669548047412547e-01
4.188209309699004734e-01 4.591810607167161606e-01
4.198614798665658565e-01 5.957948461625761638e-01
4.209020287632312396e-01 3.371281843180398141e-01
4.219425776598966227e-01 4.323304975577038078e-01
4.229831265565620058e-01 3.258936066019231248e-01
4.240236754532273888e-01 2.972004200031612697e-01
4.250642243498927719e-01 2.853513702654559836e-01
4.261047732465581550e-01 4.446964581447012677e-01
4.271453221432235381e-01 3.742355888814579146e-01
4.281858710398889212e-01 4.962917401514665983e-01
4.292264199365543043e-01 4.024974011119901718e-01
4.302669688332196873e-01 4.685238918790233242e-01
4.313075177298850704e-01 4.925481220950125305e-01
4.323480666265504535e-01 5.006595536227429477e-01
4.333886155232158366e-01 4.721548674162363568e-01
4.344291644198812197e-01 3.790845577638677355e-01
