# q (1/Angstrom), Intensity (arb)
2.029070354705860696e-02 1.410035521849333236e+03
2.133125244372399004e-02 1.406044137670742430e+03
2.237180134038937659e-02 1.404442013144134080e+03
2.341235023705475968e-02 1.395560338559816273e+03
2.445289913372014276e-02 1.379939306947213936e+03
2.549344803038552584e-02 1.371447309279689762e+03
2.653399692705091240e-02 1.356736554066543931e+03
2.757454582371629548e-02 1.340384005553303496e+03
2.861509472038167856e-02 1.320528030825642645e+03
2.965564361704706164e-02 1.304616209239008413e+03
3.069619251371244473e-02 1.291041852671651668e+03
3.173674141037782781e-02 1.274075057751230361e+03
3.277729030704321089e-02 1.254941049860546400e+03
3.381783920370859398e-02 1.233961252466582664e+03
3.485838810037397706e-02 1.214565913260011257e+03
3.589893699703936014e-02 1.194078760428865507e+03
3.693948589370474322e-02 1.175613729869027338e+03
3.798003479037012631e-02 1.154574785749404782e+03
3.902058368703550939e-02 1.135550245041440803e+03
4.006113258370089247e-02 1.111760313821332602e+03
4.110168148036627556e-02 1.090400848485304778e+03
4.214223037703165864e-02 1.069007405627094613e+03
4.318277927369704866e-02 1.044329116289105286e+03
4.422332817036243174e-02 1.021190102050007113e+03
4.526387706702781483e-02 9.977125276255463859e+02
4.630442596369319791e-02 9.731000773601637093e+02
4.734497486035858099e-02 9.514317926632005538e+02
4.838552375702396408e-02 9.313987087252363608e+02
4.942607265368934716e-02 9.083861845537053341e+02
5.046662155035473024e-02 8.850616028646967379e+02
5.150717044702011332e-02 8.610033554118643906e+02
5.254771934368549641e-02 8.356618966685546184e+02
5.358826824035087949e-02 8.129670452641023530e+02
5.462881713701626257e-02 7.930897519822716504e+02
5.566936603368164566e-02 7.676400275562741626e+02
5.670991493034702874e-02 7.420509510754579878e+02
5.775046382701241182e-02 7.186656957459381374e+02
5.879101272367779490e-02 6.961890713064815372e+02
5.983156162034317799e-02 6.750934966265282355e+02
6.087211051700856107e-02 6.532987420870624646e+02
6.191265941367394415e-02 6.316813741534402880e+02
6.295320831033933417e-02 6.111981893491933988e+02
6.399375720700471726e-02 5.895014952878156009e+02
6.503430610367010034e-02 5.675555823126637733e+02
6.607485500033548342e-02 5.467242979163273731e+02
6.711540389700086651e-02 5.260402879718745908e+02
6.815595279366624959e-02 5.067051827758861577e+02
6.919650169033163267e-02 4.853975859877093626e+02
7.023705058699701576e-02 4.667850646809025648e+02
7.127759948366239884e-02 4.489665417735932351e+02
7.231814838032778192e-02 4.278726955914701762e+02
7.335869727699316500e-02 4.109853298017955012e+02
7.439924617365854809e-02 3.931988620901401532e+02
7.543979507032393117e-02 3.746550278313881677e+02
7.648034396698931425e-02 3.576457739125114585e+02
7.752089286365469734e-02 3.413200448153615412e+02
7.856144176032008042e-02 3.239670808059293563e+02
7.960199065698546350e-02 3.076760492711612187e+02
8.064253955365084658e-02 2.932834182956812583e+02
8.168308845031622967e-02 2.790991657116650799e+02
8.272363734698161275e-02 2.650100399382113778e+02
8.376418624364699583e-02 2.510164094976308036e+02
8.480473514031239279e-02 2.358282182503063211e+02
8.584528403697777588e-02 2.231359632100629256e+02
8.688583293364315896e-02 2.117265512284471924e+02
8.792638183030854204e-02 2.006180526985493486e+02
8.896693072697392513e-02 1.888900508993191352e+02
9.000747962363930821e-02 1.767425992557305108e+02
9.104802852030469129e-02 1.648122206670041408e+02
9.208857741697007437e-02 1.535830235995193505e+02
9.312912631363545746e-02 1.442647084045971724e+02
9.416967521030084054e-02 1.355946001298710826e+02
9.521022410696622362e-02 1.263277848976555333e+02
9.625077300363160671e-02 1.169611470066175514e+02
9.729132190029698979e-02 1.085142388988984123e+02
9.833187079696237287e-02 1.008024124637722707e+02
9.937241969362775595e-02 9.287509142193181333e+01
1.004129685902931390e-01 8.652354957510334543e+01
1.014535174869585221e-01 8.015921124557479516e+01
1.024940663836239052e-01 7.338643361712735214e+01
1.035346152802892883e-01 6.669442730720659540e+01
1.045751641769546714e-01 6.022230830710557115e+01
1.056157130736200545e-01 5.509849032278723513e+01
1.066562619702854375e-01 5.060539321361737564e+01
1.076968108669508206e-01 4.593795717873599216e+01
1.087373597636162037e-01 4.170873294793162245e+01
1.097779086602815868e-01 3.717653579882666293e+01
1.108184575569469699e-01 3.331378503581822059e+01
1.118590064536123529e-01 2.986757722974846274e+01
1.128995553502777360e-01 2.683563081750644130e+01
1.139401042469431191e-01 2.399698082359911666e+01
1.149806531436085022e-01 2.098535398112584716e+01
1.160212020402738853e-01 1.841786033571251124e+01
1.170617509369392684e-01 1.596206906798499858e+01
1.181022998336046514e-01 1.431096885843196276e+01
1.191428487302700345e-01 1.230386222484403902e+01
1.201833976269354176e-01 1.010884464121315318e+01
1.212239465236008007e-01 8.468067464343064898e+00
1.222644954202661838e-01 7.134931072608758029e+00
1.233050443169315669e-01 6.096068511477412244e+00
1.243455932135969499e-01 5.022590522061818774e+00
1.253861421102623330e-01 4.804585941435142615e+00
1.264266910069277161e-01 3.973707566609235187e+00
1.274672399035930992e-01 3.233287817725219782e+00
1.285077888002584823e-01 2.413412246390542748e+00
1.295483376969238654e-01 1.885890697643219482e+00
1.305888865935892484e-01 1.707390007961961942e+00
1.316294354902546315e-01 1.289995781926101870e+00
1.326699843869200146e-01 1.488263191325650325e+00
1.337105332835853977e-01 2.051146691151991774e+00
1.347510821802507808e-01 1.950703401806379134e+00
1.357916310769161639e-01 1.447921159028275895e+00
1.368321799735815469e-01 1.769858872360906332e+00
1.378727288702469300e-01 2.450321639621456882e+00
1.389132777669123131e-01 2.476053626401991892e+00
1.399538266635776962e-01 2.694807559878583447e+00
1.409943755602430793e-01 3.242979874831682707e+00
1.420349244569084624e-01 3.659677519094749698e+00
1.430754733535738454e-01 4.156782169294167772e+00
1.441160222502392285e-01 4.802743243561955921e+00
1.451565711469046116e-01 5.252285014018376330e+00
1.461971200435699947e-01 5.454365186143732558e+00
1.472376689402353778e-01 5.643168229354735388e+00
1.482782178369007609e-01 6.055286789378406809e+00
1.493187667335661439e-01 6.356619475161330968e+00
1.503593156302315270e-01 6.482612761257023237e+00
1.513998645268969101e-01 7.245050949860399214e+00
1.524404134235622932e-01 7.685090899843942225e+00
1.534809623202276763e-01 8.257431741319145146e+00
1.545215112168930593e-01 8.545947103776633469e+00
1.555620601135584424e-01 9.200234815276623124e+00
1.566026090102238255e-01 9.427890208221533896e+00
1.576431579068892086e-01 9.594940815746319629e+00
1.586837068035545917e-01 9.524367569481050566e+00
1.597242557002199748e-01 9.569990678639953785e+00
1.607648045968853578e-01 9.954599845390717405e+00
1.618053534935507409e-01 1.042741017587233898e+01
1.628459023902161240e-01 1.055464953353391877e+01
1.638864512868815071e-01 1.059884258707438676e+01
1.649270001835468902e-01 1.037214667349918784e+01
1.659675490802122733e-01 1.042000251086534490e+01
1.670080979768776563e-01 1.078409297530973987e+01
1.680486468735430672e-01 1.070047452458494064e+01
1.690891957702084503e-01 1.071874930924209934e+01
1.701297446668738333e-01 1.096141249043908061e+01
1.711702935635392164e-01 1.080672440000540035e+01
1.722108424602045995e-01 1.065405748400399233e+01
1.732513913568699826e-01 1.060901474842355441e+01
1.742919402535353657e-01 1.039401136193720276e+01
1.753324891502007488e-01 1.050118920900327169e+01
1.763730380468661318e-01 1.053099660819639638e+01
1.774135869435315149e-01 1.000872916369895904e+01
1.784541358401968980e-01 9.685285261588177264e+00
1.794946847368622811e-01 9.781806220882849345e+00
1.805352336335276642e-01 9.779428622544671157e+00
1.815757825301930473e-01 9.401957270150642643e+00
1.826163314268584303e-01 8.672484331551629566e+00
1.836568803235238134e-01 8.102538872473836307e+00
1.846974292201891965e-01 7.980291913579172558e+00
1.857379781168545796e-01 8.001179355914150193e+00
1.867785270135199627e-01 7.739293668157362305e+00
1.878190759101853458e-01 7.096424579538730626e+00
1.888596248068507288e-01 7.082455772061813093e+00
1.899001737035161119e-01 6.694271815403372017e+00
1.909407226001814950e-01 6.670457279902702652e+00
1.919812714968468781e-01 6.659248092455925416e+00
1.930218203935122612e-01 6.121030846553061622e+00
1.940623692901776443e-01 5.559517259060530847e+00
1.951029181868430273e-01 5.803170366343319841e+00
1.961434670835084104e-01 5.184276122444341439e+00
1.971840159801737935e-01 4.761423752417375255e+00
1.982245648768391766e-01 4.667633250776724196e+00
1.992651137735045597e-01 4.046252357004750166e+00
2.003056626701699428e-01 3.493221531135763058e+00
2.013462115668353813e-01 3.405391357566436739e+00
2.023867604635007644e-01 3.319379361001878692e+00
2.034273093601661475e-01 2.974516691676139857e+00
2.044678582568315306e-01 2.893692025254139821e+00
2.055084071534969137e-01 2.841317223696286476e+00
2.065489560501622968e-01 2.633870137786580301e+00
2.075895049468276798e-01 2.109802433322478521e+00
2.086300538434930629e-01 2.053579459855363609e+00
2.096706027401584460e-01 1.835661649909656745e+00
2.107111516368238291e-01 1.777534103177519142e+00
2.117517005334892122e-01 1.593012055962560680e+00
2.127922494301545953e-01 1.328288862001368642e+00
2.138327983268199783e-01 1.368822258564716066e+00
2.148733472234853614e-01 1.550520131962947801e+00
2.159138961201507445e-01 1.513947718911072826e+00
2.169544450168161276e-01 1.035020850023812500e+00
2.179949939134815107e-01 7.143904688840621020e-01
2.190355428101468938e-01 8.226204023273133714e-01
2.200760917068122768e-01 6.243016201702396017e-01
2.211166406034776599e-01 3.399228307200061749e-01
2.221571895001430430e-01 4.974885699647195736e-01
2.231977383968084261e-01 5.393145499660683129e-01
2.242382872934738092e-01 2.937335451705145317e-01
2.252788361901391923e-01 5.050711501365547917e-01
2.263193850868045753e-01 6.813174888339332824e-01
2.273599339834699584e-01 5.077447776611485608e-01
2.284004828801353415e-01 5.939980841624681318e-01
2.294410317768007246e-01 3.999903693228112900e-01
2.304815806734661077e-01 4.551609150543107774e-01
2.315221295701314908e-01 5.263169599586348113e-01
2.325626784667968738e-01 5.412461851196255225e-01
2.336032273634622569e-01 6.565339987664025045e-01
2.346437762601276400e-01 4.715506124366584118e-01
2.356843251567930231e-01 3.409833663812236182e-01
2.367248740534584062e-01 5.134928863405932020e-01
2.377654229501237892e-01 7.459852588580275778e-01
2.388059718467891723e-01 1.050192689714226191e+00
2.398465207434545554e-01 8.462711951647889919e-01
2.408870696401199385e-01 9.924395335215407954e-01
2.419276185367853216e-01 9.474211588039089804e-01
2.429681674334507047e-01 7.796854005937099430e-01
2.440087163301160877e-01 9.222972786023397873e-01
2.450492652267814708e-01 9.629725219564129191e-01
2.460898141234468539e-01 8.404766589267538279e-01
2.471303630201122370e-01 9.647553199707346039e-01
2.481709119167776201e-01 1.287231789811663418e+00
2.492114608134430032e-01 1.301055589520384359e+00
2.502520097101083585e-01 1.018075503472140042e+00
2.512925586067737416e-01 1.162873612533598333e+00
2.523331075034391247e-01 1.111779248521191477e+00
2.533736564001045077e-01 1.302533706591731288e+00
2.544142052967698908e-01 1.158289080619130829e+00
2.554547541934352739e-01 1.323443305457438157e+00
2.564953030901006570e-01 1.433615170106101289e+00
2.575358519867660401e-01 1.694522672688652420e+00
2.585764008834314231e-01 1.601365570308711739e+00
2.596169497800968062e-01 1.762383000073999284e+00
2.606574986767621893e-01 1.790922878873505653e+00
2.616980475734275724e-01 1.946881369895866243e+00
2.627385964700929555e-01 2.094354065456116132e+00
2.637791453667583386e-01 1.916937988841976193e+00
2.648196942634237216e-01 1.645803920807434650e+00
2.658602431600891047e-01 1.413674392562526805e+00
2.669007920567544878e-01 1.454432204661191719e+00
2.679413409534198709e-01 1.681653639927219501e+00
2.689818898500852540e-01 1.642579593895007406e+00
2.700224387467506371e-01 1.651626492670597912e+00
2.710629876434160201e-01 1.395469111172467080e+00
2.721035365400814032e-01 1.567361302322638039e+00
2.731440854367467863e-01 1.498133542803294915e+00
2.741846343334121694e-01 1.554544032905354811e+00
2.752251832300775525e-01 1.627619368502916330e+00
2.762657321267429356e-01 1.932054902709857913e+00
2.773062810234083186e-01 1.996826150592440285e+00
2.783468299200737017e-01 1.950600420054755091e+00
2.793873788167390848e-01 1.636946676237187148e+00
2.804279277134044679e-01 1.510663550612939332e+00
2.814684766100698510e-01 1.393470132235464121e+00
2.825090255067352341e-01 1.481878162331355497e+00
2.835495744034006171e-01 1.530199382208063952e+00
2.845901233000660002e-01 1.309223773175141048e+00
2.856306721967313833e-01 1.299077444381229185e+00
2.866712210933967664e-01 1.511085560847288178e+00
2.877117699900621495e-01 1.260694132907353548e+00
2.887523188867275326e-01 1.056849644066662819e+00
2.897928677833929156e-01 8.777480449002723617e-01
2.908334166800582987e-01 1.120884675638443184e+00
2.918739655767236818e-01 1.171301064447785478e+00
2.929145144733890649e-01 1.137635918527859502e+00
2.939550633700544480e-01 1.072807710999441611e+00
2.949956122667198311e-01 8.408786086775030810e-01
2.960361611633852141e-01 7.802597928723109533e-01
2.970767100600505972e-01 6.502740603191945468e-01
2.981172589567159803e-01 6.133708388581844417e-01
2.991578078533813634e-01 7.581769943830494185e-01
3.001983567500468020e-01 5.764717321906722702e-01
3.012389056467121851e-01 4.618966884849129428e-01
3.022794545433775681e-01 6.125485502845293695e-01
3.033200034400429512e-01 5.052408943315320755e-01
3.043605523367083343e-01 5.415406025245665944e-01
3.054011012333737174e-01 5.829458143330654707e-01
3.064416501300391005e-01 4.104766443635377016e-01
3.074821990267044836e-01 2.562728733656385316e-01
3.085227479233698666e-01 3.796339412165323779e-01
3.095632968200352497e-01 3.608771197607616443e-01
3.106038457167006328e-01 2.843269781153381359e-01
3.116443946133660159e-01 3.641072660370170411e-01
3.126849435100313990e-01 3.074325482594844061e-01
3.137254924066967821e-01 2.219743835940661825e-01
3.147660413033621651e-01 3.723537787840704993e-01
3.158065902000275482e-01 4.718826618829687902e-01
3.168471390966929313e-01 1.799569701077388117e-01
3.178876879933583144e-01 7.512475488636027876e-02
3.189282368900236975e-01 4.340443755222231914e-01
3.199687857866890806e-01 4.938418860099389462e-01
3.210093346833544636e-01 2.405023739118696824e-01
3.220498835800198467e-01 2.665014042809517036e-01
3.230904324766852298e-01 2.755099026738854207e-01
3.241309813733506129e-01 1.843647429851706931e-01
3.251715302700159960e-01 2.838576534189378719e-01
3.262120791666813790e-01 2.534324185926202233e-01
3.272526280633467621e-01 4.193796985716353731e-01
3.282931769600121452e-01 5.564926352176868818e-01
3.293337258566775283e-01 5.091820460355478417e-01
3.303742747533429114e-01 2.351606730830866354e-01
3.314148236500082945e-01 3.776143634145476824e-01
3.324553725466736775e-01 4.082219617268343370e-01
3.334959214433390606e-01 3.155438056668096181e-01
3.345364703400044437e-01 5.656554812946268385e-01
3.355770192366698268e-01 5.801606188333003900e-01
3.366175681333352099e-01 2.884442419553465697e-01
3.376581170300005930e-01 3.922258283403365908e-01
3.386986659266659760e-01 4.768787747352014605e-01
3.397392148233313591e-01 2.702835783765920041e-01
3.407797637199967422e-01 2.629538523095718006e-01
3.418203126166621253e-01 2.785947031662274753e-01
3.428608615133275084e-01 6.451463273765476458e-01
3.439014104099928915e-01 5.231190111337120641e-01
3.449419593066582745e-01 5.449594115540641326e-01
3.459825082033236576e-01 6.515759185719076640e-01
3.470230570999890407e-01 6.370761786921406156e-01
3.480636059966544238e-01 6.523251966454495232e-01
3.491041548933198069e-01 4.230636192445196286e-01
3.501447037899851900e-01 4.416794195815541002e-01
3.511852526866505730e-01 4.995660780818518276e-01
3.522258015833159561e-01 5.090636082930792838e-01
3.532663504799813392e-01 6.207826594785856855e-01
3.543068993766467223e-01 5.907786598902440289e-01
3.553474482733121054e-01 4.871522779308499196e-01
3.563879971699774885e-01 8.478739958877916649e-01
3.574285460666428715e-01 7.995381314328007250e-01
3.584690949633082546e-01 5.384463192195667602e-01
3.595096438599736377e-01 6.132603962440690282e-01
3.605501927566390208e-01 7.682598741251247532e-01
3.615907416533044039e-01 6.001673472032855727e-01
3.626312905499697870e-01 6.225332988033223103e-01
3.636718394466351700e-01 5.832099918734172661e-01
3.647123883433005531e-01 6.559200870997976551e-01
3.657529372399659362e-01 7.450903159234414375e-01
3.667934861366313193e-01 6.018840070171691536e-01
3.678340350332967024e-01 5.898794533263505002e-01
3.688745839299620854e-01 6.396546840678318802e-01
3.699151328266274685e-01 5.264955826255537374e-01
3.709556817232928516e-01 5.204608654690758840e-01
3.719962306199582347e-01 9.475767604808034150e-01
3.730367795166236178e-01 8.269818638627590701e-01
3.740773284132890009e-01 2.599618833038910282e-01
3.751178773099543839e-01 2.716807973747172866e-01
3.761584262066197670e-01 3.329857360874335370e-01
3.771989751032851501e-01 4.011215622739463527e-01
3.782395239999505332e-01 3.242007856888697859e-01
3.792800728966159163e-01 4.316347773384592301e-01
3.803206217932812994e-01 4.845103629412790269e-01
3.813611706899466824e-01 4.741749150509448896e-01
3.824017195866120655e-01 5.883125739917076658e-01
3.834422684832774486e-01 3.117071700091038622e-01
3.844828173799428317e-01 2.754213313205333691e-01
3.855233662766082148e-01 2.943131279291932856e-01
3.865639151732735979e-01 3.373178516968557972e-01
3.876044640699389809e-01 3.198102003530429727e-01
3.886450129666043640e-01 1.758365848152436683e-01
3.896855618632697471e-01 3.380478585290269677e-01
3.907261107599351302e-01 3.274945234100528069e-01
3.917666596566005133e-01 3.161930162711641401e-01
3.928072085532658964e-01 8.298821315449700364e-02
3.938477574499312794e-01 1.503079440513417353e-01
3.948883063465966625e-01 2.802478422646927925e-01
3.959288552432620456e-01 0.000000000000000000e+00
3.969694041399274287e-01 3.499380518319945566e-01
3.980099530365928118e-01 6.397349063028201499e-01
3.990505019332581949e-01 5.610102704269657181e-01
4.000910508299235779e-01 4.142522140420830112e-01
4.011315997265889610e-01 3.333597088187332247e-01
4.021721486232543441e-01 3.533812397695292873e-01
4.032126975199197272e-01 2.788443542833078936e-01
4.042532464165851103e-01 3.928924152087489574e-01
4.052937953132504934e-01 4.271490765463425987e-01
4.063343442099158764e-01 3.063117897982365889e-01
4.073748931065812595e-01 4.296778060558565926e-01
4.084154420032466426e-01 2.245692609505454129e-01
4.094559908999120257e-01 1.371825585551569304e-01
4.104965397965774088e-01 2.503187811298523968e-01
4.115370886932427918e-01 3.123825415953831452e-01
4.125776375899081749e-01 3.390136413501991797e-01
4.136181864865735580e-01 3.738674048963765983e-01
4.146587353832389411e-01 3.591858995204368910e-01
4.156992842799043242e-01 4.909917545500270819e-01
4.167398331765697073e-01 4.901472942162072854e-01
4.177803820732350903e-01 4.337024684162109622e-01
4.188209309699004734e-01 5.381501642099379978e-01
4.198614798665658565e-01 3.801021693309962757e-01
4.209020287632312396e-01 2.481513294180643925e-01
4.219425776598966227e-01 1.615449437737268568e-01
4.229831265565620058e-01 3.600032503230572445e-01
4.240236754532273888e-01 1.780690226829761968e-01
4.250642243498927719e-01 3.379945535301480675e-01
4.261047732465581550e-01 4.869782699381133284e-01
4.271453221432235381e-01 5.186908960450082873e-01
4.281858710398889212e-01 3.933729334498501373e-01
4.292264199365543043e-01 5.042617647842178030e-01
4.302669688332196873e-01 4.926576413318066727e-01
4.313075177298850704e-01 3.867785594690573703e-01
4.323480666265504535e-01 4.064978693840899382e-01
4.333886155232158366e-01 3.896441355097159942e-01
4.344291644198812197e-01 5.011550230768122560e-01
