# q (1/Angstrom), Intensity (arb)
2.029070354705860696e-02 1.437711828561223456e+03
2.133125244372399004e-02 1.425328744976488906e+03
2.237180134038937659e-02 1.419377034669285194e+03
2.341235023705475968e-02 1.412955513783997048e+03
2.445289913372014276e-02 1.403555279927777519e+03
2.549344803038552584e-02 1.393551107620318362e+03
2.653399692705091240e-02 1.378139111715765466e+03
2.757454582371629548e-02 1.366424887936566165e+03
2.861509472038167856e-02 1.350456782133895103e+03
2.965564361704706164e-02 1.333116150549572467e+03
3.069619251371244473e-02 1.320354680807670093e+03
3.173674141037782781e-02 1.302126341769365354e+03
3.277729030704321089e-02 1.279658384542012982e+03
3.381783920370859398e-02 1.257763813738075214e+03
3.485838810037397706e-02 1.235973483411489042e+03
3.589893699703936014e-02 1.215840359505357583e+03
3.693948589370474322e-02 1.193807653426984643e+03
3.798003479037012631e-02 1.175034986348859547e+03
3.902058368703550939e-02 1.150352902851571343e+03
4.006113258370089247e-02 1.128852043448356426e+03
4.110168148036627556e-02 1.108412288052714075e+03
4.214223037703165864e-02 1.087154153839779156e+03
4.318277927369704866e-02 1.064055128443599187e+03
4.422332817036243174e-02 1.035384497064042762e+03
4.526387706702781483e-02 1.013562503197679575e+03
4.630442596369319791e-02 9.917743460130858466e+02
4.734497486035858099e-02 9.711441097581672466e+02
4.838552375702396408e-02 9.486862138022871704e+02
4.942607265368934716e-02 9.249476744773520522e+02
5.046662155035473024e-02 9.004529716887228687e+02
5.150717044702011332e-02 8.744102225178949084e+02
5.254771934368549641e-02 8.529029235548972565e+02
5.358826824035087949e-02 8.283544953755825873e+02
5.462881713701626257e-02 8.055239682216505344e+02
5.566936603368164566e-02 7.799610674489752000e+02
5.670991493034702874e-02 7.534784383453009013e+02
5.775046382701241182e-02 7.313579940880356389e+02
5.879101272367779490e-02 7.092210587680292520e+02
5.983156162034317799e-02 6.882626498217242670e+02
6.087211051700856107e-02 6.644060824061133417e+02
6.191265941367394415e-02 6.422541827085996147e+02
6.295320831033933417e-02 6.216680789021368128e+02
6.399375720700471726e-02 5.984981164607802384e+02
6.503430610367010034e-02 5.769797323574875918e+02
6.607485500033548342e-02 5.561856515891435038e+02
6.711540389700086651e-02 5.360416898398916601e+02
6.815595279366624959e-02 5.158353129606769016e+02
6.919650169033163267e-02 4.954653380172818515e+02
7.023705058699701576e-02 4.768147818165256240e+02
7.127759948366239884e-02 4.567416972395257062e+02
7.231814838032778192e-02 4.377536808043569181e+02
7.335869727699316500e-02 4.190914241871323043e+02
7.439924617365854809e-02 4.000132660860145961e+02
7.543979507032393117e-02 3.826912896040612964e+02
7.648034396698931425e-02 3.657900370463428885e+02
7.752089286365469734e-02 3.487338046180607307e+02
7.856144176032008042e-02 3.322976116580398980e+02
7.960199065698546350e-02 3.162306270933223118e+02
8.064253955365084658e-02 2.994662209143754126e+02
8.168308845031622967e-02 2.830602028247901671e+02
8.272363734698161275e-02 2.695167872851036464e+02
8.376418624364699583e-02 2.564967990144923533e+02
8.480473514031239279e-02 2.417937885515101470e+02
8.584528403697777588e-02 2.290682959198636013e+02
8.688583293364315896e-02 2.169394691967829374e+02
8.792638183030854204e-02 2.044815324111277732e+02
8.896693072697392513e-02 1.913523682740796517e+02
9.000747962363930821e-02 1.799554300236858637e+02
9.104802852030469129e-02 1.680743554790468579e+02
9.208857741697007437e-02 1.571960660716619032e+02
9.312912631363545746e-02 1.480462598049935536e+02
9.416967521030084054e-02 1.385295688029567884e+02
9.521022410696622362e-02 1.293852310267009784e+02
9.625077300363160671e-02 1.201506984105295857e+02
9.729132190029698979e-02 1.116498960615382714e+02
9.833187079696237287e-02 1.038401766073312444e+02
9.937241969362775595e-02 9.597920192448233934e+01
1.004129685902931390e-01 8.789747331491030025e+01
1.014535174869585221e-01 8.123825796243897912e+01
1.024940663836239052e-01 7.426730877930631891e+01
1.035346152802892883e-01 6.857759997870728341e+01
1.045751641769546714e-01 6.253342248164614148e+01
1.056157130736200545e-01 5.709196162104340289e+01
1.066562619702854375e-01 5.178612786607530438e+01
1.076968108669508206e-01 4.615075345279159080e+01
1.087373597636162037e-01 4.147925499414956363e+01
1.097779086602815868e-01 3.820015103226698017e+01
1.108184575569469699e-01 3.420698930937577131e+01
1.118590064536123529e-01 3.053196435881028492e+01
1.128995553502777360e-01 2.738852748967200768e+01
1.139401042469431191e-01 2.375019791418572623e+01
1.149806531436085022e-01 2.127843021910769750e+01
1.160212020402738853e-01 1.872118938079800188e+01
1.170617509369392684e-01 1.660394214344479025e+01
1.181022998336046514e-01 1.428711823057391683e+01
1.191428487302700345e-01 1.274930003628170283e+01
1.201833976269354176e-01 1.092069481225323813e+01
1.212239465236008007e-01 8.542246194062180109e+00
1.222644954202661838e-01 7.574889756598714996e+00
1.233050443169315669e-01 6.684096503964262581e+00
1.243455932135969499e-01 5.697857220071227857e+00
1.253861421102623330e-01 5.068788868257790625e+00
1.264266910069277161e-01 4.340468487459702374e+00
1.274672399035930992e-01 3.487111556993049533e+00
1.285077888002584823e-01 2.740981798141497450e+00
1.295483376969238654e-01 2.315899535079743998e+00
1.305888865935892484e-01 2.498394324932554866e+00
1.316294354902546315e-01 2.327256715415671806e+00
1.326699843869200146e-01 1.987967213658237142e+00
1.337105332835853977e-01 1.729054023962170561e+00
1.347510821802507808e-01 1.845351673946396431e+00
1.357916310769161639e-01 2.216248232058497081e+00
1.368321799735815469e-01 2.115182862012410681e+00
1.378727288702469300e-01 2.461710335700274754e+00
1.389132777669123131e-01 2.868576790023901424e+00
1.399538266635776962e-01 3.494672787950165116e+00
1.409943755602430793e-01 3.303859225173383152e+00
1.420349244569084624e-01 3.465754394228319768e+00
1.430754733535738454e-01 4.260576093353552807e+00
1.441160222502392285e-01 4.480947744382060449e+00
1.451565711469046116e-01 5.023142164568344725e+00
1.461971200435699947e-01 5.884259697737679318e+00
1.472376689402353778e-01 6.415291516841186592e+00
1.482782178369007609e-01 6.466879551101960999e+00
1.493187667335661439e-01 6.931984445398246208e+00
1.503593156302315270e-01 7.217487934387676773e+00
1.513998645268969101e-01 7.725645849894736017e+00
1.524404134235622932e-01 8.126693715610844748e+00
1.534809623202276763e-01 8.219512964534580135e+00
1.545215112168930593e-01 8.652367455867839396e+00
1.555620601135584424e-01 9.169860801333701517e+00
1.566026090102238255e-01 9.162365950767643596e+00
1.576431579068892086e-01 9.459187727836265935e+00
1.586837068035545917e-01 9.637859397179305176e+00
1.597242557002199748e-01 1.015846045053076452e+01
1.607648045968853578e-01 1.011259359231880239e+01
1.618053534935507409e-01 1.052005999380707379e+01
1.628459023902161240e-01 1.106174359828297327e+01
1.638864512868815071e-01 1.104562756113810096e+01
1.649270001835468902e-01 1.111373980424895791e+01
1.659675490802122733e-01 1.128651977503119141e+01
1.670080979768776563e-01 1.145531192441900714e+01
1.680486468735430672e-01 1.145255108758670559e+01
1.690891957702084503e-01 1.152521835081357793e+01
1.701297446668738333e-01 1.147646490357924876e+01
1.711702935635392164e-01 1.162128540596729209e+01
1.722108424602045995e-01 1.148510888980934297e+01
1.732513913568699826e-01 1.092313706527885131e+01
1.742919402535353657e-01 1.087765108618400589e+01
1.753324891502007488e-01 1.068994300210851733e+01
1.763730380468661318e-01 1.051610612710720360e+01
1.774135869435315149e-01 1.033008162657242224e+01
1.784541358401968980e-01 1.023039196311612642e+01
1.794946847368622811e-01 1.016976565946819022e+01
1.805352336335276642e-01 9.880850724404744767e+00
1.815757825301930473e-01 9.568227275629190842e+00
1.826163314268584303e-01 9.102742560638937164e+00
1.836568803235238134e-01 9.140978217291028329e+00
1.846974292201891965e-01 9.044089421265756101e+00
1.857379781168545796e-01 8.508353470408458463e+00
1.867785270135199627e-01 8.101025706047018105e+00
1.878190759101853458e-01 7.365321830779834045e+00
1.888596248068507288e-01 7.163960920646417208e+00
1.899001737035161119e-01 7.049975699551126240e+00
1.909407226001814950e-01 6.766312504212599777e+00
1.919812714968468781e-01 6.347910676145467335e+00
1.930218203935122612e-01 6.003877535531184861e+00
1.940623692901776443e-01 5.613347213343399034e+00
1.951029181868430273e-01 5.811435653534257284e+00
1.961434670835084104e-01 5.435793792940536662e+00
1.971840159801737935e-01 5.009445160466466263e+00
1.982245648768391766e-01 4.543052092446490775e+00
1.992651137735045597e-01 4.370660150189213056e+00
2.003056626701699428e-01 4.357276767158115405e+00
2.013462115668353813e-01 3.926686441486992862e+00
2.023867604635007644e-01 3.912887039922985366e+00
2.034273093601661475e-01 3.738838188577389587e+00
2.044678582568315306e-01 3.488056671446308599e+00
2.055084071534969137e-01 3.204740146811115409e+00
2.065489560501622968e-01 2.423632837236699089e+00
2.075895049468276798e-01 2.296140828096561393e+00
2.086300538434930629e-01 2.434480552799044517e+00
2.096706027401584460e-01 1.965836550534064031e+00
2.107111516368238291e-01 1.892145960842544383e+00
2.117517005334892122e-01 1.928207523284100944e+00
2.127922494301545953e-01 2.011983902671669711e+00
2.138327983268199783e-01 1.574508771873897928e+00
2.148733472234853614e-01 1.347795452154265661e+00
2.159138961201507445e-01 1.127855062094425875e+00
2.169544450168161276e-01 6.992208893960345506e-01
2.179949939134815107e-01 6.766853030644810474e-01
2.190355428101468938e-01 7.401707139895989940e-01
2.200760917068122768e-01 7.850559069637128573e-01
2.211166406034776599e-01 6.614918438967372083e-01
2.221571895001430430e-01 7.244709855725552927e-01
2.231977383968084261e-01 5.085363111712126738e-01
2.242382872934738092e-01 3.964682854565886316e-01
2.252788361901391923e-01 5.686758799629991756e-01
2.263193850868045753e-01 3.437530958125023517e-01
2.273599339834699584e-01 4.722607608437883187e-01
2.284004828801353415e-01 3.892328976631880266e-01
2.294410317768007246e-01 6.482185662194055453e-01
2.304815806734661077e-01 6.061536513688920991e-01
2.315221295701314908e-01 4.575028372262188725e-01
2.325626784667968738e-01 7.375532366946444540e-01
2.336032273634622569e-01 5.722147153568357680e-01
2.346437762601276400e-01 4.216408662094508486e-01
2.356843251567930231e-01 3.836147752688958690e-01
2.367248740534584062e-01 6.252601581374044315e-01
2.377654229501237892e-01 9.172228996407589818e-01
2.388059718467891723e-01 1.142111904485933138e+00
2.398465207434545554e-01 7.788753481013088731e-01
2.408870696401199385e-01 6.761087418165949714e-01
2.419276185367853216e-01 8.232806977708442275e-01
2.429681674334507047e-01 8.912962286616554763e-01
2.440087163301160877e-01 9.008975752747012677e-01
2.450492652267814708e-01 1.075776648351411069e+00
2.460898141234468539e-01 1.452433681490958861e+00
2.471303630201122370e-01 1.549438360724270325e+00
2.481709119167776201e-01 1.405249357969200474e+00
2.492114608134430032e-01 1.218316126579683356e+00
2.502520097101083585e-01 1.413867476137482981e+00
2.512925586067737416e-01 1.666555117499498806e+00
2.523331075034391247e-01 1.410052966126695395e+00
2.533736564001045077e-01 1.414181905836237263e+00
2.544142052967698908e-01 1.381025312790249870e+00
2.554547541934352739e-01 1.223208499806894167e+00
2.564953030901006570e-01 1.498412322877062053e+00
2.575358519867660401e-01 1.639382232669554185e+00
2.585764008834314231e-01 1.554813146582720407e+00
2.596169497800968062e-01 1.638152106503980576e+00
2.606574986767621893e-01 1.686296236885052480e+00
2.616980475734275724e-01 1.901087982866503268e+00
2.627385964700929555e-01 1.809944274937244302e+00
2.637791453667583386e-01 1.821569197251449168e+00
2.648196942634237216e-01 1.740425365538019520e+00
2.658602431600891047e-01 1.767465096485963727e+00
2.669007920567544878e-01 1.722252116916937581e+00
2.679413409534198709e-01 2.049701670017221034e+00
2.689818898500852540e-01 2.131654242393938858e+00
2.700224387467506371e-01 1.878816713408756556e+00
2.710629876434160201e-01 1.811506053561984686e+00
2.721035365400814032e-01 1.780410044116607082e+00
2.731440854367467863e-01 1.645510080764875482e+00
2.741846343334121694e-01 1.623224496994453148e+00
2.752251832300775525e-01 1.705631377216032973e+00
2.762657321267429356e-01 1.622820587256615710e+00
2.773062810234083186e-01 1.489629835070306996e+00
2.783468299200737017e-01 1.477437750553477258e+00
2.793873788167390848e-01 1.506692894006636863e+00
2.804279277134044679e-01 1.518853310628642816e+00
2.814684766100698510e-01 1.325813740469090618e+00
2.825090255067352341e-01 1.361570312985023179e+00
2.835495744034006171e-01 1.316619262277818336e+00
2.845901233000660002e-01 9.641026251769986288e-01
2.856306721967313833e-01 1.172069076776850238e+00
2.866712210933967664e-01 1.359656556200508959e+00
2.877117699900621495e-01 1.194610939733124155e+00
2.887523188867275326e-01 1.064218241568003265e+00
2.897928677833929156e-01 1.055404480215749174e+00
2.908334166800582987e-01 1.185830382391468873e+00
2.918739655767236818e-01 1.077177337720911510e+00
2.929145144733890649e-01 9.082882884703131765e-01
2.939550633700544480e-01 8.514740911692015857e-01
2.949956122667198311e-01 1.002947309979731472e+00
2.960361611633852141e-01 8.065762989010245576e-01
2.970767100600505972e-01 6.972082207326835146e-01
2.981172589567159803e-01 3.670986431319533949e-01
2.991578078533813634e-01 5.978700124102189761e-01
3.001983567500468020e-01 7.094476795368613864e-01
3.012389056467121851e-01 4.595429160363586618e-01
3.022794545433775681e-01 7.435789484141821504e-01
3.033200034400429512e-01 8.374235090474186904e-01
3.043605523367083343e-01 7.521229128540483089e-01
3.054011012333737174e-01 6.064983554340841465e-01
3.064416501300391005e-01 2.947820752903851371e-01
3.074821990267044836e-01 4.320185400852452062e-01
3.085227479233698666e-01 5.311889193095389317e-01
3.095632968200352497e-01 4.322904782357994691e-01
3.106038457167006328e-01 3.414104606567249789e-01
3.116443946133660159e-01 4.149271884855956216e-01
3.126849435100313990e-01 6.422383637730639805e-01
3.137254924066967821e-01 3.498290457195629699e-01
3.147660413033621651e-01 3.432889654246409350e-01
3.158065902000275482e-01 6.439314290888695780e-01
3.168471390966929313e-01 5.472994125169456936e-01
3.178876879933583144e-01 3.695964208349309388e-01
3.189282368900236975e-01 2.485099151442931031e-01
3.199687857866890806e-01 4.385475519383739140e-01
3.210093346833544636e-01 4.698037604366973596e-01
3.220498835800198467e-01 1.106122383924947883e-01
3.230904324766852298e-01 5.512380627941482203e-02
3.241309813733506129e-01 1.698672596887540465e-01
3.251715302700159960e-01 4.556904570741728833e-01
3.262120791666813790e-01 4.878718534578148081e-01
3.272526280633467621e-01 2.937873650525411051e-01
3.282931769600121452e-01 4.223429149353670198e-01
3.293337258566775283e-01 4.632550851211654219e-01
3.303742747533429114e-01 3.606505313890728814e-01
3.314148236500082945e-01 4.464638126327997725e-01
3.324553725466736775e-01 2.845965720615346584e-01
3.334959214433390606e-01 2.012388398914772836e-01
3.345364703400044437e-01 1.309808857203940136e-01
3.355770192366698268e-01 1.135409443555523978e-01
3.366175681333352099e-01 2.490204588040967337e-01
3.376581170300005930e-01 3.315600754565899422e-01
3.386986659266659760e-01 2.716489274415394561e-01
3.397392148233313591e-01 3.337498570503321105e-01
3.407797637199967422e-01 4.342906295084922874e-01
3.418203126166621253e-01 3.476642181523779129e-01
3.428608615133275084e-01 3.024998314761440099e-01
3.439014104099928915e-01 3.365373121214361163e-01
3.449419593066582745e-01 3.706962004431595403e-01
3.459825082033236576e-01 3.902700367950373561e-01
3.470230570999890407e-01 4.127884201266169839e-01
3.480636059966544238e-01 8.230275271065004006e-01
3.491041548933198069e-01 8.840389373525425754e-01
3.501447037899851900e-01 6.482425494594323823e-01
3.511852526866505730e-01 5.813639974296336277e-01
3.522258015833159561e-01 5.798387264714861544e-01
3.532663504799813392e-01 5.409423792822494192e-01
3.543068993766467223e-01 6.080189991360640533e-01
3.553474482733121054e-01 4.361460374081822522e-01
3.563879971699774885e-01 3.874825281278013733e-01
3.574285460666428715e-01 3.707747570132156056e-01
3.584690949633082546e-01 5.355769018136733450e-01
3.595096438599736377e-01 8.095958558619003043e-01
3.605501927566390208e-01 5.883866909858568306e-01
3.615907416533044039e-01 4.567529133324867985e-01
3.626312905499697870e-01 6.861713461147118664e-01
3.636718394466351700e-01 6.686069082890107040e-01
3.647123883433005531e-01 6.627834451618674905e-01
3.657529372399659362e-01 5.151827135543207703e-01
3.667934861366313193e-01 5.861869755890722899e-01
3.678340350332967024e-01 6.937242591830212746e-01
3.688745839299620854e-01 5.454787632671944664e-01
3.699151328266274685e-01 4.197628929896382033e-01
3.709556817232928516e-01 3.209170656796231924e-01
3.719962306199582347e-01 4.512849394961584437e-01
3.730367795166236178e-01 4.079718627096511341e-01
3.740773284132890009e-01 2.803321270588021719e-01
3.751178773099543839e-01 5.949747022055085210e-01
3.761584262066197670e-01 8.389423090940191230e-01
3.771989751032851501e-01 7.663617705702598926e-01
3.782395239999505332e-01 7.312383610332773287e-01
3.792800728966159163e-01 5.162003736823166378e-01
3.803206217932812994e-01 3.180687891674942591e-01
3.813611706899466824e-01 5.113396742368401249e-01
3.824017195866120655e-01 4.566412704278128842e-01
3.834422684832774486e-01 1.941027386926883480e-01
3.844828173799428317e-01 2.152975319287122602e-01
3.855233662766082148e-01 4.144895191310169480e-01
3.865639151732735979e-01 4.696589372007125007e-01
3.876044640699389809e-01 4.997180465473789468e-01
3.886450129666043640e-01 4.099223270050558199e-01
3.896855618632697471e-01 4.377092669923214885e-01
3.907261107599351302e-01 5.652455863705583283e-01
3.917666596566005133e-01 6.026021372384029462e-01
3.928072085532658964e-01 4.977224935993440624e-01
3.938477574499312794e-01 4.677712000169513828e-01
3.948883063465966625e-01 4.608019103448555143e-01
3.959288552432620456e-01 3.987010238744552737e-01
3.969694041399274287e-01 4.680463864289983178e-01
3.980099530365928118e-01 3.862206698711041497e-01
3.990505019332581949e-01 2.161321531242208493e-01
4.000910508299235779e-01 2.517537467129109530e-01
4.011315997265889610e-01 2.737637057419561870e-01
4.021721486232543441e-01 3.308433953666138905e-01
4.032126975199197272e-01 1.599366340662342623e-01
4.042532464165851103e-01 9.200586012472555808e-02
4.052937953132504934e-01 2.963658261066512978e-01
4.063343442099158764e-01 0.000000000000000000e+00
4.073748931065812595e-01 1.455231409683612753e-01
4.084154420032466426e-01 2.733261832303810479e-01
4.094559908999120257e-01 2.917825111310818897e-01
4.104965397965774088e-01 3.091189048573781406e-01
4.115370886932427918e-01 2.916550459277083007e-01
4.125776375899081749e-01 4.820065851969665971e-01
4.136181864865735580e-01 4.769437095602100385e-01
4.146587353832389411e-01 4.377851161165899896e-01
4.156992842799043242e-01 3.655878619514822958e-01
4.167398331765697073e-01 2.711561291715369748e-01
4.177803820732350903e-01 2.851828775401976657e-01
4.188209309699004734e-01 4.019941001336455599e-01
4.198614798665658565e-01 2.514040868226103953e-01
4.209020287632312396e-01 2.806215468719841510e-01
4.219425776598966227e-01 2.412400296855601312e-01
4.229831265565620058e-01 2.894384523386612784e-01
4.240236754532273888e-01 1.970148774175832784e-01
4.250642243498927719e-01 2.378367817532414108e-01
4.261047732465581550e-01 3.273868218542084207e-01
4.271453221432235381e-01 1.451973939010571257e-01
4.281858710398889212e-01 3.037262398080002868e-01
4.292264199365543043e-01 2.801942621102284647e-01
4.302669688332196873e-01 1.621102915462273586e-01
4.313075177298850704e-01 2.329728016084970932e-01
4.323480666265504535e-01 3.214559708443438524e-01
4.333886155232158366e-01 4.630987958319572328e-01
4.344291644198812197e-01 7.086203255295302483e-01
