# q (1/Angstrom), Intensity (arb)
2.029070354705860696e-02 1.547606226705985819e+03
2.133125244372399004e-02 1.539049629568115051e+03
2.237180134038937659e-02 1.538326034624677504e+03
2.341235023705475968e-02 1.529103996899436424e+03
2.445289913372014276e-02 1.512618040080792980e+03
2.549344803038552584e-02 1.502832195247689015e+03
2.653399692705091240e-02 1.481522872655519677e+03
2.757454582371629548e-02 1.467245278248977684e+03
2.861509472038167856e-02 1.452316646418322080e+03
2.965564361704706164e-02 1.437919704264096936e+03
3.069619251371244473e-02 1.417715588500049989e+03
3.173674141037782781e-02 1.398211374739921666e+03
3.277729030704321089e-02 1.379131467885709753e+03
3.381783920370859398e-02 1.357497729324580632e+03
3.485838810037397706e-02 1.331274800361249390e+03
3.589893699703936014e-02 1.308056322813587030e+03
3.693948589370474322e-02 1.288414905904870238e+03
3.798003479037012631e-02 1.265608360203766324e+03
3.902058368703550939e-02 1.241057569411076202e+03
4.006113258370089247e-02 1.216661513112795546e+03
4.110168148036627556e-02 1.192264706342039517e+03
4.214223037703165864e-02 1.168532549522222780e+03
4.318277927369704866e-02 1.146424943536506362e+03
4.422332817036243174e-02 1.121928583023794545e+03
4.526387706702781483e-02 1.097615911864423197e+03
4.630442596369319791e-02 1.074146800773104360e+03
4.734497486035858099e-02 1.049407091132969072e+03
4.838552375702396408e-02 1.023571215309463241e+03
4.942607265368934716e-02 9.965128009257749682e+02
5.046662155035473024e-02 9.729329517213496956e+02
5.150717044702011332e-02 9.484410315053634122e+02
5.254771934368549641e-02 9.190486215406997417e+02
5.358826824035087949e-02 8.928048196963259215e+02
5.462881713701626257e-02 8.680902351879268508e+02
5.566936603368164566e-02 8.460494366932845196e+02
5.670991493034702874e-02 8.225165610226426907e+02
5.775046382701241182e-02 7.940092495373060046e+02
5.879101272367779490e-02 7.690984225661127311e+02
5.983156162034317799e-02 7.458556159411620001e+02
6.087211051700856107e-02 7.188518488184698754e+02
6.191265941367394415e-02 6.955047285983018810e+02
6.295320831033933417e-02 6.749545246230677549e+02
6.399375720700471726e-02 6.519854821102435380e+02
6.503430610367010034e-02 6.291877534054451644e+02
6.607485500033548342e-02 6.056438532511729136e+02
6.711540389700086651e-02 5.841714058274868648e+02
6.815595279366624959e-02 5.616107573394565406e+02
6.919650169033163267e-02 5.397605952966015366e+02
7.023705058699701576e-02 5.183548758969917571e+02
7.127759948366239884e-02 4.972650526821956873e+02
7.231814838032778192e-02 4.771944469560796733e+02
7.335869727699316500e-02 4.573104393856597767e+02
7.439924617365854809e-02 4.389108113677463621e+02
7.543979507032393117e-02 4.186737321564460217e+02
7.648034396698931425e-02 3.993459432359977086e+02
7.752089286365469734e-02 3.799722633526857294e+02
7.856144176032008042e-02 3.622776031554158749e+02
7.960199065698546350e-02 3.457353124096814554e+02
8.064253955365084658e-02 3.288791960027550090e+02
8.168308845031622967e-02 3.133635196089774126e+02
8.272363734698161275e-02 2.965989442466741934e+02
8.376418624364699583e-02 2.816069513271414735e+02
8.480473514031239279e-02 2.653801276053700349e+02
8.584528403697777588e-02 2.509289490548387391e+02
8.688583293364315896e-02 2.378641966825002498e+02
8.792638183030854204e-02 2.237344542600281727e+02
8.896693072697392513e-02 2.103688098145781566e+02
9.000747962363930821e-02 1.990073522514517492e+02
9.104802852030469129e-02 1.867414622668255788e+02
9.208857741697007437e-02 1.738142725252694163e+02
9.312912631363545746e-02 1.635306197697380526e+02
9.416967521030084054e-02 1.529044026560227110e+02
9.521022410696622362e-02 1.428015590558182168e+02
9.625077300363160671e-02 1.333759553057024618e+02
9.729132190029698979e-02 1.237164634736789282e+02
9.833187079696237287e-02 1.146275721836644834e+02
9.937241969362775595e-02 1.059567768957609957e+02
1.004129685902931390e-01 9.720035628090613500e+01
1.014535174869585221e-01 9.009854365924471153e+01
1.024940663836239052e-01 8.280599172443179157e+01
1.035346152802892883e-01 7.651394669088993794e+01
1.045751641769546714e-01 6.997969342608689658e+01
1.056157130736200545e-01 6.274469774244326459e+01
1.066562619702854375e-01 5.775363332588332099e+01
1.076968108669508206e-01 5.300402989810187648e+01
1.087373597636162037e-01 4.823371044226276183e+01
1.097779086602815868e-01 4.398231403751029234e+01
1.108184575569469699e-01 3.935359440501188999e+01
1.118590064536123529e-01 3.490045230398308718e+01
1.128995553502777360e-01 3.109312124105577269e+01
1.139401042469431191e-01 2.791284494760602541e+01
1.149806531436085022e-01 2.502558795581219897e+01
1.160212020402738853e-01 2.180273860797084495e+01
1.170617509369392684e-01 1.904958007622864358e+01
1.181022998336046514e-01 1.631963151531057932e+01
1.191428487302700345e-01 1.419454542505904371e+01
1.201833976269354176e-01 1.247212093871520011e+01
1.212239465236008007e-01 1.112228444411782391e+01
1.222644954202661838e-01 9.945950531140653084e+00
1.233050443169315669e-01 8.490420284355465697e+00
1.243455932135969499e-01 7.096584581078516862e+00
1.253861421102623330e-01 5.663710378847760296e+00
1.264266910069277161e-01 4.712363098953407103e+00
1.274672399035930992e-01 4.198189746609664041e+00
1.285077888002584823e-01 3.800068488001080880e+00
1.295483376969238654e-01 3.423323430144144197e+00
1.305888865935892484e-01 3.004741124968123955e+00
1.316294354902546315e-01 2.668566502202743607e+00
1.326699843869200146e-01 2.525729364242057073e+00
1.337105332835853977e-01 2.286537686881896292e+00
1.347510821802507808e-01 2.562796241474373460e+00
1.357916310769161639e-01 2.565013301091127573e+00
1.368321799735815469e-01 2.637021670207165158e+00
1.378727288702469300e-01 3.047477132622120166e+00
1.389132777669123131e-01 3.614662053650917528e+00
1.399538266635776962e-01 4.121306697618965842e+00
1.409943755602430793e-01 4.347004654192730300e+00
1.420349244569084624e-01 4.699297144522784464e+00
1.430754733535738454e-01 4.837358748082838389e+00
1.441160222502392285e-01 5.516089319567640814e+00
1.451565711469046116e-01 6.162423778046935752e+00
1.461971200435699947e-01 6.170586131432717281e+00
1.472376689402353778e-01 6.650531212236860057e+00
1.482782178369007609e-01 7.146321447143424876e+00
1.493187667335661439e-01 7.651495872498852435e+00
1.503593156302315270e-01 8.281257338168881432e+00
1.513998645268969101e-01 8.612355842215148272e+00
1.524404134235622932e-01 9.175287928044689068e+00
1.534809623202276763e-01 9.653719170757113943e+00
1.545215112168930593e-01 1.002164241185966276e+01
1.555620601135584424e-01 1.037711877946494354e+01
1.566026090102238255e-01 1.102496846754703341e+01
1.576431579068892086e-01 1.159317231869906450e+01
1.586837068035545917e-01 1.131035330641930159e+01
1.597242557002199748e-01 1.129440935606881169e+01
1.607648045968853578e-01 1.195079783642364646e+01
1.618053534935507409e-01 1.248967669793726998e+01
1.628459023902161240e-01 1.250415245279582876e+01
1.638864512868815071e-01 1.241374103526361949e+01
1.649270001835468902e-01 1.282330103720180858e+01
1.659675490802122733e-01 1.294711240415084674e+01
1.670080979768776563e-01 1.307827629378520840e+01
1.680486468735430672e-01 1.316771746473032323e+01
1.690891957702084503e-01 1.282485509766683052e+01
1.701297446668738333e-01 1.270047063348277305e+01
1.711702935635392164e-01 1.246726849162772766e+01
1.722108424602045995e-01 1.226936258695032933e+01
1.732513913568699826e-01 1.232355303285708104e+01
1.742919402535353657e-01 1.217497060468604175e+01
1.753324891502007488e-01 1.232329165934121562e+01
1.763730380468661318e-01 1.192881779953080468e+01
1.774135869435315149e-01 1.135194017541309819e+01
1.784541358401968980e-01 1.128336117565507735e+01
1.794946847368622811e-01 1.137381736954182898e+01
1.805352336335276642e-01 1.103330167688641339e+01
1.815757825301930473e-01 1.072705664979599405e+01
1.826163314268584303e-01 1.063939902456155551e+01
1.836568803235238134e-01 1.038017913652453927e+01
1.846974292201891965e-01 1.021229876155749849e+01
1.857379781168545796e-01 1.001860699446240588e+01
1.867785270135199627e-01 9.519682051878874063e+00
1.878190759101853458e-01 9.015662322349307090e+00
1.888596248068507288e-01 8.667114486134419593e+00
1.899001737035161119e-01 8.122956257118978840e+00
1.909407226001814950e-01 7.805168803661132415e+00
1.919812714968468781e-01 7.583993253458810813e+00
1.930218203935122612e-01 7.134129321490160436e+00
1.940623692901776443e-01 6.965582498537482792e+00
1.951029181868430273e-01 6.889014111749215630e+00
1.961434670835084104e-01 6.222139750291393767e+00
1.971840159801737935e-01 5.699222996322173884e+00
1.982245648768391766e-01 5.406763295034721750e+00
1.992651137735045597e-01 5.391624395071595188e+00
2.003056626701699428e-01 4.881844978345192487e+00
2.013462115668353813e-01 4.760989321455408430e+00
2.023867604635007644e-01 4.482636228500357589e+00
2.034273093601661475e-01 4.032786887129603315e+00
2.044678582568315306e-01 3.677498584815417360e+00
2.055084071534969137e-01 3.623233390344022808e+00
2.065489560501622968e-01 3.428116055666912132e+00
2.075895049468276798e-01 3.008718485889911420e+00
2.086300538434930629e-01 2.757528972388364252e+00
2.096706027401584460e-01 2.437018659441250179e+00
2.107111516368238291e-01 2.355706613214969991e+00
2.117517005334892122e-01 2.231982254454170089e+00
2.127922494301545953e-01 2.308842366938652191e+00
2.138327983268199783e-01 2.381840838666871463e+00
2.148733472234853614e-01 2.067845080820525538e+00
2.159138961201507445e-01 1.662048404989295847e+00
2.169544450168161276e-01 1.331145141089290718e+00
2.179949939134815107e-01 1.244910105438403747e+00
2.190355428101468938e-01 1.302352457643237926e+00
2.200760917068122768e-01 1.377964548453388005e+00
2.211166406034776599e-01 9.381243544903199449e-01
2.221571895001430430e-01 7.546548314962251425e-01
2.231977383968084261e-01 1.049386241306670797e+00
2.242382872934738092e-01 1.087374056891714957e+00
2.252788361901391923e-01 9.414608624918727742e-01
2.263193850868045753e-01 1.011153393113275456e+00
2.273599339834699584e-01 9.464811026945767480e-01
2.284004828801353415e-01 1.055444630048071986e+00
2.294410317768007246e-01 9.283486605402124781e-01
2.304815806734661077e-01 8.494603709083818899e-01
2.315221295701314908e-01 8.789371356812196723e-01
2.325626784667968738e-01 8.547237562210945327e-01
2.336032273634622569e-01 8.682674537604633258e-01
2.346437762601276400e-01 9.186572474437184610e-01
2.356843251567930231e-01 1.042555584625375786e+00
2.367248740534584062e-01 1.307902086515948525e+00
2.377654229501237892e-01 1.290455042096684934e+00
2.388059718467891723e-01 1.342377642106516333e+00
2.398465207434545554e-01 1.392257286333673960e+00
2.408870696401199385e-01 1.404228688145767734e+00
2.419276185367853216e-01 1.473152477631064272e+00
2.429681674334507047e-01 1.394534397980969231e+00
2.440087163301160877e-01 1.465779486062089632e+00
2.450492652267814708e-01 1.415782319996047534e+00
2.460898141234468539e-01 1.421663450714074628e+00
2.471303630201122370e-01 1.765585677803976239e+00
2.481709119167776201e-01 2.013138573830886457e+00
2.492114608134430032e-01 1.892417773278811666e+00
2.502520097101083585e-01 2.161022973782987577e+00
2.512925586067737416e-01 1.940997987818963821e+00
2.523331075034391247e-01 2.009407398465555161e+00
2.533736564001045077e-01 2.227811458332357830e+00
2.544142052967698908e-01 2.055286237831747798e+00
2.554547541934352739e-01 2.029346925197703655e+00
2.564953030901006570e-01 2.324657105135067070e+00
2.575358519867660401e-01 2.579946678787244707e+00
2.585764008834314231e-01 2.452725248712916084e+00
2.596169497800968062e-01 2.438384842977821876e+00
2.606574986767621893e-01 2.531381059885465135e+00
2.616980475734275724e-01 2.574444885271741867e+00
2.627385964700929555e-01 2.376773203786889610e+00
2.637791453667583386e-01 2.436450137279052797e+00
2.648196942634237216e-01 2.176781804905811413e+00
2.658602431600891047e-01 2.146891872317127081e+00
2.669007920567544878e-01 2.292865102080394735e+00
2.679413409534198709e-01 2.221965357157834831e+00
2.689818898500852540e-01 2.371101688622331949e+00
2.700224387467506371e-01 2.201013577111567088e+00
2.710629876434160201e-01 2.095913940344740212e+00
2.721035365400814032e-01 2.269257142164132546e+00
2.731440854367467863e-01 2.213866582159795371e+00
2.741846343334121694e-01 1.989962123318303355e+00
2.752251832300775525e-01 2.239061148926083433e+00
2.762657321267429356e-01 2.211846940197126798e+00
2.773062810234083186e-01 2.169345001185938315e+00
2.783468299200737017e-01 2.039175606363219373e+00
2.793873788167390848e-01 2.228895801008295763e+00
2.804279277134044679e-01 2.110802522951104265e+00
2.814684766100698510e-01 1.925616230295755571e+00
2.825090255067352341e-01 1.837604902950136676e+00
2.835495744034006171e-01 2.047270270709482531e+00
2.845901233000660002e-01 2.054270141641168834e+00
2.856306721967313833e-01 1.864333047161192525e+00
2.866712210933967664e-01 1.682984617080631295e+00
2.877117699900621495e-01 1.751694409441206801e+00
2.887523188867275326e-01 1.751907403143341924e+00
2.897928677833929156e-01 1.364781800267106604e+00
2.908334166800582987e-01 1.358837306523803079e+00
2.918739655767236818e-01 1.494463550750968039e+00
2.929145144733890649e-01 1.501653342046999740e+00
2.939550633700544480e-01 1.462120199698389911e+00
2.949956122667198311e-01 1.489243010913703813e+00
2.960361611633852141e-01 1.550785664367385408e+00
2.970767100600505972e-01 1.492219934868010967e+00
2.981172589567159803e-01 1.347764025602742777e+00
2.991578078533813634e-01 1.259983475913504236e+00
3.001983567500468020e-01 1.197987298324687089e+00
3.012389056467121851e-01 1.035183858677957147e+00
3.022794545433775681e-01 8.267800756080525559e-01
3.033200034400429512e-01 5.733379437552841296e-01
3.043605523367083343e-01 8.766037540626818725e-01
3.054011012333737174e-01 8.437572735617102637e-01
3.064416501300391005e-01 7.552124912071036533e-01
3.074821990267044836e-01 7.045093369426957963e-01
3.085227479233698666e-01 7.259226781734433587e-01
3.095632968200352497e-01 7.006061599422643837e-01
3.106038457167006328e-01 4.892787297856528994e-01
3.116443946133660159e-01 5.093138759117969983e-01
3.126849435100313990e-01 6.045558554614949287e-01
3.137254924066967821e-01 7.085143752923279692e-01
3.147660413033621651e-01 5.347672750784617790e-01
3.158065902000275482e-01 6.567904004178544142e-01
3.168471390966929313e-01 9.372858490126318998e-01
3.178876879933583144e-01 9.155639460519928718e-01
3.189282368900236975e-01 8.080442478968734576e-01
3.199687857866890806e-01 7.347725951296908420e-01
3.210093346833544636e-01 8.169760842836524262e-01
3.220498835800198467e-01 9.140196767153838664e-01
3.230904324766852298e-01 7.514665292942801500e-01
3.241309813733506129e-01 4.878885809852953059e-01
3.251715302700159960e-01 4.468700482758833914e-01
3.262120791666813790e-01 5.505390803486207574e-01
3.272526280633467621e-01 7.577478778456026021e-01
3.282931769600121452e-01 6.377222139572040760e-01
3.293337258566775283e-01 4.528646041091768382e-01
3.303742747533429114e-01 6.952537995738907739e-01
3.314148236500082945e-01 8.270669442578615360e-01
3.324553725466736775e-01 7.282488999390892559e-01
3.334959214433390606e-01 3.764157437309272325e-01
3.345364703400044437e-01 5.311148339079210245e-01
3.355770192366698268e-01 6.575445858062742843e-01
3.366175681333352099e-01 5.304298010056740509e-01
3.376581170300005930e-01 5.396262725017351158e-01
3.386986659266659760e-01 6.714338156843311367e-01
3.397392148233313591e-01 6.865997968267869567e-01
3.407797637199967422e-01 7.090789600166083062e-01
3.418203126166621253e-01 5.933735747825039653e-01
3.428608615133275084e-01 6.581226315323576159e-01
3.439014104099928915e-01 6.434354460270483855e-01
3.449419593066582745e-01 6.986710220185621267e-01
3.459825082033236576e-01 8.862166764900791804e-01
3.470230570999890407e-01 8.594800047362873840e-01
3.480636059966544238e-01 7.516783275471325965e-01
3.491041548933198069e-01 7.417253532500609481e-01
3.501447037899851900e-01 9.477437909169168506e-01
3.511852526866505730e-01 9.014960428891996003e-01
3.522258015833159561e-01 8.246089286518163419e-01
3.532663504799813392e-01 6.111888410950783168e-01
3.543068993766467223e-01 7.927183516870890401e-01
3.553474482733121054e-01 9.162507400660615531e-01
3.563879971699774885e-01 8.831366407848939559e-01
3.574285460666428715e-01 8.687522549744421951e-01
3.584690949633082546e-01 8.365115140198469135e-01
3.595096438599736377e-01 8.354238439431185270e-01
3.605501927566390208e-01 1.040229418851932763e+00
3.615907416533044039e-01 1.095802069607820783e+00
3.626312905499697870e-01 9.338121910339722831e-01
3.636718394466351700e-01 9.745768731408048779e-01
3.647123883433005531e-01 1.068506209720510469e+00
3.657529372399659362e-01 1.033333760875009943e+00
3.667934861366313193e-01 8.780204768772748025e-01
3.678340350332967024e-01 9.747499043579139766e-01
3.688745839299620854e-01 1.129361806265027468e+00
3.699151328266274685e-01 1.069507136068256870e+00
3.709556817232928516e-01 1.001987212774182012e+00
3.719962306199582347e-01 9.049021491659274830e-01
3.730367795166236178e-01 8.246706459457335825e-01
3.740773284132890009e-01 8.241364070605889935e-01
3.751178773099543839e-01 9.322861914343327783e-01
3.761584262066197670e-01 8.462326322359956521e-01
3.771989751032851501e-01 8.881706675429974496e-01
3.782395239999505332e-01 8.738803795098917249e-01
3.792800728966159163e-01 9.183896319658373386e-01
3.803206217932812994e-01 8.795872350922628868e-01
3.813611706899466824e-01 8.261268936570829169e-01
3.824017195866120655e-01 7.709426267679972966e-01
3.834422684832774486e-01 5.559337078933097587e-01
3.844828173799428317e-01 6.920028728221687686e-01
3.855233662766082148e-01 6.518587148099861395e-01
3.865639151732735979e-01 8.303733960152541727e-01
3.876044640699389809e-01 1.055417560458863591e+00
3.886450129666043640e-01 9.250558402778743528e-01
3.896855618632697471e-01 7.212327290485767151e-01
3.907261107599351302e-01 4.854643456729519357e-01
3.917666596566005133e-01 4.620351677737843943e-01
3.928072085532658964e-01 4.927309692105517058e-01
3.938477574499312794e-01 3.865673005749670210e-01
3.948883063465966625e-01 5.327244725836841610e-01
3.959288552432620456e-01 6.908624134262204564e-01
3.969694041399274287e-01 7.206172408912117078e-01
3.980099530365928118e-01 7.931282063876103905e-01
3.990505019332581949e-01 7.793166169088401318e-01
4.000910508299235779e-01 4.897224039491625547e-01
4.011315997265889610e-01 4.299079583355762679e-01
4.021721486232543441e-01 5.222421646698194309e-01
4.032126975199197272e-01 6.884339666648244815e-01
4.042532464165851103e-01 6.332216501248453255e-01
4.052937953132504934e-01 3.740561339165431320e-01
4.063343442099158764e-01 3.358411505968845745e-01
4.073748931065812595e-01 5.354769584829917051e-01
4.084154420032466426e-01 5.414374753297828136e-01
4.094559908999120257e-01 5.347063925849404598e-01
4.104965397965774088e-01 3.059456618020810481e-01
4.115370886932427918e-01 4.651426949604093863e-01
4.125776375899081749e-01 4.501982134514719291e-01
4.136181864865735580e-01 5.413124762507166565e-01
4.146587353832389411e-01 5.098203788577606588e-01
4.156992842799043242e-01 5.799056480501398880e-01
4.167398331765697073e-01 5.728740431827539226e-01
4.177803820732350903e-01 3.774752514923385149e-01
4.188209309699004734e-01 4.146225786375552502e-01
4.198614798665658565e-01 4.484512828350446512e-01
4.209020287632312396e-01 4.635864993607086149e-01
4.219425776598966227e-01 5.076098152562451560e-01
4.229831265565620058e-01 6.804358729994604005e-01
4.240236754532273888e-01 6.823243660618345530e-01
4.250642243498927719e-01 4.934066150690092911e-01
4.261047732465581550e-01 4.833448325895410846e-01
4.271453221432235381e-01 5.177044322615103056e-01
4.281858710398889212e-01 4.030973915410847042e-01
4.292264199365543043e-01 4.210351873085755869e-01
4.302669688332196873e-01 4.082262807596457321e-01
4.313075177298850704e-01 6.754408508898386287e-01
4.323480666265504535e-01 6.111678804402060905e-01
4.333886155232158366e-01 6.382665030643188686e-01
4.344291644198812197e-01 5.424174816369564667e-01
