# q (1/Angstrom), Intensity (arb)
2.029070354705860696e-02 1.453157924017796631e+03
2.133125244372399004e-02 1.447267070263906135e+03
2.237180134038937659e-02 1.432711677830371173e+03
2.341235023705475968e-02 1.421860983250139725e+03
2.445289913372014276e-02 1.413334445210069589e+03
2.549344803038552584e-02 1.404416757716057418e+03
2.653399692705091240e-02 1.390654907857274338e+03
2.757454582371629548e-02 1.377152343337713546e+03
2.861509472038167856e-02 1.359246367605743444e+03
2.965564361704706164e-02 1.342660590611443240e+03
3.069619251371244473e-02 1.332080685086466929e+03
3.173674141037782781e-02 1.313052016051369947e+03
3.277729030704321089e-02 1.291769874768328918e+03
3.381783920370859398e-02 1.269638624435714064e+03
3.485838810037397706e-02 1.244943999869047502e+03
3.589893699703936014e-02 1.226654915277066948e+03
3.693948589370474322e-02 1.208672020510380889e+03
3.798003479037012631e-02 1.182881118813348621e+03
3.902058368703550939e-02 1.161860006568301742e+03
4.006113258370089247e-02 1.139835769032375538e+03
4.110168148036627556e-02 1.115007468614321624e+03
4.214223037703165864e-02 1.092551373192910887e+03
4.318277927369704866e-02 1.071606756257074267e+03
4.422332817036243174e-02 1.048484023751205768e+03
4.526387706702781483e-02 1.025234917500172969e+03
4.630442596369319791e-02 1.000799209725487458e+03
4.734497486035858099e-02 9.769795545369710226e+02
4.838552375702396408e-02 9.553813379381524555e+02
4.942607265368934716e-02 9.323495261388977724e+02
5.046662155035473024e-02 9.081792679295102744e+02
5.150717044702011332e-02 8.832583238367074046e+02
5.254771934368549641e-02 8.602474599350450717e+02
5.358826824035087949e-02 8.372564769292683877e+02
5.462881713701626257e-02 8.107671099865073074e+02
5.566936603368164566e-02 7.860532668722272547e+02
5.670991493034702874e-02 7.666696931503149699e+02
5.775046382701241182e-02 7.436897330911680228e+02
5.879101272367779490e-02 7.184326967582926500e+02
5.983156162034317799e-02 6.962094275635793110e+02
6.087211051700856107e-02 6.755671114902017962e+02
6.191265941367394415e-02 6.527156375625654618e+02
6.295320831033933417e-02 6.308274206464807321e+02
6.399375720700471726e-02 6.074378131445677127e+02
6.503430610367010034e-02 5.868999857286335100e+02
6.607485500033548342e-02 5.657788022743908414e+02
6.711540389700086651e-02 5.427072879961756371e+02
6.815595279366624959e-02 5.209847457444781185e+02
6.919650169033163267e-02 5.011440137392681891e+02
7.023705058699701576e-02 4.831188770401003580e+02
7.127759948366239884e-02 4.636347846765103782e+02
7.231814838032778192e-02 4.426773986196116653e+02
7.335869727699316500e-02 4.224378750574979335e+02
7.439924617365854809e-02 4.038333752819171423e+02
7.543979507032393117e-02 3.880489520197980369e+02
7.648034396698931425e-02 3.705963977343138254e+02
7.752089286365469734e-02 3.523886151834814200e+02
7.856144176032008042e-02 3.347241808083910541e+02
7.960199065698546350e-02 3.182198172221258687e+02
8.064253955365084658e-02 3.022053577483613367e+02
8.168308845031622967e-02 2.871611256093044631e+02
8.272363734698161275e-02 2.728531104187482015e+02
8.376418624364699583e-02 2.590193080922116451e+02
8.480473514031239279e-02 2.462639946670506106e+02
8.584528403697777588e-02 2.327068601520139737e+02
8.688583293364315896e-02 2.195617731458744402e+02
8.792638183030854204e-02 2.071281555578887605e+02
8.896693072697392513e-02 1.934939701613117222e+02
9.000747962363930821e-02 1.823799020916119105e+02
9.104802852030469129e-02 1.711337864343743718e+02
9.208857741697007437e-02 1.606902816248805834e+02
9.312912631363545746e-02 1.499696566676062730e+02
9.416967521030084054e-02 1.400213827323695455e+02
9.521022410696622362e-02 1.301958364443738674e+02
9.625077300363160671e-02 1.216119135538310019e+02
9.729132190029698979e-02 1.126174614738254149e+02
9.833187079696237287e-02 1.046104600913662352e+02
9.937241969362775595e-02 9.696423684076243887e+01
1.004129685902931390e-01 9.043860228912984667e+01
1.014535174869585221e-01 8.362872558084413299e+01
1.024940663836239052e-01 7.553476502289899486e+01
1.035346152802892883e-01 6.972426048134279597e+01
1.045751641769546714e-01 6.409794605929401712e+01
1.056157130736200545e-01 5.799703233797866631e+01
1.066562619702854375e-01 5.224225524035880142e+01
1.076968108669508206e-01 4.751669362659589524e+01
1.087373597636162037e-01 4.312315457331992263e+01
1.097779086602815868e-01 3.878268282989596116e+01
1.108184575569469699e-01 3.507134805073157224e+01
1.118590064536123529e-01 3.113323806587275300e+01
1.128995553502777360e-01 2.787272239608126512e+01
1.139401042469431191e-01 2.484463275452615960e+01
1.149806531436085022e-01 2.183401879821247604e+01
1.160212020402738853e-01 1.956323263122311573e+01
1.170617509369392684e-01 1.757983730148719204e+01
1.181022998336046514e-01 1.489344959984265415e+01
1.191428487302700345e-01 1.236190840086855403e+01
1.201833976269354176e-01 1.040001250140956301e+01
1.212239465236008007e-01 9.174148929130538477e+00
1.222644954202661838e-01 7.833669102327629474e+00
1.233050443169315669e-01 7.007444045445843983e+00
1.243455932135969499e-01 5.806588985603635678e+00
1.253861421102623330e-01 5.337958182690016429e+00
1.264266910069277161e-01 4.648747168027576038e+00
1.274672399035930992e-01 3.734023389846392149e+00
1.285077888002584823e-01 2.947782377156343614e+00
1.295483376969238654e-01 2.713623577967592126e+00
1.305888865935892484e-01 2.230509737227777123e+00
1.316294354902546315e-01 2.233978283457929592e+00
1.326699843869200146e-01 2.219840010816959364e+00
1.337105332835853977e-01 2.157389426830697232e+00
1.347510821802507808e-01 2.275574066158423392e+00
1.357916310769161639e-01 2.172326793750954721e+00
1.368321799735815469e-01 2.184584484484592082e+00
1.378727288702469300e-01 2.612006312816092191e+00
1.389132777669123131e-01 2.737536964924306204e+00
1.399538266635776962e-01 3.152547230900637487e+00
1.409943755602430793e-01 3.578713073496484043e+00
1.420349244569084624e-01 4.002317378741683029e+00
1.430754733535738454e-01 4.356722166832565080e+00
1.441160222502392285e-01 4.642148746288647487e+00
1.451565711469046116e-01 5.388305238965408250e+00
1.461971200435699947e-01 6.675934734754257249e+00
1.472376689402353778e-01 7.784011717011022569e+00
1.482782178369007609e-01 7.086455535369644565e+00
1.493187667335661439e-01 7.253337760638530085e+00
1.503593156302315270e-01 7.839744614844015302e+00
1.513998645268969101e-01 7.876024167537092779e+00
1.524404134235622932e-01 8.075188330267319969e+00
1.534809623202276763e-01 8.482238648494359268e+00
1.545215112168930593e-01 8.845635625870734486e+00
1.555620601135584424e-01 9.349941862253327685e+00
1.566026090102238255e-01 9.571237423223699636e+00
1.576431579068892086e-01 1.002640454067093145e+01
1.586837068035545917e-01 9.898253873052009766e+00
1.597242557002199748e-01 1.030974561518080179e+01
1.607648045968853578e-01 1.050148720507358391e+01
1.618053534935507409e-01 1.069337070159781433e+01
1.628459023902161240e-01 1.094036816510707766e+01
1.638864512868815071e-01 1.129282462693985067e+01
1.649270001835468902e-01 1.147719623378164755e+01
1.659675490802122733e-01 1.179299589903637724e+01
1.670080979768776563e-01 1.177577336678881537e+01
1.680486468735430672e-01 1.177515982827511820e+01
1.690891957702084503e-01 1.166907157893104241e+01
1.701297446668738333e-01 1.110062723126446826e+01
1.711702935635392164e-01 1.148129356401791057e+01
1.722108424602045995e-01 1.165760008044798823e+01
1.732513913568699826e-01 1.147981567000443448e+01
1.742919402535353657e-01 1.113467394950998823e+01
1.753324891502007488e-01 1.096737712396658182e+01
1.763730380468661318e-01 1.097084358697465234e+01
1.774135869435315149e-01 1.071015081172284411e+01
1.784541358401968980e-01 1.024742405490534480e+01
1.794946847368622811e-01 1.000091967282545369e+01
1.805352336335276642e-01 9.880987757724810194e+00
1.815757825301930473e-01 9.638991158537390191e+00
1.826163314268584303e-01 9.377520605038139223e+00
1.836568803235238134e-01 9.428764274241483889e+00
1.846974292201891965e-01 9.237796210338988345e+00
1.857379781168545796e-01 8.364368347079764732e+00
1.867785270135199627e-01 8.133757969100756213e+00
1.878190759101853458e-01 8.030514667586110988e+00
1.888596248068507288e-01 7.527014833962923035e+00
1.899001737035161119e-01 7.359038688557543395e+00
1.909407226001814950e-01 7.126208225625205728e+00
1.919812714968468781e-01 7.041410162450723931e+00
1.930218203935122612e-01 6.254636450125090619e+00
1.940623692901776443e-01 5.968102245958974095e+00
1.951029181868430273e-01 5.517514082388562002e+00
1.961434670835084104e-01 5.639136141596523544e+00
1.971840159801737935e-01 5.341229877300392559e+00
1.982245648768391766e-01 4.940705919884191388e+00
1.992651137735045597e-01 4.581631734292002989e+00
2.003056626701699428e-01 4.408607741964356563e+00
2.013462115668353813e-01 4.098936248918555236e+00
2.023867604635007644e-01 4.139892141126676250e+00
2.034273093601661475e-01 3.659421764349897188e+00
2.044678582568315306e-01 3.328805239525937765e+00
2.055084071534969137e-01 3.144032605320379758e+00
2.065489560501622968e-01 2.883718727856820152e+00
2.075895049468276798e-01 2.902467031414328602e+00
2.086300538434930629e-01 2.571873362569924382e+00
2.096706027401584460e-01 2.041158444269164818e+00
2.107111516368238291e-01 1.934792094480226154e+00
2.117517005334892122e-01 1.727960107539512791e+00
2.127922494301545953e-01 1.755710654918075875e+00
2.138327983268199783e-01 1.441823940315803299e+00
2.148733472234853614e-01 1.389611376103971452e+00
2.159138961201507445e-01 1.299000292932266376e+00
2.169544450168161276e-01 1.006283454886865769e+00
2.179949939134815107e-01 7.576503760469037729e-01
2.190355428101468938e-01 7.782727019372543964e-01
2.200760917068122768e-01 1.226978909209336166e+00
2.211166406034776599e-01 9.878783517303695305e-01
2.221571895001430430e-01 9.062805785165686245e-01
2.231977383968084261e-01 6.627927988907451606e-01
2.242382872934738092e-01 5.847696559000397087e-01
2.252788361901391923e-01 6.098730610383498174e-01
2.263193850868045753e-01 7.767521464431119682e-01
2.273599339834699584e-01 6.509491117113910263e-01
2.284004828801353415e-01 7.638258857690765069e-01
2.294410317768007246e-01 8.257176610099428160e-01
2.304815806734661077e-01 8.259687641122042123e-01
2.315221295701314908e-01 8.314039708167371145e-01
2.325626784667968738e-01 3.556257842240668765e-01
2.336032273634622569e-01 6.578677193417767910e-01
2.346437762601276400e-01 8.776517686941396335e-01
2.356843251567930231e-01 9.338942135271359746e-01
2.367248740534584062e-01 7.513921511389405339e-01
2.377654229501237892e-01 1.279446012332158489e+00
2.388059718467891723e-01 1.097428425442828370e+00
2.398465207434545554e-01 9.834919930755283701e-01
2.408870696401199385e-01 1.191523582658426506e+00
2.419276185367853216e-01 1.230441537041485844e+00
2.429681674334507047e-01 1.245923701346381307e+00
2.440087163301160877e-01 1.214183358390535261e+00
2.450492652267814708e-01 1.380284435286672107e+00
2.460898141234468539e-01 1.395358552739317304e+00
2.471303630201122370e-01 1.250721763777065121e+00
2.481709119167776201e-01 1.470431434159568340e+00
2.492114608134430032e-01 1.693986854588558799e+00
2.502520097101083585e-01 1.672654972008171370e+00
2.512925586067737416e-01 1.902764626356340472e+00
2.523331075034391247e-01 1.704712493016454999e+00
2.533736564001045077e-01 1.780319782615258362e+00
2.544142052967698908e-01 1.865644425642120297e+00
2.554547541934352739e-01 1.768535223591669592e+00
2.564953030901006570e-01 1.571412099949739627e+00
2.575358519867660401e-01 1.467577368247276581e+00
2.585764008834314231e-01 1.666700395896427267e+00
2.596169497800968062e-01 1.731115778494469737e+00
2.606574986767621893e-01 1.911452608376691842e+00
2.616980475734275724e-01 1.699567024458541908e+00
2.627385964700929555e-01 1.723490533212363118e+00
2.637791453667583386e-01 1.782187603821068222e+00
2.648196942634237216e-01 1.862787660635490283e+00
2.658602431600891047e-01 1.854184520375266487e+00
2.669007920567544878e-01 1.894176539950212401e+00
2.679413409534198709e-01 1.760854933171181358e+00
2.689818898500852540e-01 1.543971572742957932e+00
2.700224387467506371e-01 1.648829283110227806e+00
2.710629876434160201e-01 1.770496179030114803e+00
2.721035365400814032e-01 1.734613984585028135e+00
2.731440854367467863e-01 1.753039552310916349e+00
2.741846343334121694e-01 1.990026495796989536e+00
2.752251832300775525e-01 1.888366008687629716e+00
2.762657321267429356e-01 1.707043452684750662e+00
2.773062810234083186e-01 1.765124443444438640e+00
2.783468299200737017e-01 1.679950252959088175e+00
2.793873788167390848e-01 1.545169931729713397e+00
2.804279277134044679e-01 1.546779618923093125e+00
2.814684766100698510e-01 1.357241126313592616e+00
2.825090255067352341e-01 1.447507523027727672e+00
2.835495744034006171e-01 1.351998316751441109e+00
2.845901233000660002e-01 1.459628675990945368e+00
2.856306721967313833e-01 1.607808887267236031e+00
2.866712210933967664e-01 1.450277884358140312e+00
2.877117699900621495e-01 1.417263436732788762e+00
2.887523188867275326e-01 1.455148432759408195e+00
2.897928677833929156e-01 1.254142522194040765e+00
2.908334166800582987e-01 9.936136382200295714e-01
2.918739655767236818e-01 1.042228351800876140e+00
2.929145144733890649e-01 1.240349387104949130e+00
2.939550633700544480e-01 1.115828015736333612e+00
2.949956122667198311e-01 8.976756474066540648e-01
2.960361611633852141e-01 6.935342222681164515e-01
2.970767100600505972e-01 8.321328620359587092e-01
2.981172589567159803e-01 9.418322374146548270e-01
2.991578078533813634e-01 8.769086100618572743e-01
3.001983567500468020e-01 6.627077354239325757e-01
3.012389056467121851e-01 8.099486446377959226e-01
3.022794545433775681e-01 9.675772685302170828e-01
3.033200034400429512e-01 8.323332979389022057e-01
3.043605523367083343e-01 7.419719648833762449e-01
3.054011012333737174e-01 5.912679977998180902e-01
3.064416501300391005e-01 5.208527362078960721e-01
3.074821990267044836e-01 6.607863662025010854e-01
3.085227479233698666e-01 4.692307284190917471e-01
3.095632968200352497e-01 5.337765773516416346e-01
3.106038457167006328e-01 5.237163041320052059e-01
3.116443946133660159e-01 3.829635244921405501e-01
3.126849435100313990e-01 4.481508203264077395e-01
3.137254924066967821e-01 4.268163473895612015e-01
3.147660413033621651e-01 3.342509720220512293e-01
3.158065902000275482e-01 4.387235355646943447e-01
3.168471390966929313e-01 3.784754734277377963e-01
3.178876879933583144e-01 5.122857353502574540e-01
3.189282368900236975e-01 4.399248514860865100e-01
3.199687857866890806e-01 3.761405939638677864e-01
3.210093346833544636e-01 1.881291246208718348e-01
3.220498835800198467e-01 0.000000000000000000e+00
3.230904324766852298e-01 1.326825655777490454e-01
3.241309813733506129e-01 4.179500542986822609e-01
3.251715302700159960e-01 6.316244554207841588e-01
3.262120791666813790e-01 5.201909086088640777e-01
3.272526280633467621e-01 4.225170815558598747e-01
3.282931769600121452e-01 5.044548342361849791e-01
3.293337258566775283e-01 4.306783231333248807e-01
3.303742747533429114e-01 4.733658056158205341e-01
3.314148236500082945e-01 6.700299686835613500e-01
3.324553725466736775e-01 3.432038262229433201e-01
3.334959214433390606e-01 3.966337535267143721e-01
3.345364703400044437e-01 6.790077232410567376e-01
3.355770192366698268e-01 5.919244545749187125e-01
3.366175681333352099e-01 6.067486205564307511e-01
3.376581170300005930e-01 4.560851568206381046e-01
3.386986659266659760e-01 4.256719811241680418e-01
3.397392148233313591e-01 4.064556150084328578e-01
3.407797637199967422e-01 4.983269119516791079e-01
3.418203126166621253e-01 6.580986886111048761e-01
3.428608615133275084e-01 6.489257267221155701e-01
3.439014104099928915e-01 5.428660144979460256e-01
3.449419593066582745e-01 5.372758560937249683e-01
3.459825082033236576e-01 7.175052200242753031e-01
3.470230570999890407e-01 8.154080881546335036e-01
3.480636059966544238e-01 6.000014880601085565e-01
3.491041548933198069e-01 7.190274625007120335e-01
3.501447037899851900e-01 9.106070708363489530e-01
3.511852526866505730e-01 8.388517499029504165e-01
3.522258015833159561e-01 8.424163656508412146e-01
3.532663504799813392e-01 8.393272994094118644e-01
3.543068993766467223e-01 7.193640398009790715e-01
3.553474482733121054e-01 5.243432350141326026e-01
3.563879971699774885e-01 6.517907161096445634e-01
3.574285460666428715e-01 6.679026193437280767e-01
3.584690949633082546e-01 6.212142519780563532e-01
3.595096438599736377e-01 6.426114245440643913e-01
3.605501927566390208e-01 6.766905345113585213e-01
3.615907416533044039e-01 8.896088933750156968e-01
3.626312905499697870e-01 7.118101843944906193e-01
3.636718394466351700e-01 6.444027975288868504e-01
3.647123883433005531e-01 8.490200508263292534e-01
3.657529372399659362e-01 7.015239338130321300e-01
3.667934861366313193e-01 6.249478328469066923e-01
3.678340350332967024e-01 5.406957928724658302e-01
3.688745839299620854e-01 6.378583584304671206e-01
3.699151328266274685e-01 4.997117706800189296e-01
3.709556817232928516e-01 5.229810468456683736e-01
3.719962306199582347e-01 5.608514896155654128e-01
3.730367795166236178e-01 4.679818494458061195e-01
3.740773284132890009e-01 4.326218948474647163e-01
3.751178773099543839e-01 6.482316291018754839e-01
3.761584262066197670e-01 6.573485932418670075e-01
3.771989751032851501e-01 6.611296630530212326e-01
3.782395239999505332e-01 5.350904867817547483e-01
3.792800728966159163e-01 5.002813616476977643e-01
3.803206217932812994e-01 5.964632723120288915e-01
3.813611706899466824e-01 6.215825126738501183e-01
3.824017195866120655e-01 7.223631860808090721e-01
3.834422684832774486e-01 8.891069269407942954e-01
3.844828173799428317e-01 7.808449747955954479e-01
3.855233662766082148e-01 6.605719568507240069e-01
3.865639151732735979e-01 6.495215232422530960e-01
3.876044640699389809e-01 6.328152500660877422e-01
3.886450129666043640e-01 5.368041383467243577e-01
3.896855618632697471e-01 5.685831463273771647e-01
3.907261107599351302e-01 5.867855387503126963e-01
3.917666596566005133e-01 5.283283623789962746e-01
3.928072085532658964e-01 4.702822914246560515e-01
3.938477574499312794e-01 4.380693751232129785e-01
3.948883063465966625e-01 4.963030253191753616e-01
3.959288552432620456e-01 3.353948105415867076e-01
3.969694041399274287e-01 1.578150441065382381e-01
3.980099530365928118e-01 1.489716362862267829e-01
3.990505019332581949e-01 9.610062800769014757e-02
4.000910508299235779e-01 4.286103892074883959e-01
4.011315997265889610e-01 5.204739129534843300e-01
4.021721486232543441e-01 6.756667633376665094e-01
4.032126975199197272e-01 6.363091087985957017e-01
4.042532464165851103e-01 4.318140330173783070e-01
4.052937953132504934e-01 3.351789784876757494e-01
4.063343442099158764e-01 2.878397839466124708e-01
4.073748931065812595e-01 4.645577906269124924e-01
4.084154420032466426e-01 1.421166396492559159e-01
4.094559908999120257e-01 2.144883090188614005e-01
4.104965397965774088e-01 2.297423670316511846e-01
4.115370886932427918e-01 2.483217507760286935e-01
4.125776375899081749e-01 2.279309897996100176e-01
4.136181864865735580e-01 2.293145806800822584e-01
4.146587353832389411e-01 2.664888221138710378e-01
4.156992842799043242e-01 3.233178282260169567e-01
4.167398331765697073e-01 3.061896078945096633e-01
4.177803820732350903e-01 4.360371874055601893e-01
4.188209309699004734e-01 5.713886003644752520e-01
4.198614798665658565e-01 3.659644300576587739e-01
4.209020287632312396e-01 3.963788394111915636e-01
4.219425776598966227e-01 4.324883147680118611e-01
4.229831265565620058e-01 4.348368287421600087e-01
4.240236754532273888e-01 3.596550766199264615e-01
4.250642243498927719e-01 4.769997341025806747e-01
4.261047732465581550e-01 2.993229682858569163e-01
4.271453221432235381e-01 3.538581966178355742e-01
4.281858710398889212e-01 3.753233248078124973e-01
4.292264199365543043e-01 3.327135260490337032e-01
4.302669688332196873e-01 3.801562796497925945e-01
4.313075177298850704e-01 4.805115092055274317e-01
4.323480666265504535e-01 4.542285947171080807e-01
4.333886155232158366e-01 3.725726642132229927e-01
4.344291644198812197e-01 4.084565793641488085e-01
