# q (1/Angstrom), Intensity (arb)
2.029070354705860696e-02 1.204348892292585788e+03
2.133125244372399004e-02 1.202330833456059509e+03
2.237180134038937659e-02 1.195508367603026272e+03
2.341235023705475968e-02 1.182985869781483871e+03
2.445289913372014276e-02 1.175351319172287276e+03
2.549344803038552584e-02 1.166720211578999169e+03
2.653399692705091240e-02 1.156654494897284849e+03
2.757454582371629548e-02 1.143225954647254184e+03
2.861509472038167856e-02 1.127040275262663727e+03
2.965564361704706164e-02 1.113374612525240309e+03
3.069619251371244473e-02 1.101061342211810370e+03
3.173674141037782781e-02 1.086341533056813887e+03
3.277729030704321089e-02 1.065405781152471263e+03
3.381783920370859398e-02 1.049787580927371891e+03
3.485838810037397706e-02 1.037898045712238854e+03
3.589893699703936014e-02 1.022044930238966003e+03
3.693948589370474322e-02 1.002107875248083701e+03
3.798003479037012631e-02 9.827832677337485165e+02
3.902058368703550939e-02 9.653927763941953799e+02
4.006113258370089247e-02 9.443381354271472219e+02
4.110168148036627556e-02 9.275706442255852835e+02
4.214223037703165864e-02 9.095148891955727777e+02
4.318277927369704866e-02 8.889971267801939803e+02
4.422332817036243174e-02 8.706178006803469316e+02
4.526387706702781483e-02 8.525527058671685836e+02
4.630442596369319791e-02 8.335268250729810688e+02
4.734497486035858099e-02 8.121320498013841416e+02
4.838552375702396408e-02 7.921782415598260059e+02
4.942607265368934716e-02 7.723024106251241392e+02
5.046662155035473024e-02 7.545560334606207107e+02
5.150717044702011332e-02 7.326854342158706004e+02
5.254771934368549641e-02 7.124430643447913098e+02
5.358826824035087949e-02 6.949798735450295908e+02
5.462881713701626257e-02 6.742246179814077323e+02
5.566936603368164566e-02 6.539155116740558924e+02
5.670991493034702874e-02 6.345991011144423055e+02
5.775046382701241182e-02 6.137349363925151238e+02
5.879101272367779490e-02 5.944713552141832906e+02
5.983156162034317799e-02 5.770046014625207818e+02
6.087211051700856107e-02 5.602649420808901368e+02
6.191265941367394415e-02 5.417123452953429705e+02
6.295320831033933417e-02 5.211543698240614049e+02
6.399375720700471726e-02 5.014674501825311381e+02
6.503430610367010034e-02 4.845029937260920292e+02
6.607485500033548342e-02 4.675531058864470424e+02
6.711540389700086651e-02 4.526800045655017470e+02
6.815595279366624959e-02 4.346926665103357550e+02
6.919650169033163267e-02 4.155832520019918093e+02
7.023705058699701576e-02 4.010619031187914629e+02
7.127759948366239884e-02 3.843960019321577306e+02
7.231814838032778192e-02 3.670461600834729552e+02
7.335869727699316500e-02 3.523040901239689333e+02
7.439924617365854809e-02 3.375718996144534003e+02
7.543979507032393117e-02 3.229703408513083218e+02
7.648034396698931425e-02 3.071383929670064390e+02
7.752089286365469734e-02 2.925548422847596726e+02
7.856144176032008042e-02 2.798500736703770713e+02
7.960199065698546350e-02 2.667175035960362948e+02
8.064253955365084658e-02 2.518249733737756628e+02
8.168308845031622967e-02 2.392800363407829423e+02
8.272363734698161275e-02 2.285170615805712657e+02
8.376418624364699583e-02 2.186204018014811084e+02
8.480473514031239279e-02 2.077239809849612868e+02
8.584528403697777588e-02 1.973295029003016623e+02
8.688583293364315896e-02 1.857002734554815504e+02
8.792638183030854204e-02 1.753515662040969687e+02
8.896693072697392513e-02 1.643709783152106354e+02
9.000747962363930821e-02 1.547175035534295944e+02
9.104802852030469129e-02 1.457428731620266547e+02
9.208857741697007437e-02 1.356451300954261683e+02
9.312912631363545746e-02 1.262516190083274523e+02
9.416967521030084054e-02 1.186278542681578472e+02
9.521022410696622362e-02 1.116056232142273359e+02
9.625077300363160671e-02 1.043164498497587829e+02
9.729132190029698979e-02 9.771032518712004844e+01
9.833187079696237287e-02 9.015019313647650279e+01
9.937241969362775595e-02 8.228485779617770390e+01
1.004129685902931390e-01 7.572190159330065740e+01
1.014535174869585221e-01 7.046108360780809221e+01
1.024940663836239052e-01 6.480856238147674730e+01
1.035346152802892883e-01 5.883527833807320917e+01
1.045751641769546714e-01 5.355948718865955982e+01
1.056157130736200545e-01 4.874110284350382472e+01
1.066562619702854375e-01 4.406210210974079189e+01
1.076968108669508206e-01 4.039722220970030264e+01
1.087373597636162037e-01 3.653660639026099943e+01
1.097779086602815868e-01 3.307525833688016093e+01
1.108184575569469699e-01 2.974303731369736781e+01
1.118590064536123529e-01 2.671140145481527739e+01
1.128995553502777360e-01 2.413694234780662384e+01
1.139401042469431191e-01 2.105506227501235372e+01
1.149806531436085022e-01 1.875606728456780203e+01
1.160212020402738853e-01 1.658412459983406606e+01
1.170617509369392684e-01 1.459565250963862226e+01
1.181022998336046514e-01 1.238103622370602608e+01
1.191428487302700345e-01 1.103954167137582942e+01
1.201833976269354176e-01 9.699926548053685593e+00
1.212239465236008007e-01 8.265374728063211052e+00
1.222644954202661838e-01 7.090813500359828936e+00
1.233050443169315669e-01 6.258776081057007445e+00
1.243455932135969499e-01 5.423213946664205309e+00
1.253861421102623330e-01 4.191302107014632128e+00
1.264266910069277161e-01 3.418790279614043470e+00
1.274672399035930992e-01 3.080847033499622967e+00
1.285077888002584823e-01 2.471327697735009821e+00
1.295483376969238654e-01 2.334027012317541505e+00
1.305888865935892484e-01 2.043689044655142339e+00
1.316294354902546315e-01 1.653875310628947659e+00
1.326699843869200146e-01 1.613665732077908643e+00
1.337105332835853977e-01 1.208740990225855683e+00
1.347510821802507808e-01 1.370788173171060720e+00
1.357916310769161639e-01 1.706012571909660380e+00
1.368321799735815469e-01 1.967700106451399478e+00
1.378727288702469300e-01 2.066689574866199308e+00
1.389132777669123131e-01 2.311701155162985799e+00
1.399538266635776962e-01 2.505169774653062120e+00
1.409943755602430793e-01 2.961828099286933025e+00
1.420349244569084624e-01 3.379624679343248062e+00
1.430754733535738454e-01 3.631384837777062558e+00
1.441160222502392285e-01 3.923173007603470097e+00
1.451565711469046116e-01 4.450137912187468459e+00
1.461971200435699947e-01 5.013898599302027748e+00
1.472376689402353778e-01 5.439773748233445616e+00
1.482782178369007609e-01 5.509251905424353168e+00
1.493187667335661439e-01 5.591528697665971492e+00
1.503593156302315270e-01 6.396193881483135613e+00
1.513998645268969101e-01 6.652771242665906470e+00
1.524404134235622932e-01 6.648169379063208595e+00
1.534809623202276763e-01 7.002716476438017423e+00
1.545215112168930593e-01 7.114339878995721733e+00
1.555620601135584424e-01 7.651473107260105877e+00
1.566026090102238255e-01 7.879710993656917850e+00
1.576431579068892086e-01 7.913905224637357350e+00
1.586837068035545917e-01 8.588964828211320679e+00
1.597242557002199748e-01 8.698414393398358868e+00
1.607648045968853578e-01 8.626400568270057079e+00
1.618053534935507409e-01 9.201686322093181047e+00
1.628459023902161240e-01 9.385040421420029588e+00
1.638864512868815071e-01 9.324488831729791372e+00
1.649270001835468902e-01 9.249370018925400672e+00
1.659675490802122733e-01 9.263414671401946521e+00
1.670080979768776563e-01 9.263373816703559527e+00
1.680486468735430672e-01 9.242929549365079822e+00
1.690891957702084503e-01 9.610537957908064755e+00
1.701297446668738333e-01 9.365546016061578882e+00
1.711702935635392164e-01 9.569304381543588534e+00
1.722108424602045995e-01 9.053652359458677523e+00
1.732513913568699826e-01 8.873125566167544775e+00
1.742919402535353657e-01 9.397442496767180131e+00
1.753324891502007488e-01 9.461306965261517377e+00
1.763730380468661318e-01 9.467341466427011909e+00
1.774135869435315149e-01 9.525468719789856209e+00
1.784541358401968980e-01 8.958907126940186316e+00
1.794946847368622811e-01 8.818288698674834336e+00
1.805352336335276642e-01 8.820788052973146165e+00
1.815757825301930473e-01 8.316966003953162101e+00
1.826163314268584303e-01 7.777829522009142238e+00
1.836568803235238134e-01 7.391370597849878266e+00
1.846974292201891965e-01 7.676350880449536618e+00
1.857379781168545796e-01 7.558833299884373247e+00
1.867785270135199627e-01 6.942610412513225526e+00
1.878190759101853458e-01 6.821464713441944383e+00
1.888596248068507288e-01 6.627010595711553265e+00
1.899001737035161119e-01 6.233432154515714529e+00
1.909407226001814950e-01 5.715486494898613046e+00
1.919812714968468781e-01 5.556533104032315151e+00
1.930218203935122612e-01 5.540959304729899060e+00
1.940623692901776443e-01 5.177299706592496165e+00
1.951029181868430273e-01 4.961991093584295243e+00
1.961434670835084104e-01 4.594145554904699225e+00
1.971840159801737935e-01 4.258310161421039908e+00
1.982245648768391766e-01 3.889929397363101060e+00
1.992651137735045597e-01 3.586879225917254388e+00
2.003056626701699428e-01 3.603224874574646464e+00
2.013462115668353813e-01 3.597930642613796692e+00
2.023867604635007644e-01 3.045370469886869103e+00
2.034273093601661475e-01 2.799517241835395964e+00
2.044678582568315306e-01 2.537989375248997703e+00
2.055084071534969137e-01 2.480230213342963452e+00
2.065489560501622968e-01 2.160852847726214776e+00
2.075895049468276798e-01 1.986984397518750001e+00
2.086300538434930629e-01 1.615387390221528108e+00
2.096706027401584460e-01 1.504909310723149929e+00
2.107111516368238291e-01 1.563757626416748536e+00
2.117517005334892122e-01 1.549256257110982915e+00
2.127922494301545953e-01 1.491055393864563428e+00
2.138327983268199783e-01 1.135608756421557786e+00
2.148733472234853614e-01 1.149690577563795557e+00
2.159138961201507445e-01 9.395097713847526677e-01
2.169544450168161276e-01 8.959008391652822922e-01
2.179949939134815107e-01 9.028548378661760410e-01
2.190355428101468938e-01 1.110511327667619952e+00
2.200760917068122768e-01 9.807251376492303052e-01
2.211166406034776599e-01 6.208959922297623280e-01
2.221571895001430430e-01 8.664160411304138165e-01
2.231977383968084261e-01 8.292409535510643082e-01
2.242382872934738092e-01 5.887739276935164412e-01
2.252788361901391923e-01 3.067153545193583852e-01
2.263193850868045753e-01 6.170956016126325494e-01
2.273599339834699584e-01 4.854283878776790573e-01
2.284004828801353415e-01 4.430112845171798597e-01
2.294410317768007246e-01 4.844040835168925696e-01
2.304815806734661077e-01 4.014719436959097720e-01
2.315221295701314908e-01 8.364383542810713834e-01
2.325626784667968738e-01 7.247047339806584887e-01
2.336032273634622569e-01 5.470426327621709106e-01
2.346437762601276400e-01 4.386311182507078854e-01
2.356843251567930231e-01 5.500541230397999470e-01
2.367248740534584062e-01 7.945146569450187712e-01
2.377654229501237892e-01 1.098790428953634546e+00
2.388059718467891723e-01 1.256216272803026612e+00
2.398465207434545554e-01 9.644235430238943252e-01
2.408870696401199385e-01 7.584159261450160727e-01
2.419276185367853216e-01 8.113467333981247975e-01
2.429681674334507047e-01 8.478522750070283109e-01
2.440087163301160877e-01 8.793205016027236809e-01
2.450492652267814708e-01 8.436433069902449233e-01
2.460898141234468539e-01 9.524794234472189203e-01
2.471303630201122370e-01 1.067653816509675835e+00
2.481709119167776201e-01 1.207495690929732746e+00
2.492114608134430032e-01 1.253020231323006328e+00
2.502520097101083585e-01 1.249088958832775376e+00
2.512925586067737416e-01 1.182319131558607239e+00
2.523331075034391247e-01 1.216318262467993350e+00
2.533736564001045077e-01 9.626855735713313322e-01
2.544142052967698908e-01 1.259111441973015388e+00
2.554547541934352739e-01 1.440053156638192888e+00
2.564953030901006570e-01 1.395277701737779097e+00
2.575358519867660401e-01 1.432212245640943848e+00
2.585764008834314231e-01 1.454289191695448125e+00
2.596169497800968062e-01 1.725293322940274265e+00
2.606574986767621893e-01 1.629213053603145056e+00
2.616980475734275724e-01 1.528633101949878892e+00
2.627385964700929555e-01 1.711196227042993456e+00
2.637791453667583386e-01 1.533469199783162651e+00
2.648196942634237216e-01 1.419439701794239284e+00
2.658602431600891047e-01 1.349586876971429206e+00
2.669007920567544878e-01 1.591561525393743182e+00
2.679413409534198709e-01 1.322550342733226358e+00
2.689818898500852540e-01 1.152116679820963441e+00
2.700224387467506371e-01 1.224651954208230364e+00
2.710629876434160201e-01 1.340825571704833408e+00
2.721035365400814032e-01 1.427409154419049031e+00
2.731440854367467863e-01 1.459368210387232523e+00
2.741846343334121694e-01 1.332990143088768065e+00
2.752251832300775525e-01 1.519402735722689357e+00
2.762657321267429356e-01 1.688788600790015693e+00
2.773062810234083186e-01 1.426024460546596373e+00
2.783468299200737017e-01 1.228352306581150799e+00
2.793873788167390848e-01 1.302700543877829631e+00
2.804279277134044679e-01 1.417190826424668870e+00
2.814684766100698510e-01 1.324266937702784475e+00
2.825090255067352341e-01 1.166651480556630815e+00
2.835495744034006171e-01 1.321180681965728354e+00
2.845901233000660002e-01 9.853761676354828580e-01
2.856306721967313833e-01 9.455556904717532518e-01
2.866712210933967664e-01 1.074194708651695862e+00
2.877117699900621495e-01 1.019578665618247726e+00
2.887523188867275326e-01 8.945341225262808393e-01
2.897928677833929156e-01 7.766425902519706881e-01
2.908334166800582987e-01 9.042564089907259017e-01
2.918739655767236818e-01 8.804883835773473777e-01
2.929145144733890649e-01 9.185317170271183329e-01
2.939550633700544480e-01 1.028021756491650507e+00
2.949956122667198311e-01 7.593130350384740268e-01
2.960361611633852141e-01 8.152628137440345313e-01
2.970767100600505972e-01 7.723523810666215184e-01
2.981172589567159803e-01 5.347794121177393833e-01
2.991578078533813634e-01 6.130625334020827211e-01
3.001983567500468020e-01 7.088849951050057996e-01
3.012389056467121851e-01 6.879618184598683683e-01
3.022794545433775681e-01 6.349672880690100385e-01
3.033200034400429512e-01 5.552898177539304925e-01
3.043605523367083343e-01 5.365031954128340885e-01
3.054011012333737174e-01 5.137926929098597384e-01
3.064416501300391005e-01 5.924987616331769402e-01
3.074821990267044836e-01 5.564097099863083429e-01
3.085227479233698666e-01 3.826136799376662623e-01
3.095632968200352497e-01 4.158910748662236756e-01
3.106038457167006328e-01 2.996745377032716817e-01
3.116443946133660159e-01 6.355561702694956239e-02
3.126849435100313990e-01 2.812180628104599123e-01
3.137254924066967821e-01 1.406627614993745112e-01
3.147660413033621651e-01 1.506367908236576625e-01
3.158065902000275482e-01 2.397913893730745372e-01
3.168471390966929313e-01 2.547895112660469863e-01
3.178876879933583144e-01 5.710403587588928076e-01
3.189282368900236975e-01 4.685895238743995606e-01
3.199687857866890806e-01 2.197769692936439867e-01
3.210093346833544636e-01 1.691536995380431563e-01
3.220498835800198467e-01 1.219330926515844737e-01
3.230904324766852298e-01 2.547631609375855533e-01
3.241309813733506129e-01 2.856193778750970580e-01
3.251715302700159960e-01 2.634145234560243409e-01
3.262120791666813790e-01 2.527620873820026759e-01
3.272526280633467621e-01 4.270319129198902885e-01
3.282931769600121452e-01 4.273083073428693979e-01
3.293337258566775283e-01 3.951311692665626651e-01
3.303742747533429114e-01 4.135398302196193754e-01
3.314148236500082945e-01 3.632240932600225847e-01
3.324553725466736775e-01 3.838925609022361130e-01
3.334959214433390606e-01 3.620337117870207067e-01
3.345364703400044437e-01 4.999518735145471737e-01
3.355770192366698268e-01 5.876424820649681635e-01
3.366175681333352099e-01 5.777177798625423577e-01
3.376581170300005930e-01 4.738643368320936133e-01
3.386986659266659760e-01 5.049019036997961507e-01
3.397392148233313591e-01 5.438487711197659280e-01
3.407797637199967422e-01 3.624194061537835410e-01
3.418203126166621253e-01 3.873720983148132291e-01
3.428608615133275084e-01 2.586922674268627986e-01
3.439014104099928915e-01 1.876877520956696799e-01
3.449419593066582745e-01 4.245021756109750299e-01
3.459825082033236576e-01 6.510851442895635444e-01
3.470230570999890407e-01 5.344964432178720415e-01
3.480636059966544238e-01 3.992768780760833636e-01
3.491041548933198069e-01 5.192976875292707462e-01
3.501447037899851900e-01 5.261770823583802326e-01
3.511852526866505730e-01 5.767921071682202694e-01
3.522258015833159561e-01 4.945579658326906269e-01
3.532663504799813392e-01 5.646763445880651489e-01
3.543068993766467223e-01 6.166651561793692338e-01
3.553474482733121054e-01 4.230573453479564705e-01
3.563879971699774885e-01 4.334796955493374071e-01
3.574285460666428715e-01 7.501302353853951388e-01
3.584690949633082546e-01 6.192021434056904639e-01
3.595096438599736377e-01 2.972661739139574877e-01
3.605501927566390208e-01 3.676773331175731130e-01
3.615907416533044039e-01 4.794983602507016940e-01
3.626312905499697870e-01 6.131289273265991824e-01
3.636718394466351700e-01 4.216923090551709663e-01
3.647123883433005531e-01 3.888015050372573000e-01
3.657529372399659362e-01 5.527875909761874595e-01
3.667934861366313193e-01 6.674508871568782808e-01
3.678340350332967024e-01 6.390606063586048435e-01
3.688745839299620854e-01 3.492791832936639196e-01
3.699151328266274685e-01 2.164402871497372871e-01
3.709556817232928516e-01 3.192679550531991595e-01
3.719962306199582347e-01 4.500795802567552073e-01
3.730367795166236178e-01 3.964859648901217781e-01
3.740773284132890009e-01 2.495658578641801739e-01
3.751178773099543839e-01 3.391150030103453616e-01
3.761584262066197670e-01 4.100642312570386139e-01
3.771989751032851501e-01 5.302338486678372931e-01
3.782395239999505332e-01 4.041282675722186468e-01
3.792800728966159163e-01 3.072884927272347966e-01
3.803206217932812994e-01 3.666697701198913251e-01
3.813611706899466824e-01 2.987831566144691919e-01
3.824017195866120655e-01 3.431363963891946867e-01
3.834422684832774486e-01 4.828244774648098314e-01
3.844828173799428317e-01 5.430381343935444249e-01
3.855233662766082148e-01 4.855570772006139180e-01
3.865639151732735979e-01 5.579552867595296561e-01
3.876044640699389809e-01 3.627659370263636163e-01
3.886450129666043640e-01 3.344318161463561978e-01
3.896855618632697471e-01 3.918873036915151431e-01
3.907261107599351302e-01 2.928485981356594436e-01
3.917666596566005133e-01 3.448590106948721257e-01
3.928072085532658964e-01 2.820689949366368410e-01
3.938477574499312794e-01 1.773468670441396000e-01
3.948883063465966625e-01 2.985932312912318309e-01
3.959288552432620456e-01 2.145728936934894193e-01
3.969694041399274287e-01 2.054958245730205135e-01
3.980099530365928118e-01 2.908518917710303242e-01
3.990505019332581949e-01 2.383252367719634890e-01
4.000910508299235779e-01 1.392519543631891565e-01
4.011315997265889610e-01 1.333205043422758251e-01
4.021721486232543441e-01 1.316516473120366015e-01
4.032126975199197272e-01 1.534838883448550462e-01
4.042532464165851103e-01 1.416901741731315667e-01
4.052937953132504934e-01 1.384802918641092617e-01
4.063343442099158764e-01 0.000000000000000000e+00
4.073748931065812595e-01 1.554699897266189623e-01
4.084154420032466426e-01 3.073029387160097770e-01
4.094559908999120257e-01 3.109998937029736510e-01
4.104965397965774088e-01 3.610628395898061171e-01
4.115370886932427918e-01 1.919238440814048374e-01
4.125776375899081749e-01 2.717865273911002078e-01
4.136181864865735580e-01 2.118208412775075544e-01
4.146587353832389411e-01 4.929595156653689969e-01
4.156992842799043242e-01 3.929759637452150400e-01
4.167398331765697073e-01 3.588361547620664282e-01
4.177803820732350903e-01 3.149355065567824852e-01
4.188209309699004734e-01 3.881798929322570757e-01
4.198614798665658565e-01 3.789036291831955339e-01
4.209020287632312396e-01 3.018091479078393036e-01
4.219425776598966227e-01 2.752503341008889493e-01
4.229831265565620058e-01 3.751811156011406467e-01
4.240236754532273888e-01 3.077804963313504061e-01
4.250642243498927719e-01 3.017334247362413180e-01
4.261047732465581550e-01 5.220565856818879524e-01
4.271453221432235381e-01 3.536961461170768928e-01
4.281858710398889212e-01 2.110692976429646706e-01
4.292264199365543043e-01 4.267282089418209523e-01
4.302669688332196873e-01 4.313884461230657053e-01
4.313075177298850704e-01 3.264824988224894753e-01
4.323480666265504535e-01 1.882044101913393774e-01
4.333886155232158366e-01 5.453517131893121928e-01
4.344291644198812197e-01 4.027455819389054170e-01
