# q (1/Angstrom), Intensity (arb)
2.029070354705860696e-02 1.190544687978322372e+03
2.133125244372399004e-02 1.182725802699280166e+03
2.237180134038937659e-02 1.179746382709144882e+03
2.341235023705475968e-02 1.169891852344145263e+03
2.445289913372014276e-02 1.156540880078693817e+03
2.549344803038552584e-02 1.142823671957572515e+03
2.653399692705091240e-02 1.130927423710299081e+03
2.757454582371629548e-02 1.118754475249135567e+03
2.861509472038167856e-02 1.102795300460772069e+03
2.965564361704706164e-02 1.089155832556805990e+03
3.069619251371244473e-02 1.074602505034064961e+03
3.173674141037782781e-02 1.061403323640565986e+03
3.277729030704321089e-02 1.049314946258904456e+03
3.381783920370859398e-02 1.033675130394533198e+03
3.485838810037397706e-02 1.015421969930463547e+03
3.589893699703936014e-02 1.000727445353361190e+03
3.693948589370474322e-02 9.852997728012360312e+02
3.798003479037012631e-02 9.666926354750312385e+02
3.902058368703550939e-02 9.499504347567444711e+02
4.006113258370089247e-02 9.271926109086099359e+02
4.110168148036627556e-02 9.123719329637731335e+02
4.214223037703165864e-02 8.939344455945865775e+02
4.318277927369704866e-02 8.743485239631060040e+02
4.422332817036243174e-02 8.515115411290515794e+02
4.526387706702781483e-02 8.314297686343660416e+02
4.630442596369319791e-02 8.117615777563207757e+02
4.734497486035858099e-02 7.945430790108049450e+02
4.838552375702396408e-02 7.781821140192953408e+02
4.942607265368934716e-02 7.573417661654003723e+02
5.046662155035473024e-02 7.380324485041942353e+02
5.150717044702011332e-02 7.186014966459051720e+02
5.254771934368549641e-02 6.981516881469184455e+02
5.358826824035087949e-02 6.798114842539968095e+02
5.462881713701626257e-02 6.609369511037700704e+02
5.566936603368164566e-02 6.412306448719949685e+02
5.670991493034702874e-02 6.220331605948874767e+02
5.775046382701241182e-02 6.035908078051445500e+02
5.879101272367779490e-02 5.848558816593615575e+02
5.983156162034317799e-02 5.663632767089256959e+02
6.087211051700856107e-02 5.478747968158323829e+02
6.191265941367394415e-02 5.306834316843340957e+02
6.295320831033933417e-02 5.141515274945380725e+02
6.399375720700471726e-02 4.942413561841123055e+02
6.503430610367010034e-02 4.774313813084149842e+02
6.607485500033548342e-02 4.602713339241812491e+02
6.711540389700086651e-02 4.429312600485565099e+02
6.815595279366624959e-02 4.255498282461145436e+02
6.919650169033163267e-02 4.096688643760687683e+02
7.023705058699701576e-02 3.910383584739893763e+02
7.127759948366239884e-02 3.740917321970409830e+02
7.231814838032778192e-02 3.593559642837788601e+02
7.335869727699316500e-02 3.444515651621400139e+02
7.439924617365854809e-02 3.302269563389371569e+02
7.543979507032393117e-02 3.163164047240046557e+02
7.648034396698931425e-02 3.015000794428411837e+02
7.752089286365469734e-02 2.875178584598235716e+02
7.856144176032008042e-02 2.738382853101423962e+02
7.960199065698546350e-02 2.609295249268258772e+02
8.064253955365084658e-02 2.477898889154519964e+02
8.168308845031622967e-02 2.343024946366759877e+02
8.272363734698161275e-02 2.229489628691986809e+02
8.376418624364699583e-02 2.118490779538677771e+02
8.480473514031239279e-02 2.013767609716770153e+02
8.584528403697777588e-02 1.902261105559532837e+02
8.688583293364315896e-02 1.798268393092641304e+02
8.792638183030854204e-02 1.692384351842230785e+02
8.896693072697392513e-02 1.589915295542986939e+02
9.000747962363930821e-02 1.502248023103460355e+02
9.104802852030469129e-02 1.417300377546105778e+02
9.208857741697007437e-02 1.324056891676300154e+02
9.312912631363545746e-02 1.231864433648639192e+02
9.416967521030084054e-02 1.161852327105225129e+02
9.521022410696622362e-02 1.086702592787881940e+02
9.625077300363160671e-02 1.017182157452085818e+02
9.729132190029698979e-02 9.449657107281107926e+01
9.833187079696237287e-02 8.617522176075229368e+01
9.937241969362775595e-02 7.889705558730902624e+01
1.004129685902931390e-01 7.322652634248817094e+01
1.014535174869585221e-01 6.797493645922479288e+01
1.024940663836239052e-01 6.278599446084052715e+01
1.035346152802892883e-01 5.708099730765869140e+01
1.045751641769546714e-01 5.202653370004521349e+01
1.056157130736200545e-01 4.749860806763485499e+01
1.066562619702854375e-01 4.328020600844659072e+01
1.076968108669508206e-01 3.938193113587235672e+01
1.087373597636162037e-01 3.625363895262194802e+01
1.097779086602815868e-01 3.213721556787883316e+01
1.108184575569469699e-01 2.869686117702452322e+01
1.118590064536123529e-01 2.603638804182254063e+01
1.128995553502777360e-01 2.278797882043648571e+01
1.139401042469431191e-01 1.995877727358075759e+01
1.149806531436085022e-01 1.779146104559083597e+01
1.160212020402738853e-01 1.557236972299774891e+01
1.170617509369392684e-01 1.368629520616621420e+01
1.181022998336046514e-01 1.219163336334359471e+01
1.191428487302700345e-01 9.877504088384945646e+00
1.201833976269354176e-01 8.241994625961599041e+00
1.212239465236008007e-01 7.180077731558881737e+00
1.222644954202661838e-01 6.333141029305753733e+00
1.233050443169315669e-01 4.993565259164547854e+00
1.243455932135969499e-01 4.229293943711368797e+00
1.253861421102623330e-01 4.297152935452590583e+00
1.264266910069277161e-01 3.587825211763728817e+00
1.274672399035930992e-01 2.582866232777501381e+00
1.285077888002584823e-01 2.037391777135685089e+00
1.295483376969238654e-01 1.621961730098906429e+00
1.305888865935892484e-01 8.647211285594842423e-01
1.316294354902546315e-01 1.180768413621574808e+00
1.326699843869200146e-01 1.255313862185726492e+00
1.337105332835853977e-01 1.145028126353000886e+00
1.347510821802507808e-01 1.467105536495925122e+00
1.357916310769161639e-01 1.591796684767466274e+00
1.368321799735815469e-01 1.450283440502385446e+00
1.378727288702469300e-01 1.504518968053254468e+00
1.389132777669123131e-01 1.655008454126814854e+00
1.399538266635776962e-01 2.137020861033821717e+00
1.409943755602430793e-01 2.644720985224761733e+00
1.420349244569084624e-01 2.970817209893461097e+00
1.430754733535738454e-01 3.231866012404150723e+00
1.441160222502392285e-01 3.988470188075663003e+00
1.451565711469046116e-01 4.170972968764502298e+00
1.461971200435699947e-01 4.289461251022718358e+00
1.472376689402353778e-01 4.555983351075862942e+00
1.482782178369007609e-01 5.079815750016482667e+00
1.493187667335661439e-01 5.432282819972918730e+00
1.503593156302315270e-01 5.742568377116541001e+00
1.513998645268969101e-01 6.160615473771045458e+00
1.524404134235622932e-01 6.240452962314783747e+00
1.534809623202276763e-01 5.783973682258519489e+00
1.545215112168930593e-01 6.785539459511198856e+00
1.555620601135584424e-01 7.369466790056769412e+00
1.566026090102238255e-01 7.454736715339304709e+00
1.576431579068892086e-01 7.739590566125009730e+00
1.586837068035545917e-01 8.359595564774036092e+00
1.597242557002199748e-01 8.635187296577694127e+00
1.607648045968853578e-01 8.642727370155665056e+00
1.618053534935507409e-01 8.645358704842820430e+00
1.628459023902161240e-01 8.616778930903397082e+00
1.638864512868815071e-01 8.852291588872343908e+00
1.649270001835468902e-01 9.134422611112402279e+00
1.659675490802122733e-01 9.256070633571859219e+00
1.670080979768776563e-01 9.270431550856439884e+00
1.680486468735430672e-01 9.140856689087058840e+00
1.690891957702084503e-01 9.207370704213843737e+00
1.701297446668738333e-01 9.563899053980140508e+00
1.711702935635392164e-01 9.566074541168475776e+00
1.722108424602045995e-01 9.160477358897058053e+00
1.732513913568699826e-01 8.977128928332458457e+00
1.742919402535353657e-01 9.240028824280877018e+00
1.753324891502007488e-01 9.295883816404508337e+00
1.763730380468661318e-01 8.948811878875364556e+00
1.774135869435315149e-01 8.645332834206989503e+00
1.784541358401968980e-01 8.607742766917198196e+00
1.794946847368622811e-01 8.203288602348770553e+00
1.805352336335276642e-01 7.853716179651172524e+00
1.815757825301930473e-01 7.887463900368505421e+00
1.826163314268584303e-01 7.146866151009376722e+00
1.836568803235238134e-01 7.029769821682513964e+00
1.846974292201891965e-01 7.312184122833357947e+00
1.857379781168545796e-01 7.008950228460754772e+00
1.867785270135199627e-01 6.752908452213759460e+00
1.878190759101853458e-01 6.326996278241409755e+00
1.888596248068507288e-01 5.955226696575223855e+00
1.899001737035161119e-01 6.081778899479139966e+00
1.909407226001814950e-01 5.705529233404053713e+00
1.919812714968468781e-01 5.438680334737380662e+00
1.930218203935122612e-01 5.053300968013903827e+00
1.940623692901776443e-01 4.900174994309626442e+00
1.951029181868430273e-01 4.775267037635337886e+00
1.961434670835084104e-01 4.390301446648418704e+00
1.971840159801737935e-01 4.029103296529168432e+00
1.982245648768391766e-01 3.974187021096899031e+00
1.992651137735045597e-01 3.369327347065151912e+00
2.003056626701699428e-01 3.228636788733449947e+00
2.013462115668353813e-01 2.978570946545552545e+00
2.023867604635007644e-01 2.782701687503781329e+00
2.034273093601661475e-01 2.850530193788301858e+00
2.044678582568315306e-01 2.809659777034678285e+00
2.055084071534969137e-01 2.546833475783856215e+00
2.065489560501622968e-01 2.116366711888272079e+00
2.075895049468276798e-01 2.306454436585074319e+00
2.086300538434930629e-01 1.734778877058268165e+00
2.096706027401584460e-01 1.267713503944005282e+00
2.107111516368238291e-01 1.475049724464870593e+00
2.117517005334892122e-01 1.253978376590833221e+00
2.127922494301545953e-01 1.181985969031739359e+00
2.138327983268199783e-01 9.000918008684983818e-01
2.148733472234853614e-01 6.342516173204622021e-01
2.159138961201507445e-01 7.724676323076558049e-01
2.169544450168161276e-01 6.933975268870149478e-01
2.179949939134815107e-01 6.857395495645519645e-01
2.190355428101468938e-01 6.580598916668769505e-01
2.200760917068122768e-01 5.773805433996379577e-01
2.211166406034776599e-01 5.882627768682979763e-01
2.221571895001430430e-01 4.423460908876712949e-01
2.231977383968084261e-01 4.194464014874235147e-01
2.242382872934738092e-01 3.300280276013047853e-01
2.252788361901391923e-01 2.987945876928250755e-01
2.263193850868045753e-01 6.686663672007746584e-01
2.273599339834699584e-01 5.073314695791424356e-01
2.284004828801353415e-01 3.898998214071873747e-01
2.294410317768007246e-01 2.815488906239771438e-01
2.304815806734661077e-01 3.965121119868442179e-01
2.315221295701314908e-01 2.742677485408471227e-01
2.325626784667968738e-01 5.418922908537382455e-01
2.336032273634622569e-01 6.040005469919016434e-01
2.346437762601276400e-01 2.732145726854504630e-01
2.356843251567930231e-01 3.896975181728521420e-01
2.367248740534584062e-01 5.190643316212018021e-01
2.377654229501237892e-01 4.266760560815399117e-01
2.388059718467891723e-01 4.956237475332478937e-01
2.398465207434545554e-01 5.403589154298877872e-01
2.408870696401199385e-01 5.437243430113696263e-01
2.419276185367853216e-01 6.699090001666334615e-01
2.429681674334507047e-01 5.726860357863330364e-01
2.440087163301160877e-01 5.135617671249299576e-01
2.450492652267814708e-01 9.124609186988195120e-01
2.460898141234468539e-01 6.907880287170087286e-01
2.471303630201122370e-01 8.037676593984457440e-01
2.481709119167776201e-01 9.194867928935259727e-01
2.492114608134430032e-01 8.921408312876373259e-01
2.502520097101083585e-01 9.497394802414937942e-01
2.512925586067737416e-01 8.210422948161308909e-01
2.523331075034391247e-01 9.524411825907215245e-01
2.533736564001045077e-01 1.002522021491063953e+00
2.544142052967698908e-01 1.201492946321184974e+00
2.554547541934352739e-01 1.338451601599480512e+00
2.564953030901006570e-01 1.010220906690577181e+00
2.575358519867660401e-01 1.125988044106073005e+00
2.585764008834314231e-01 1.401039993351595569e+00
2.596169497800968062e-01 1.248198913822442080e+00
2.606574986767621893e-01 1.209668012949052240e+00
2.616980475734275724e-01 1.433073549257638746e+00
2.627385964700929555e-01 1.552064744425656784e+00
2.637791453667583386e-01 1.487918637407481981e+00
2.648196942634237216e-01 1.458128756326402709e+00
2.658602431600891047e-01 1.536364243286417519e+00
2.669007920567544878e-01 1.560851950394432919e+00
2.679413409534198709e-01 1.283501780908686385e+00
2.689818898500852540e-01 1.239847833880556749e+00
2.700224387467506371e-01 1.293380674059886104e+00
2.710629876434160201e-01 1.358101200139387288e+00
2.721035365400814032e-01 1.248138672464961019e+00
2.731440854367467863e-01 1.335372387114070136e+00
2.741846343334121694e-01 1.374616152112313472e+00
2.752251832300775525e-01 1.342308345032535044e+00
2.762657321267429356e-01 1.157685533897094388e+00
2.773062810234083186e-01 1.257948817899794847e+00
2.783468299200737017e-01 1.379151318181801145e+00
2.793873788167390848e-01 1.421080502484368679e+00
2.804279277134044679e-01 1.185377600867479231e+00
2.814684766100698510e-01 1.187462925832225125e+00
2.825090255067352341e-01 1.359609534592507885e+00
2.835495744034006171e-01 1.303510276343391894e+00
2.845901233000660002e-01 1.101597160453657409e+00
2.856306721967313833e-01 8.119378232856391264e-01
2.866712210933967664e-01 6.439332722714468105e-01
2.877117699900621495e-01 7.398857319251135323e-01
2.887523188867275326e-01 6.618902323029125512e-01
2.897928677833929156e-01 5.809143531366167679e-01
2.908334166800582987e-01 4.983632322418820593e-01
2.918739655767236818e-01 5.615644152064653838e-01
2.929145144733890649e-01 3.914023829925383779e-01
2.939550633700544480e-01 2.532089477600543148e-01
2.949956122667198311e-01 5.085791898263067878e-01
2.960361611633852141e-01 6.309770512690704436e-01
2.970767100600505972e-01 5.365693275691043596e-01
2.981172589567159803e-01 6.718946575995587978e-01
2.991578078533813634e-01 6.506791539783094436e-01
3.001983567500468020e-01 4.354724581003424078e-01
3.012389056467121851e-01 6.443688586196607559e-01
3.022794545433775681e-01 7.320674185971292047e-01
3.033200034400429512e-01 6.569478134037431971e-01
3.043605523367083343e-01 4.535609799860864655e-01
3.054011012333737174e-01 3.990016708895787190e-01
3.064416501300391005e-01 4.654669522525765046e-01
3.074821990267044836e-01 6.210673167312883436e-01
3.085227479233698666e-01 1.234909267924955145e-01
3.095632968200352497e-01 0.000000000000000000e+00
3.106038457167006328e-01 6.051571105564690356e-02
3.116443946133660159e-01 5.520585153581336613e-02
3.126849435100313990e-01 1.422607768717121246e-01
3.137254924066967821e-01 1.718726277664579527e-01
3.147660413033621651e-01 1.875014596867394800e-01
3.158065902000275482e-01 3.216297719239946673e-01
3.168471390966929313e-01 3.413001126717212230e-01
3.178876879933583144e-01 4.398300275986279928e-01
3.189282368900236975e-01 2.733064200813579703e-01
3.199687857866890806e-01 2.924592810370683083e-01
3.210093346833544636e-01 1.698878796969438554e-01
3.220498835800198467e-01 1.719355174096257599e-01
3.230904324766852298e-01 6.241405600713036961e-01
3.241309813733506129e-01 4.953952138731310129e-01
3.251715302700159960e-01 2.162156737991693944e-01
3.262120791666813790e-01 3.360231028702500566e-01
3.272526280633467621e-01 2.258188335891837539e-01
3.282931769600121452e-01 7.492280055652855708e-02
3.293337258566775283e-01 3.742368319055735526e-01
3.303742747533429114e-01 4.109846521043678536e-01
3.314148236500082945e-01 1.658349577618167814e-01
3.324553725466736775e-01 2.087996810802899006e-01
3.334959214433390606e-01 6.155413624699690445e-02
3.345364703400044437e-01 1.445889732786369564e-01
3.355770192366698268e-01 4.373565134752048778e-01
3.366175681333352099e-01 4.294308594737010765e-01
3.376581170300005930e-01 3.038065848429631899e-01
3.386986659266659760e-01 1.896990183039122257e-01
3.397392148233313591e-01 1.969610764024700700e-01
3.407797637199967422e-01 2.893262028851104617e-01
3.418203126166621253e-01 4.361418195722812641e-01
3.428608615133275084e-01 5.732526352687976612e-01
3.439014104099928915e-01 6.325200186643691325e-01
3.449419593066582745e-01 4.890347293891288416e-01
3.459825082033236576e-01 4.382240248826860807e-01
3.470230570999890407e-01 4.782561066673949313e-01
3.480636059966544238e-01 6.151335747250890051e-01
3.491041548933198069e-01 4.052050286851098804e-01
3.501447037899851900e-01 4.184514694889607256e-01
3.511852526866505730e-01 4.331816900833267425e-01
3.522258015833159561e-01 4.186316343154601327e-01
3.532663504799813392e-01 4.658587529031485985e-01
3.543068993766467223e-01 6.948829113641785682e-01
3.553474482733121054e-01 5.943687336537308852e-01
3.563879971699774885e-01 5.834833534611441053e-01
3.574285460666428715e-01 5.848415879111001914e-01
3.584690949633082546e-01 5.535559617820062783e-01
3.595096438599736377e-01 3.643200691532797464e-01
3.605501927566390208e-01 5.065281594530617326e-01
3.615907416533044039e-01 7.419644318562745866e-01
3.626312905499697870e-01 4.318043667960331788e-01
3.636718394466351700e-01 3.474359187985918140e-01
3.647123883433005531e-01 3.599533315628065111e-01
3.657529372399659362e-01 2.970391466829234162e-01
3.667934861366313193e-01 3.431728478948130601e-01
3.678340350332967024e-01 5.884125598377707433e-01
3.688745839299620854e-01 6.259058454203518806e-01
3.699151328266274685e-01 7.450563947845374457e-01
3.709556817232928516e-01 7.041712952403607062e-01
3.719962306199582347e-01 6.978437334830722705e-01
3.730367795166236178e-01 6.138961326928757956e-01
3.740773284132890009e-01 2.376037197324869510e-01
3.751178773099543839e-01 3.406543560137755833e-01
3.761584262066197670e-01 3.915213663193561899e-01
3.771989751032851501e-01 3.399290951159485985e-01
3.782395239999505332e-01 3.743208039480023785e-01
3.792800728966159163e-01 1.821864665165584540e-01
3.803206217932812994e-01 2.311128804365019107e-01
3.813611706899466824e-01 3.453676281292601402e-01
3.824017195866120655e-01 3.377548925310733807e-01
3.834422684832774486e-01 2.507875197061046890e-01
3.844828173799428317e-01 1.619438143628855187e-01
3.855233662766082148e-01 3.889382105350165375e-01
3.865639151732735979e-01 3.803392411571877574e-01
3.876044640699389809e-01 3.846844353922982407e-01
3.886450129666043640e-01 3.610762563335399022e-01
3.896855618632697471e-01 4.524534130539556998e-01
3.907261107599351302e-01 3.341389141729997903e-01
3.917666596566005133e-01 2.043316671934540807e-01
3.928072085532658964e-01 3.669537042993553655e-01
3.938477574499312794e-01 4.130278204236965678e-01
3.948883063465966625e-01 2.768444603560240580e-01
3.959288552432620456e-01 7.758653528352610351e-02
3.969694041399274287e-01 2.294107442542738795e-01
3.980099530365928118e-01 1.247719274379264220e-01
3.990505019332581949e-01 1.294992833064441129e-01
4.000910508299235779e-01 3.442965726070426058e-01
4.011315997265889610e-01 4.214527713286777555e-01
4.021721486232543441e-01 2.393374835218686769e-01
4.032126975199197272e-01 3.363278631065682589e-01
4.042532464165851103e-01 2.697392992949794177e-01
4.052937953132504934e-01 3.344478259691108235e-01
4.063343442099158764e-01 5.202890724705291348e-01
4.073748931065812595e-01 3.077804169538644885e-01
4.084154420032466426e-01 1.716797914280121518e-01
4.094559908999120257e-01 3.504795301921355133e-01
4.104965397965774088e-01 3.688370234060229791e-01
4.115370886932427918e-01 3.994531131182696981e-01
4.125776375899081749e-01 3.347497010387385785e-01
4.136181864865735580e-01 1.857517926944183273e-01
4.146587353832389411e-01 3.021282348310592170e-01
4.156992842799043242e-01 4.378070870551233895e-01
4.167398331765697073e-01 2.245690753357294511e-01
4.177803820732350903e-01 1.576055887415179768e-01
4.188209309699004734e-01 2.015885350221466865e-01
4.198614798665658565e-01 3.873921535732165466e-01
4.209020287632312396e-01 3.935730006917914636e-01
4.219425776598966227e-01 2.533683928749788095e-01
4.229831265565620058e-01 1.682121528177837888e-01
4.240236754532273888e-01 1.173662046818044757e-01
4.250642243498927719e-01 2.448175995638344205e-01
4.261047732465581550e-01 3.048513855095471570e-01
4.271453221432235381e-01 2.248715902744606865e-01
4.281858710398889212e-01 2.724577715328564409e-01
4.292264199365543043e-01 3.045545729807059843e-01
4.302669688332196873e-01 3.717303592310585714e-01
4.313075177298850704e-01 4.825341729015271142e-01
4.323480666265504535e-01 2.433163971739595866e-01
4.333886155232158366e-01 3.042874157935386847e-01
4.344291644198812197e-01 4.115502457636281974e-01
