# q (1/Angstrom), Intensity (arb)
2.029070354705860696e-02 1.197021249206016591e+03
2.133125244372399004e-02 1.186021951478124947e+03
2.237180134038937659e-02 1.174157248320967255e+03
2.341235023705475968e-02 1.160560315370450553e+03
2.445289913372014276e-02 1.153465728572045919e+03
2.549344803038552584e-02 1.150160156109436002e+03
2.653399692705091240e-02 1.136794246107456956e+03
2.757454582371629548e-02 1.124763629916457376e+03
2.861509472038167856e-02 1.113803652267709140e+03
2.965564361704706164e-02 1.104195258341341059e+03
3.069619251371244473e-02 1.089086282187373627e+03
3.173674141037782781e-02 1.067417393032563268e+03
3.277729030704321089e-02 1.049020887981024316e+03
3.381783920370859398e-02 1.035552327261698110e+03
3.485838810037397706e-02 1.021123415722363120e+03
3.589893699703936014e-02 1.004241630876469344e+03
3.693948589370474322e-02 9.883667832368716972e+02
3.798003479037012631e-02 9.660243267575382333e+02
3.902058368703550939e-02 9.508694095553320267e+02
4.006113258370089247e-02 9.332856980144948693e+02
4.110168148036627556e-02 9.136616454804719751e+02
4.214223037703165864e-02 8.963964910958077326e+02
4.318277927369704866e-02 8.752010361468467181e+02
4.422332817036243174e-02 8.541813867532810036e+02
4.526387706702781483e-02 8.363179000756414325e+02
4.630442596369319791e-02 8.194185082019597530e+02
4.734497486035858099e-02 8.003503730402967449e+02
4.838552375702396408e-02 7.824880853045907543e+02
4.942607265368934716e-02 7.645570115115414183e+02
5.046662155035473024e-02 7.449678473881131140e+02
5.150717044702011332e-02 7.255746491656808530e+02
5.254771934368549641e-02 7.052164091044160159e+02
5.358826824035087949e-02 6.858573570829084929e+02
5.462881713701626257e-02 6.660646259211121105e+02
5.566936603368164566e-02 6.473156632931272725e+02
5.670991493034702874e-02 6.295505508357574627e+02
5.775046382701241182e-02 6.117085931543523429e+02
5.879101272367779490e-02 5.918402985232949050e+02
5.983156162034317799e-02 5.735058775356848173e+02
6.087211051700856107e-02 5.551693684503751456e+02
6.191265941367394415e-02 5.382003610071017192e+02
6.295320831033933417e-02 5.205260452853286779e+02
6.399375720700471726e-02 5.022417316312224216e+02
6.503430610367010034e-02 4.837087755082372951e+02
6.607485500033548342e-02 4.656169377308304433e+02
6.711540389700086651e-02 4.488907665311694473e+02
6.815595279366624959e-02 4.333251777447581503e+02
6.919650169033163267e-02 4.170994050156580784e+02
7.023705058699701576e-02 3.995617934876393633e+02
7.127759948366239884e-02 3.847469442076744599e+02
7.231814838032778192e-02 3.698446189415828371e+02
7.335869727699316500e-02 3.530293656780124820e+02
7.439924617365854809e-02 3.375319125040220456e+02
7.543979507032393117e-02 3.246547910019378378e+02
7.648034396698931425e-02 3.121562797546887396e+02
7.752089286365469734e-02 2.999254766580527303e+02
7.856144176032008042e-02 2.873679042858279331e+02
7.960199065698546350e-02 2.768168941395185811e+02
8.064253955365084658e-02 2.768757000486302218e+02
8.168308845031622967e-02 2.830606649666657972e+02
8.272363734698161275e-02 2.693076113098157407e+02
8.376418624364699583e-02 2.434486840175550242e+02
8.480473514031239279e-02 2.296994791256033750e+02
8.584528403697777588e-02 2.333106037313788761e+02
8.688583293364315896e-02 2.373506887880125475e+02
8.792638183030854204e-02 2.157423208939142114e+02
8.896693072697392513e-02 1.928972193527398531e+02
9.000747962363930821e-02 1.865796430546468230e+02
9.104802852030469129e-02 1.913078165028672686e+02
9.208857741697007437e-02 2.044753781460903213e+02
9.312912631363545746e-02 1.948254328269019027e+02
9.416967521030084054e-02 1.594341625247192553e+02
9.521022410696622362e-02 1.311455310561994736e+02
9.625077300363160671e-02 1.153966876992187167e+02
9.729132190029698979e-02 1.037632807898890377e+02
9.833187079696237287e-02 9.495483852308858275e+01
9.937241969362775595e-02 8.699847054814861735e+01
1.004129685902931390e-01 7.974458624989743782e+01
1.014535174869585221e-01 7.303092387579015110e+01
1.024940663836239052e-01 6.656948977486045749e+01
1.035346152802892883e-01 6.050241405739036793e+01
1.045751641769546714e-01 5.585594364732433803e+01
1.056157130736200545e-01 5.154696942116693492e+01
1.066562619702854375e-01 4.696413503612419049e+01
1.076968108669508206e-01 4.294633934884535620e+01
1.087373597636162037e-01 3.910517717054437981e+01
1.097779086602815868e-01 3.476591323334310601e+01
1.108184575569469699e-01 3.116428543976113730e+01
1.118590064536123529e-01 2.819139260107173683e+01
1.128995553502777360e-01 2.525603084499154960e+01
1.139401042469431191e-01 2.268696541813257284e+01
1.149806531436085022e-01 2.050354324547922502e+01
1.160212020402738853e-01 1.766111348107720147e+01
1.170617509369392684e-01 1.573921202637339078e+01
1.181022998336046514e-01 1.414072265771864068e+01
1.191428487302700345e-01 1.257438540867238430e+01
1.201833976269354176e-01 1.101970742121820024e+01
1.212239465236008007e-01 9.370383075455336552e+00
1.222644954202661838e-01 7.916460076980275318e+00
1.233050443169315669e-01 6.770210714761244475e+00
1.243455932135969499e-01 5.389304366815650837e+00
1.253861421102623330e-01 4.630790539249527882e+00
1.264266910069277161e-01 4.175703250028263369e+00
1.274672399035930992e-01 3.703130334676625779e+00
1.285077888002584823e-01 2.838885376969471963e+00
1.295483376969238654e-01 2.227078371812645230e+00
1.305888865935892484e-01 2.352516638664795323e+00
1.316294354902546315e-01 2.179221842253650010e+00
1.326699843869200146e-01 1.995478496248392020e+00
1.337105332835853977e-01 1.834656471715820913e+00
1.347510821802507808e-01 1.903002280031426352e+00
1.357916310769161639e-01 1.932742339191701575e+00
1.368321799735815469e-01 1.750615768541486261e+00
1.378727288702469300e-01 2.165829458491980830e+00
1.389132777669123131e-01 2.428249906084914755e+00
1.399538266635776962e-01 2.661097353854579239e+00
1.409943755602430793e-01 3.426808975709580096e+00
1.420349244569084624e-01 3.753438201535189478e+00
1.430754733535738454e-01 4.238977416986827507e+00
1.441160222502392285e-01 4.484376761890402463e+00
1.451565711469046116e-01 4.469161888849800590e+00
1.461971200435699947e-01 4.702674144420146973e+00
1.472376689402353778e-01 5.281063706757741727e+00
1.482782178369007609e-01 5.620788359585215943e+00
1.493187667335661439e-01 5.732858629175677123e+00
1.503593156302315270e-01 6.392304448270142103e+00
1.513998645268969101e-01 7.111395767228472664e+00
1.524404134235622932e-01 7.558052493374326275e+00
1.534809623202276763e-01 8.285646040851887051e+00
1.545215112168930593e-01 8.600190860600189779e+00
1.555620601135584424e-01 8.436647918873092067e+00
1.566026090102238255e-01 8.556893418314221123e+00
1.576431579068892086e-01 8.625920780021473888e+00
1.586837068035545917e-01 8.642183093101600377e+00
1.597242557002199748e-01 8.760902688570247676e+00
1.607648045968853578e-01 9.151333980146258540e+00
1.618053534935507409e-01 9.531698300622437614e+00
1.628459023902161240e-01 1.024972049370114036e+01
1.638864512868815071e-01 1.028485076744940230e+01
1.649270001835468902e-01 1.097236232754759655e+01
1.659675490802122733e-01 1.253211805700292558e+01
1.670080979768776563e-01 1.288533702609463205e+01
1.680486468735430672e-01 1.247869297648971099e+01
1.690891957702084503e-01 1.262139202005105787e+01
1.701297446668738333e-01 1.175035330632913499e+01
1.711702935635392164e-01 1.076332750121182258e+01
1.722108424602045995e-01 1.027633402080135383e+01
1.732513913568699826e-01 1.032085760422449994e+01
1.742919402535353657e-01 1.044233593600325705e+01
1.753324891502007488e-01 1.009612809973187453e+01
1.763730380468661318e-01 9.540416860425739998e+00
1.774135869435315149e-01 9.435288529076004238e+00
1.784541358401968980e-01 9.153081093912941668e+00
1.794946847368622811e-01 9.008610154571154993e+00
1.805352336335276642e-01 8.852159860988454199e+00
1.815757825301930473e-01 8.634170948434746862e+00
1.826163314268584303e-01 8.421616712468637189e+00
1.836568803235238134e-01 8.262411028589969675e+00
1.846974292201891965e-01 8.000750759229330100e+00
1.857379781168545796e-01 7.682931336193636440e+00
1.867785270135199627e-01 7.114562867304179861e+00
1.878190759101853458e-01 7.315254125916020200e+00
1.888596248068507288e-01 7.274364525415307980e+00
1.899001737035161119e-01 6.877176603238204677e+00
1.909407226001814950e-01 6.620860211837083398e+00
1.919812714968468781e-01 6.436089306456661774e+00
1.930218203935122612e-01 6.019366104534036310e+00
1.940623692901776443e-01 5.580121228597295868e+00
1.951029181868430273e-01 5.426564949134196070e+00
1.961434670835084104e-01 5.259261694051780012e+00
1.971840159801737935e-01 4.927015983613909356e+00
1.982245648768391766e-01 4.551402556443008507e+00
1.992651137735045597e-01 4.233170689611121418e+00
2.003056626701699428e-01 3.818102523537323378e+00
2.013462115668353813e-01 3.664773584422043484e+00
2.023867604635007644e-01 3.641568309413035109e+00
2.034273093601661475e-01 3.574689437248611767e+00
2.044678582568315306e-01 3.268612596882110921e+00
2.055084071534969137e-01 2.842594948057314497e+00
2.065489560501622968e-01 2.936594229909449183e+00
2.075895049468276798e-01 2.846460430116533047e+00
2.086300538434930629e-01 2.414323889235252096e+00
2.096706027401584460e-01 2.148154015594951005e+00
2.107111516368238291e-01 1.942285625978918517e+00
2.117517005334892122e-01 1.827702451624094948e+00
2.127922494301545953e-01 1.833858927740301681e+00
2.138327983268199783e-01 1.636611774396371288e+00
2.148733472234853614e-01 1.382037572479291043e+00
2.159138961201507445e-01 1.214172194839054697e+00
2.169544450168161276e-01 1.196406562007009455e+00
2.179949939134815107e-01 1.128302686924456566e+00
2.190355428101468938e-01 1.093838456478479770e+00
2.200760917068122768e-01 1.160652503798885959e+00
2.211166406034776599e-01 1.081543516684646988e+00
2.221571895001430430e-01 8.860078709081342652e-01
2.231977383968084261e-01 7.552250146980696854e-01
2.242382872934738092e-01 8.061459069182816961e-01
2.252788361901391923e-01 7.775528211276601098e-01
2.263193850868045753e-01 8.189976007305084238e-01
2.273599339834699584e-01 7.753242194589518022e-01
2.284004828801353415e-01 8.248002836643095748e-01
2.294410317768007246e-01 7.778431453477736568e-01
2.304815806734661077e-01 6.049113767778067086e-01
2.315221295701314908e-01 6.218348953560521863e-01
2.325626784667968738e-01 7.936134134252448291e-01
2.336032273634622569e-01 7.430351028798689583e-01
2.346437762601276400e-01 8.043405829688516917e-01
2.356843251567930231e-01 1.012484503289776683e+00
2.367248740534584062e-01 9.995159690545207809e-01
2.377654229501237892e-01 9.923841633430896536e-01
2.388059718467891723e-01 9.009339097672466323e-01
2.398465207434545554e-01 9.724903026103461912e-01
2.408870696401199385e-01 9.863905255408518258e-01
2.419276185367853216e-01 9.880500323842582588e-01
2.429681674334507047e-01 1.409088748169153860e+00
2.440087163301160877e-01 1.366304006302080154e+00
2.450492652267814708e-01 1.132157957381782154e+00
2.460898141234468539e-01 1.099263748962950871e+00
2.471303630201122370e-01 1.276956474207061376e+00
2.481709119167776201e-01 1.320833010087191894e+00
2.492114608134430032e-01 1.164722564104945235e+00
2.502520097101083585e-01 1.250536050583182401e+00
2.512925586067737416e-01 1.455594823188324227e+00
2.523331075034391247e-01 1.507545919225126596e+00
2.533736564001045077e-01 1.479718858673987114e+00
2.544142052967698908e-01 1.440796484201431582e+00
2.554547541934352739e-01 1.410306030529469012e+00
2.564953030901006570e-01 1.561344149632606815e+00
2.575358519867660401e-01 1.637062010541388446e+00
2.585764008834314231e-01 1.595856979793072838e+00
2.596169497800968062e-01 1.664272458212796124e+00
2.606574986767621893e-01 1.684748044235671927e+00
2.616980475734275724e-01 1.645120921044846085e+00
2.627385964700929555e-01 1.646858202473101329e+00
2.637791453667583386e-01 1.860918222020298884e+00
2.648196942634237216e-01 1.689953365145747455e+00
2.658602431600891047e-01 1.811251805657381198e+00
2.669007920567544878e-01 1.750410879443442980e+00
2.679413409534198709e-01 1.793921471893590081e+00
2.689818898500852540e-01 2.046785978929609229e+00
2.700224387467506371e-01 1.847224979890626173e+00
2.710629876434160201e-01 1.531033368770536640e+00
2.721035365400814032e-01 1.537940075020795661e+00
2.731440854367467863e-01 1.727569783954351124e+00
2.741846343334121694e-01 1.853629665204678645e+00
2.752251832300775525e-01 1.594375552187912604e+00
2.762657321267429356e-01 1.534636524034453942e+00
2.773062810234083186e-01 1.564903890490832339e+00
2.783468299200737017e-01 1.600653571513451112e+00
2.793873788167390848e-01 1.288984323412243782e+00
2.804279277134044679e-01 9.536680046199705885e-01
2.814684766100698510e-01 1.143209681944636458e+00
2.825090255067352341e-01 1.586171906821650879e+00
2.835495744034006171e-01 1.489828444073779679e+00
2.845901233000660002e-01 1.381636468056051115e+00
2.856306721967313833e-01 1.283634506906519590e+00
2.866712210933967664e-01 1.157588336978751187e+00
2.877117699900621495e-01 1.058845285511655021e+00
2.887523188867275326e-01 9.517334286665075638e-01
2.897928677833929156e-01 1.069977117830610780e+00
2.908334166800582987e-01 1.254945786333308888e+00
2.918739655767236818e-01 1.167430857922617804e+00
2.929145144733890649e-01 9.454390282681259805e-01
2.939550633700544480e-01 7.373448265913182809e-01
2.949956122667198311e-01 8.345893840638787253e-01
2.960361611633852141e-01 9.286231192271152679e-01
2.970767100600505972e-01 1.000745061091251387e+00
2.981172589567159803e-01 9.507582199093782549e-01
2.991578078533813634e-01 9.972307526592167903e-01
3.001983567500468020e-01 8.394992150710542944e-01
3.012389056467121851e-01 9.196779122926557193e-01
3.022794545433775681e-01 8.895511373208648820e-01
3.033200034400429512e-01 7.110787611712154899e-01
3.043605523367083343e-01 5.729503265901918496e-01
3.054011012333737174e-01 7.002846801650868258e-01
3.064416501300391005e-01 8.398344468978820032e-01
3.074821990267044836e-01 7.008335908463259045e-01
3.085227479233698666e-01 3.603659426579000069e-01
3.095632968200352497e-01 4.111106886887583300e-01
3.106038457167006328e-01 4.410285542295575567e-01
3.116443946133660159e-01 4.174168843018790653e-01
3.126849435100313990e-01 3.643237248122588312e-01
3.137254924066967821e-01 4.321812819851338361e-01
3.147660413033621651e-01 4.679052287491494155e-01
3.158065902000275482e-01 4.577562051517141128e-01
3.168471390966929313e-01 3.529115464004206615e-01
3.178876879933583144e-01 3.169543648807717773e-01
3.189282368900236975e-01 4.015157860810312229e-01
3.199687857866890806e-01 4.438446405019647045e-01
3.210093346833544636e-01 5.424223447110456675e-01
3.220498835800198467e-01 4.580184824759996332e-01
3.230904324766852298e-01 4.438923655010498237e-01
3.241309813733506129e-01 3.655732740132080494e-01
3.251715302700159960e-01 3.179087152222344059e-01
3.262120791666813790e-01 2.392228422852369363e-01
3.272526280633467621e-01 1.980981755638566710e-01
3.282931769600121452e-01 1.775993487765319401e-01
3.293337258566775283e-01 4.160977965236085652e-01
3.303742747533429114e-01 4.333943481560211808e-01
3.314148236500082945e-01 3.201992783079603555e-01
3.324553725466736775e-01 5.388871365369816147e-01
3.334959214433390606e-01 3.543118028475227277e-01
3.345364703400044437e-01 4.294177903042779576e-01
3.355770192366698268e-01 5.332975518521259062e-01
3.366175681333352099e-01 5.885359870429951457e-01
3.376581170300005930e-01 3.755089985461275148e-01
3.386986659266659760e-01 3.986433836400173902e-01
3.397392148233313591e-01 5.114765334945090558e-01
3.407797637199967422e-01 6.341869328726339461e-01
3.418203126166621253e-01 6.107479795028289971e-01
3.428608615133275084e-01 5.430345476404845328e-01
3.439014104099928915e-01 5.951439159645488530e-01
3.449419593066582745e-01 6.022888557863659287e-01
3.459825082033236576e-01 5.651907206868997946e-01
3.470230570999890407e-01 6.285568044027591839e-01
3.480636059966544238e-01 7.050067637932038167e-01
3.491041548933198069e-01 5.880960237515893141e-01
3.501447037899851900e-01 7.388486867633083932e-01
3.511852526866505730e-01 6.852654099148907108e-01
3.522258015833159561e-01 4.827050547296956040e-01
3.532663504799813392e-01 4.821255678252569510e-01
3.543068993766467223e-01 5.778165414622193907e-01
3.553474482733121054e-01 5.360691630311436029e-01
3.563879971699774885e-01 5.238927578334937607e-01
3.574285460666428715e-01 4.758024810906711366e-01
3.584690949633082546e-01 7.405020012632164139e-01
3.595096438599736377e-01 6.643029478421453859e-01
3.605501927566390208e-01 5.827751934238207809e-01
3.615907416533044039e-01 5.260594715167918878e-01
3.626312905499697870e-01 6.680242475836912774e-01
3.636718394466351700e-01 7.929247392180513998e-01
3.647123883433005531e-01 5.833050192685824697e-01
3.657529372399659362e-01 4.881123311631334616e-01
3.667934861366313193e-01 4.699025299322769911e-01
3.678340350332967024e-01 5.040134608376014569e-01
3.688745839299620854e-01 3.286647715868937780e-01
3.699151328266274685e-01 5.948279969870817752e-01
3.709556817232928516e-01 6.069979982645428151e-01
3.719962306199582347e-01 5.097852270513669737e-01
3.730367795166236178e-01 6.240850798739607797e-01
3.740773284132890009e-01 3.641606354543824864e-01
3.751178773099543839e-01 5.261466558483043343e-01
3.761584262066197670e-01 6.156180164184057446e-01
3.771989751032851501e-01 5.477059640958792386e-01
3.782395239999505332e-01 3.103646320883122200e-01
3.792800728966159163e-01 4.477089133214633421e-01
3.803206217932812994e-01 5.169266591780612430e-01
3.813611706899466824e-01 5.245011654685498570e-01
3.824017195866120655e-01 4.897480958665987316e-01
3.834422684832774486e-01 6.660236026956241062e-01
3.844828173799428317e-01 6.506983248249618157e-01
3.855233662766082148e-01 6.101726964122207164e-01
3.865639151732735979e-01 4.413089067548341404e-01
3.876044640699389809e-01 4.771516682447192181e-01
3.886450129666043640e-01 4.591744405994369060e-01
3.896855618632697471e-01 4.434448843010336816e-01
3.907261107599351302e-01 5.783065884559306369e-01
3.917666596566005133e-01 4.584682000930548895e-01
3.928072085532658964e-01 2.499768256340111350e-01
3.938477574499312794e-01 2.985863847529017789e-01
3.948883063465966625e-01 3.249690242313931776e-01
3.959288552432620456e-01 4.022526583481180751e-01
3.969694041399274287e-01 3.901211492954743676e-01
3.980099530365928118e-01 4.588550053242279603e-01
3.990505019332581949e-01 4.215056078605101675e-01
4.000910508299235779e-01 3.138925744231180204e-01
4.011315997265889610e-01 4.411998121358706726e-01
4.021721486232543441e-01 4.593382308020252935e-01
4.032126975199197272e-01 2.682785157556253353e-01
4.042532464165851103e-01 2.878130384340309433e-01
4.052937953132504934e-01 5.238493633571152941e-01
4.063343442099158764e-01 4.809426312157043526e-01
4.073748931065812595e-01 4.119844178537519497e-01
4.084154420032466426e-01 4.346062907886967253e-01
4.094559908999120257e-01 4.186352995310258507e-01
4.104965397965774088e-01 3.527711245928131234e-01
4.115370886932427918e-01 3.502264770342868871e-01
4.125776375899081749e-01 4.625217811434723103e-01
4.136181864865735580e-01 4.376612157994799190e-01
4.146587353832389411e-01 4.172832037254465831e-01
4.156992842799043242e-01 2.959054474265627732e-01
4.167398331765697073e-01 2.507039035759355272e-01
4.177803820732350903e-01 3.403903081169232792e-01
4.188209309699004734e-01 3.889691128464747294e-01
4.198614798665658565e-01 4.228523345043555537e-01
4.209020287632312396e-01 4.492657126032995052e-01
4.219425776598966227e-01 3.146274675694442635e-01
4.229831265565620058e-01 2.517452670591922015e-01
4.240236754532273888e-01 2.413903051962122959e-01
4.250642243498927719e-01 2.815150308896612330e-01
4.261047732465581550e-01 2.572444100822757207e-01
4.271453221432235381e-01 2.773144448181277255e-01
4.281858710398889212e-01 4.430947161137197554e-01
4.292264199365543043e-01 4.410309797871541093e-01
4.302669688332196873e-01 3.736896778607921021e-01
4.313075177298850704e-01 3.745450349281860269e-01
4.323480666265504535e-01 3.241507332613338122e-01
4.333886155232158366e-01 3.251521773375216640e-01
4.344291644198812197e-01 3.164550114894346677e-01
