# q (1/Angstrom), Intensity (arb)
2.029070354705860696e-02 1.194515062349035134e+03
2.133125244372399004e-02 1.186785112034410076e+03
2.237180134038937659e-02 1.182089307449226226e+03
2.341235023705475968e-02 1.172044613029392849e+03
2.445289913372014276e-02 1.163474332725481190e+03
2.549344803038552584e-02 1.158405505943069784e+03
2.653399692705091240e-02 1.143606801127450126e+03
2.757454582371629548e-02 1.130828974723914143e+03
2.861509472038167856e-02 1.114971154114329465e+03
2.965564361704706164e-02 1.105020427130104054e+03
3.069619251371244473e-02 1.090416153339160928e+03
3.173674141037782781e-02 1.078027971767370218e+03
3.277729030704321089e-02 1.058357106310675817e+03
3.381783920370859398e-02 1.040569819956511992e+03
3.485838810037397706e-02 1.024613945112650072e+03
3.589893699703936014e-02 1.009343918269349160e+03
3.693948589370474322e-02 9.891758188356096753e+02
3.798003479037012631e-02 9.707270268023105473e+02
3.902058368703550939e-02 9.528807907154330223e+02
4.006113258370089247e-02 9.357123383103290735e+02
4.110168148036627556e-02 9.197939767154005040e+02
4.214223037703165864e-02 8.998397809465787986e+02
4.318277927369704866e-02 8.802562074743607354e+02
4.422332817036243174e-02 8.586546860927113585e+02
4.526387706702781483e-02 8.417023318354180219e+02
4.630442596369319791e-02 8.253649289944124803e+02
4.734497486035858099e-02 8.047235271130717820e+02
4.838552375702396408e-02 7.835900353746669680e+02
4.942607265368934716e-02 7.637601142207032581e+02
5.046662155035473024e-02 7.445512635986104897e+02
5.150717044702011332e-02 7.213877758322983027e+02
5.254771934368549641e-02 7.022905533097901980e+02
5.358826824035087949e-02 6.841622286830512394e+02
5.462881713701626257e-02 6.660814731934470956e+02
5.566936603368164566e-02 6.466867318455920213e+02
5.670991493034702874e-02 6.263781155210338056e+02
5.775046382701241182e-02 6.077457107289544638e+02
5.879101272367779490e-02 5.911882566091604758e+02
5.983156162034317799e-02 5.722023022188375307e+02
6.087211051700856107e-02 5.519061521340628360e+02
6.191265941367394415e-02 5.342501857446145550e+02
6.295320831033933417e-02 5.158146004563935776e+02
6.399375720700471726e-02 4.960825433445401131e+02
6.503430610367010034e-02 4.783502876332997289e+02
6.607485500033548342e-02 4.607853979667018507e+02
6.711540389700086651e-02 4.450410146484456391e+02
6.815595279366624959e-02 4.284710843619540697e+02
6.919650169033163267e-02 4.114648946827293798e+02
7.023705058699701576e-02 3.956036564580669506e+02
7.127759948366239884e-02 3.799522640901898853e+02
7.231814838032778192e-02 3.630325137373746429e+02
7.335869727699316500e-02 3.472146842228784749e+02
7.439924617365854809e-02 3.334111797938168138e+02
7.543979507032393117e-02 3.187762813911393209e+02
7.648034396698931425e-02 3.051130074869511759e+02
7.752089286365469734e-02 2.896508249269316480e+02
7.856144176032008042e-02 2.764601371727612786e+02
7.960199065698546350e-02 2.641248855056251159e+02
8.064253955365084658e-02 2.516051840631112100e+02
8.168308845031622967e-02 2.382167607311444328e+02
8.272363734698161275e-02 2.259257198802214361e+02
8.376418624364699583e-02 2.143722540625740010e+02
8.480473514031239279e-02 2.032419566339509061e+02
8.584528403697777588e-02 1.933647115095792515e+02
8.688583293364315896e-02 1.813348535160551762e+02
8.792638183030854204e-02 1.715383531792737983e+02
8.896693072697392513e-02 1.620345085477490557e+02
9.000747962363930821e-02 1.534276053853583903e+02
9.104802852030469129e-02 1.429030663692303449e+02
9.208857741697007437e-02 1.330726147229555067e+02
9.312912631363545746e-02 1.252838833671441421e+02
9.416967521030084054e-02 1.172879299563722100e+02
9.521022410696622362e-02 1.099808479665771017e+02
9.625077300363160671e-02 1.035468883349643079e+02
9.729132190029698979e-02 9.593103439514348452e+01
9.833187079696237287e-02 8.823208919683014528e+01
9.937241969362775595e-02 8.085981441953514093e+01
1.004129685902931390e-01 7.427931475416880858e+01
1.014535174869585221e-01 6.849333996332745755e+01
1.024940663836239052e-01 6.330450358163657398e+01
1.035346152802892883e-01 5.808704757272713692e+01
1.045751641769546714e-01 5.290762340164059196e+01
1.056157130736200545e-01 4.856871166344660651e+01
1.066562619702854375e-01 4.416728740465557479e+01
1.076968108669508206e-01 4.046855314674370163e+01
1.087373597636162037e-01 3.641018971382487734e+01
1.097779086602815868e-01 3.290130932767945637e+01
1.108184575569469699e-01 2.901603313405198392e+01
1.118590064536123529e-01 2.586368674498771014e+01
1.128995553502777360e-01 2.334192480168275097e+01
1.139401042469431191e-01 2.078647150462323268e+01
1.149806531436085022e-01 1.809715275469109130e+01
1.160212020402738853e-01 1.587792036851887900e+01
1.170617509369392684e-01 1.433151308508417898e+01
1.181022998336046514e-01 1.242362248307961536e+01
1.191428487302700345e-01 1.037249975049615003e+01
1.201833976269354176e-01 8.916087357862561902e+00
1.212239465236008007e-01 7.473394360199641540e+00
1.222644954202661838e-01 6.727731490365165712e+00
1.233050443169315669e-01 5.643688953117280249e+00
1.243455932135969499e-01 4.723598671714039909e+00
1.253861421102623330e-01 3.889100168550605474e+00
1.264266910069277161e-01 3.767172949623013523e+00
1.274672399035930992e-01 2.997315645252321303e+00
1.285077888002584823e-01 2.245738189459910217e+00
1.295483376969238654e-01 1.862232542776105504e+00
1.305888865935892484e-01 1.828723291058878431e+00
1.316294354902546315e-01 1.726939120212243495e+00
1.326699843869200146e-01 1.974468628370306789e+00
1.337105332835853977e-01 1.879641918274771228e+00
1.347510821802507808e-01 1.701975153816967179e+00
1.357916310769161639e-01 1.983085931430299098e+00
1.368321799735815469e-01 2.026048235962242927e+00
1.378727288702469300e-01 2.703969983886878481e+00
1.389132777669123131e-01 2.551564471523306565e+00
1.399538266635776962e-01 3.124536969165838229e+00
1.409943755602430793e-01 3.051015085941543248e+00
1.420349244569084624e-01 3.028529996748773101e+00
1.430754733535738454e-01 3.778194736348556404e+00
1.441160222502392285e-01 4.400487286182030999e+00
1.451565711469046116e-01 4.575037062100363983e+00
1.461971200435699947e-01 4.798253674867893892e+00
1.472376689402353778e-01 5.121644306084448317e+00
1.482782178369007609e-01 5.407766010347891950e+00
1.493187667335661439e-01 5.632947645726329000e+00
1.503593156302315270e-01 5.847819779447689825e+00
1.513998645268969101e-01 6.368317831406042018e+00
1.524404134235622932e-01 6.667377629335952349e+00
1.534809623202276763e-01 7.036711327171399688e+00
1.545215112168930593e-01 7.404617652875124634e+00
1.555620601135584424e-01 7.851085532477291906e+00
1.566026090102238255e-01 8.015898355231918515e+00
1.576431579068892086e-01 8.292223768345227342e+00
1.586837068035545917e-01 8.421512482834089042e+00
1.597242557002199748e-01 8.886531957948825777e+00
1.607648045968853578e-01 8.826767978921292723e+00
1.618053534935507409e-01 8.920218237246384518e+00
1.628459023902161240e-01 9.509004166834913008e+00
1.638864512868815071e-01 9.473394568560877360e+00
1.649270001835468902e-01 9.583345984128960993e+00
1.659675490802122733e-01 9.521767568019026129e+00
1.670080979768776563e-01 9.496584579489695699e+00
1.680486468735430672e-01 9.838204350747023597e+00
1.690891957702084503e-01 9.616204208784147056e+00
1.701297446668738333e-01 9.715831996575573726e+00
1.711702935635392164e-01 1.010993254626260551e+01
1.722108424602045995e-01 1.027210344231730588e+01
1.732513913568699826e-01 9.987947961435857280e+00
1.742919402535353657e-01 9.648795698503271012e+00
1.753324891502007488e-01 9.307365112505717519e+00
1.763730380468661318e-01 8.950411960749036666e+00
1.774135869435315149e-01 8.760857780614056622e+00
1.784541358401968980e-01 8.677711834826574488e+00
1.794946847368622811e-01 8.792371627885955832e+00
1.805352336335276642e-01 8.599665990804329141e+00
1.815757825301930473e-01 8.224064324491784816e+00
1.826163314268584303e-01 7.864632136576684474e+00
1.836568803235238134e-01 7.660758064599257011e+00
1.846974292201891965e-01 7.310569484256301820e+00
1.857379781168545796e-01 7.492535510105120977e+00
1.867785270135199627e-01 7.344883297771197306e+00
1.878190759101853458e-01 6.845966024837402131e+00
1.888596248068507288e-01 6.378774049176435312e+00
1.899001737035161119e-01 6.297863759058433430e+00
1.909407226001814950e-01 5.599615635106328426e+00
1.919812714968468781e-01 5.487597122826208818e+00
1.930218203935122612e-01 5.170615929976136727e+00
1.940623692901776443e-01 5.125463549922681494e+00
1.951029181868430273e-01 5.237586053334982950e+00
1.961434670835084104e-01 4.967992348188918328e+00
1.971840159801737935e-01 4.422621778607744858e+00
1.982245648768391766e-01 4.333711205208167883e+00
1.992651137735045597e-01 3.947077570218574749e+00
2.003056626701699428e-01 3.331706120648263436e+00
2.013462115668353813e-01 3.135553537075718822e+00
2.023867604635007644e-01 3.467757299571857743e+00
2.034273093601661475e-01 3.192942443404632513e+00
2.044678582568315306e-01 2.987162449676315390e+00
2.055084071534969137e-01 2.708763242854679731e+00
2.065489560501622968e-01 2.465460420902669370e+00
2.075895049468276798e-01 2.388104451430869801e+00
2.086300538434930629e-01 2.313394471274708764e+00
2.096706027401584460e-01 2.030900718907329150e+00
2.107111516368238291e-01 1.819320246000209806e+00
2.117517005334892122e-01 1.745169531745027314e+00
2.127922494301545953e-01 1.645215290309753442e+00
2.138327983268199783e-01 1.351082022838664187e+00
2.148733472234853614e-01 1.137157946588178703e+00
2.159138961201507445e-01 1.116047474285885244e+00
2.169544450168161276e-01 8.565692437913199342e-01
2.179949939134815107e-01 8.345674363246651239e-01
2.190355428101468938e-01 1.042338778488947071e+00
2.200760917068122768e-01 9.123871208483969042e-01
2.211166406034776599e-01 6.297049171095778775e-01
2.221571895001430430e-01 7.551881454649951309e-01
2.231977383968084261e-01 9.709284592297535710e-01
2.242382872934738092e-01 5.705237631523303321e-01
2.252788361901391923e-01 6.283795679616446250e-01
2.263193850868045753e-01 7.207594304579849620e-01
2.273599339834699584e-01 7.279555485503408363e-01
2.284004828801353415e-01 5.254016017808673666e-01
2.294410317768007246e-01 3.115732829235575707e-01
2.304815806734661077e-01 4.493610245207619869e-01
2.315221295701314908e-01 3.472801687688402694e-01
2.325626784667968738e-01 5.862342202551467096e-01
2.336032273634622569e-01 7.022854377580394214e-01
2.346437762601276400e-01 6.542176461811735066e-01
2.356843251567930231e-01 5.036176938942205084e-01
2.367248740534584062e-01 5.015587339103717568e-01
2.377654229501237892e-01 9.593196934795003017e-01
2.388059718467891723e-01 1.133119830806357697e+00
2.398465207434545554e-01 9.400782033501613455e-01
2.408870696401199385e-01 8.565948619400458597e-01
2.419276185367853216e-01 9.252407822056234465e-01
2.429681674334507047e-01 7.527488437403704324e-01
2.440087163301160877e-01 7.774745562483929007e-01
2.450492652267814708e-01 1.154843261005336075e+00
2.460898141234468539e-01 1.288000087702727114e+00
2.471303630201122370e-01 1.182957477093797394e+00
2.481709119167776201e-01 1.072138914558543377e+00
2.492114608134430032e-01 9.538602477337185803e-01
2.502520097101083585e-01 1.566808605116627007e+00
2.512925586067737416e-01 1.707041901115495364e+00
2.523331075034391247e-01 1.387365282163777636e+00
2.533736564001045077e-01 8.539648956372722921e-01
2.544142052967698908e-01 1.060746246626496969e+00
2.554547541934352739e-01 1.113926532356551036e+00
2.564953030901006570e-01 1.232516838103993706e+00
2.575358519867660401e-01 1.358552548654923697e+00
2.585764008834314231e-01 1.382407470883823208e+00
2.596169497800968062e-01 1.549245497516160697e+00
2.606574986767621893e-01 1.489198921131357878e+00
2.616980475734275724e-01 1.544772683052276108e+00
2.627385964700929555e-01 1.542410471725624177e+00
2.637791453667583386e-01 1.674521082392420368e+00
2.648196942634237216e-01 1.615119547368706776e+00
2.658602431600891047e-01 1.785532423480848507e+00
2.669007920567544878e-01 1.779572662310979325e+00
2.679413409534198709e-01 1.723757910256953352e+00
2.689818898500852540e-01 1.681169341780094584e+00
2.700224387467506371e-01 1.578727042410818626e+00
2.710629876434160201e-01 1.790944259551611850e+00
2.721035365400814032e-01 1.754943545069664879e+00
2.731440854367467863e-01 1.607279029907878964e+00
2.741846343334121694e-01 1.608505644336055695e+00
2.752251832300775525e-01 1.453426488905229519e+00
2.762657321267429356e-01 1.337648099235426713e+00
2.773062810234083186e-01 1.390228354205131467e+00
2.783468299200737017e-01 1.463262180643685184e+00
2.793873788167390848e-01 1.498493009803237186e+00
2.804279277134044679e-01 1.318098573089461212e+00
2.814684766100698510e-01 1.245432737548814117e+00
2.825090255067352341e-01 1.263232839171251953e+00
2.835495744034006171e-01 1.163931501430941040e+00
2.845901233000660002e-01 9.624503123574292829e-01
2.856306721967313833e-01 1.237735369070357194e+00
2.866712210933967664e-01 1.424868203500210484e+00
2.877117699900621495e-01 1.542120927400290498e+00
2.887523188867275326e-01 1.115937059659191988e+00
2.897928677833929156e-01 1.041422676052842888e+00
2.908334166800582987e-01 9.473260295640599793e-01
2.918739655767236818e-01 9.445239717807041302e-01
2.929145144733890649e-01 8.764341634602921260e-01
2.939550633700544480e-01 8.647097801844978449e-01
2.949956122667198311e-01 8.110793045343847041e-01
2.960361611633852141e-01 6.760280909391056525e-01
2.970767100600505972e-01 6.858118855826553784e-01
2.981172589567159803e-01 5.472844203537228225e-01
2.991578078533813634e-01 4.021515838752982575e-01
3.001983567500468020e-01 4.349869008562343708e-01
3.012389056467121851e-01 7.166755671886804180e-01
3.022794545433775681e-01 6.716137945531848175e-01
3.033200034400429512e-01 7.124018468064790000e-01
3.043605523367083343e-01 7.126302153571231202e-01
3.054011012333737174e-01 6.509680240991073674e-01
3.064416501300391005e-01 4.461179743498959738e-01
3.074821990267044836e-01 4.122658637243965529e-01
3.085227479233698666e-01 4.380303120426631835e-01
3.095632968200352497e-01 4.035851563407106823e-01
3.106038457167006328e-01 4.337129016487040190e-01
3.116443946133660159e-01 4.041887656822140684e-01
3.126849435100313990e-01 6.170006189471166635e-01
3.137254924066967821e-01 5.072614911184523123e-01
3.147660413033621651e-01 3.900511059424793814e-01
3.158065902000275482e-01 6.377955425275345647e-01
3.168471390966929313e-01 6.712386165066313026e-01
3.178876879933583144e-01 3.036731869309186038e-01
3.189282368900236975e-01 3.469608926034375429e-01
3.199687857866890806e-01 4.301029550783646016e-01
3.210093346833544636e-01 4.160753739377049953e-01
3.220498835800198467e-01 0.000000000000000000e+00
3.230904324766852298e-01 1.856914835183332002e-01
3.241309813733506129e-01 3.426921291199072073e-01
3.251715302700159960e-01 4.194933892951162591e-01
3.262120791666813790e-01 4.201676033251189324e-01
3.272526280633467621e-01 1.234182806454136028e-01
3.282931769600121452e-01 3.230449808852249305e-01
3.293337258566775283e-01 5.784849074286526616e-01
3.303742747533429114e-01 4.851576422342027683e-01
3.314148236500082945e-01 3.379143321561954849e-01
3.324553725466736775e-01 4.749922130791333075e-01
3.334959214433390606e-01 4.293332359081922789e-01
3.345364703400044437e-01 3.124731318251221523e-01
3.355770192366698268e-01 2.467958867209247842e-01
3.366175681333352099e-01 4.187847745793078502e-01
3.376581170300005930e-01 4.112171543552314290e-01
3.386986659266659760e-01 4.549773023588947751e-01
3.397392148233313591e-01 3.712970737078151728e-01
3.407797637199967422e-01 3.740977540908509980e-01
3.418203126166621253e-01 5.004838691158148833e-01
3.428608615133275084e-01 4.385495820212703677e-01
3.439014104099928915e-01 1.960567407365196857e-01
3.449419593066582745e-01 5.178621259338775928e-01
3.459825082033236576e-01 6.766638734028198598e-01
3.470230570999890407e-01 6.435440475925098269e-01
3.480636059966544238e-01 8.333837974746138855e-01
3.491041548933198069e-01 8.849555485679374556e-01
3.501447037899851900e-01 7.121397616430691357e-01
3.511852526866505730e-01 6.686583918081439037e-01
3.522258015833159561e-01 5.952778087453260980e-01
3.532663504799813392e-01 6.070886307631795376e-01
3.543068993766467223e-01 6.061695806796407737e-01
3.553474482733121054e-01 5.097723293725806570e-01
3.563879971699774885e-01 6.016218795282846088e-01
3.574285460666428715e-01 5.518637322111459298e-01
3.584690949633082546e-01 6.272917043783508007e-01
3.595096438599736377e-01 8.694790860129870680e-01
3.605501927566390208e-01 6.320446578056575504e-01
3.615907416533044039e-01 5.918299577986338988e-01
3.626312905499697870e-01 5.941160813920198791e-01
3.636718394466351700e-01 6.269808275301116396e-01
3.647123883433005531e-01 6.696413750586778235e-01
3.657529372399659362e-01 6.272282184156381390e-01
3.667934861366313193e-01 4.885410814435786619e-01
3.678340350332967024e-01 5.656015483240999231e-01
3.688745839299620854e-01 6.094041135078960281e-01
3.699151328266274685e-01 4.484161242894018073e-01
3.709556817232928516e-01 5.204815789290080374e-01
3.719962306199582347e-01 5.153282678074724288e-01
3.730367795166236178e-01 4.136286333188792241e-01
3.740773284132890009e-01 3.496868994310347034e-01
3.751178773099543839e-01 4.796643251953085496e-01
3.761584262066197670e-01 6.949892083819122490e-01
3.771989751032851501e-01 7.785069803399551347e-01
3.782395239999505332e-01 6.076732367156765235e-01
3.792800728966159163e-01 6.088491573543137747e-01
3.803206217932812994e-01 5.957276311539629887e-01
3.813611706899466824e-01 5.384584120462285739e-01
3.824017195866120655e-01 6.695702743438509685e-01
3.834422684832774486e-01 5.806528301028279770e-01
3.844828173799428317e-01 4.633394471198819531e-01
3.855233662766082148e-01 4.625061120349975852e-01
3.865639151732735979e-01 4.811857226056552861e-01
3.876044640699389809e-01 4.639792396418762621e-01
3.886450129666043640e-01 4.588412398281214166e-01
3.896855618632697471e-01 4.844900227920447833e-01
3.907261107599351302e-01 6.628510957296533945e-01
3.917666596566005133e-01 5.693921030067023992e-01
3.928072085532658964e-01 5.076032083203223522e-01
3.938477574499312794e-01 5.575339613670848848e-01
3.948883063465966625e-01 5.699434058073293841e-01
3.959288552432620456e-01 4.219413272939398496e-01
3.969694041399274287e-01 4.327758389949742934e-01
3.980099530365928118e-01 4.489189031463887147e-01
3.990505019332581949e-01 3.106418812380411509e-01
4.000910508299235779e-01 1.531757918267402374e-01
4.011315997265889610e-01 2.690235746792950522e-01
4.021721486232543441e-01 4.228483485823524290e-01
4.032126975199197272e-01 3.260349636471140400e-01
4.042532464165851103e-01 3.191020933195929388e-01
4.052937953132504934e-01 3.177642224168231166e-01
4.063343442099158764e-01 1.271430242942628297e-01
4.073748931065812595e-01 2.412358397890628225e-01
4.084154420032466426e-01 3.460467822510970848e-01
4.094559908999120257e-01 3.756020573060467882e-01
4.104965397965774088e-01 3.466170489054185566e-01
4.115370886932427918e-01 3.156529737702875593e-01
4.125776375899081749e-01 3.171932483546449077e-01
4.136181864865735580e-01 3.845014034314964135e-01
4.146587353832389411e-01 4.495006258531653032e-01
4.156992842799043242e-01 3.133682788512714978e-01
4.167398331765697073e-01 2.883108030667642652e-01
4.177803820732350903e-01 2.615929635994618252e-01
4.188209309699004734e-01 2.231282525635371883e-01
4.198614798665658565e-01 1.965175940694230405e-01
4.209020287632312396e-01 1.913228554025145911e-01
4.219425776598966227e-01 3.376627256117323839e-01
4.229831265565620058e-01 4.461534013749144378e-01
4.240236754532273888e-01 3.889311263183969913e-01
4.250642243498927719e-01 4.902880002643605906e-01
4.261047732465581550e-01 4.424999893160723730e-01
4.271453221432235381e-01 2.624825491621578522e-01
4.281858710398889212e-01 5.081550217074273235e-01
4.292264199365543043e-01 3.958593010883326713e-01
4.302669688332196873e-01 2.668128083698597663e-01
4.313075177298850704e-01 3.958251911045032045e-01
4.323480666265504535e-01 3.209688743396021948e-01
4.333886155232158366e-01 4.403930687684685097e-01
4.344291644198812197e-01 6.981727340449950248e-01
