# q (1/Angstrom), Intensity (arb)
2.029070354705860696e-02 1.207636171173910270e+03
2.133125244372399004e-02 1.202270688575347549e+03
2.237180134038937659e-02 1.201674761400516672e+03
2.341235023705475968e-02 1.197930656413335555e+03
2.445289913372014276e-02 1.183296710445331883e+03
2.549344803038552584e-02 1.170947762739118389e+03
2.653399692705091240e-02 1.156905429615085268e+03
2.757454582371629548e-02 1.146709427857625542e+03
2.861509472038167856e-02 1.134215313064783913e+03
2.965564361704706164e-02 1.114885132187034969e+03
3.069619251371244473e-02 1.101173583449073249e+03
3.173674141037782781e-02 1.090025800531192544e+03
3.277729030704321089e-02 1.072868231752547445e+03
3.381783920370859398e-02 1.057398430999056018e+03
3.485838810037397706e-02 1.042620852974846684e+03
3.589893699703936014e-02 1.024067704333014717e+03
3.693948589370474322e-02 1.007399695763863974e+03
3.798003479037012631e-02 9.907063345812952093e+02
3.902058368703550939e-02 9.699465931079911343e+02
4.006113258370089247e-02 9.532385295344795395e+02
4.110168148036627556e-02 9.376598129812646221e+02
4.214223037703165864e-02 9.195306692513103144e+02
4.318277927369704866e-02 8.957753193509074663e+02
4.422332817036243174e-02 8.764659146483395489e+02
4.526387706702781483e-02 8.579975361663061904e+02
4.630442596369319791e-02 8.372360735330526040e+02
4.734497486035858099e-02 8.187298832553443617e+02
4.838552375702396408e-02 8.012677473212731911e+02
4.942607265368934716e-02 7.791249291851087264e+02
5.046662155035473024e-02 7.586500124041316440e+02
5.150717044702011332e-02 7.363503237978006837e+02
5.254771934368549641e-02 7.169473633382060598e+02
5.358826824035087949e-02 6.989737298011826852e+02
5.462881713701626257e-02 6.789785001012320436e+02
5.566936603368164566e-02 6.600596089340282333e+02
5.670991493034702874e-02 6.379631492842630678e+02
5.775046382701241182e-02 6.183688386565050905e+02
5.879101272367779490e-02 6.003625639238272242e+02
5.983156162034317799e-02 5.819535488584988343e+02
6.087211051700856107e-02 5.615242907128748584e+02
6.191265941367394415e-02 5.446023320802602257e+02
6.295320831033933417e-02 5.260093434103442860e+02
6.399375720700471726e-02 5.101302124896940882e+02
6.503430610367010034e-02 4.899698771750178139e+02
6.607485500033548342e-02 4.717772248086124591e+02
6.711540389700086651e-02 4.550429356963670671e+02
6.815595279366624959e-02 4.373145248687152957e+02
6.919650169033163267e-02 4.206944431275596230e+02
7.023705058699701576e-02 4.049120762351352596e+02
7.127759948366239884e-02 3.882586192045301345e+02
7.231814838032778192e-02 3.710529586765185286e+02
7.335869727699316500e-02 3.550079563864991883e+02
7.439924617365854809e-02 3.409687091447621015e+02
7.543979507032393117e-02 3.264284933479293045e+02
7.648034396698931425e-02 3.102649841456150170e+02
7.752089286365469734e-02 2.965030219928577253e+02
7.856144176032008042e-02 2.836392594234228000e+02
7.960199065698546350e-02 2.710498823024153694e+02
8.064253955365084658e-02 2.569360855128096546e+02
8.168308845031622967e-02 2.445370799326449571e+02
8.272363734698161275e-02 2.318039353261827387e+02
8.376418624364699583e-02 2.187627610072279083e+02
8.480473514031239279e-02 2.084476331022621025e+02
8.584528403697777588e-02 1.976170174388726934e+02
8.688583293364315896e-02 1.869056542472318654e+02
8.792638183030854204e-02 1.763701592870886543e+02
8.896693072697392513e-02 1.654495088261994056e+02
9.000747962363930821e-02 1.554485844349184731e+02
9.104802852030469129e-02 1.464107478882063731e+02
9.208857741697007437e-02 1.372392544832402166e+02
9.312912631363545746e-02 1.276829895922350318e+02
9.416967521030084054e-02 1.197114888127834575e+02
9.521022410696622362e-02 1.122349993016985934e+02
9.625077300363160671e-02 1.051263065135384807e+02
9.729132190029698979e-02 9.857332634918562064e+01
9.833187079696237287e-02 9.080477218950059637e+01
9.937241969362775595e-02 8.289490290027467267e+01
1.004129685902931390e-01 7.622292720130712951e+01
1.014535174869585221e-01 7.071233765653630599e+01
1.024940663836239052e-01 6.509971789958203203e+01
1.035346152802892883e-01 5.941596438632207366e+01
1.045751641769546714e-01 5.500913376666453303e+01
1.056157130736200545e-01 5.075150358633980829e+01
1.066562619702854375e-01 4.550472066875546773e+01
1.076968108669508206e-01 4.078228432945604709e+01
1.087373597636162037e-01 3.715521466808881001e+01
1.097779086602815868e-01 3.358455196488407069e+01
1.108184575569469699e-01 3.050650296483452451e+01
1.118590064536123529e-01 2.743357514711557599e+01
1.128995553502777360e-01 2.423200778437234248e+01
1.139401042469431191e-01 2.149152448556298367e+01
1.149806531436085022e-01 1.934640264757041095e+01
1.160212020402738853e-01 1.695071387887560377e+01
1.170617509369392684e-01 1.469925936611961603e+01
1.181022998336046514e-01 1.274102348741516977e+01
1.191428487302700345e-01 1.106288761655590847e+01
1.201833976269354176e-01 9.648523064838204988e+00
1.212239465236008007e-01 8.546415142929479458e+00
1.222644954202661838e-01 7.704503653688242082e+00
1.233050443169315669e-01 6.291972106151892064e+00
1.243455932135969499e-01 5.392218589299620390e+00
1.253861421102623330e-01 4.527549173783913972e+00
1.264266910069277161e-01 3.744977359400991190e+00
1.274672399035930992e-01 3.218127213379265328e+00
1.285077888002584823e-01 2.650706350099643061e+00
1.295483376969238654e-01 2.392865256524874695e+00
1.305888865935892484e-01 2.321164178658630561e+00
1.316294354902546315e-01 2.026109999105944581e+00
1.326699843869200146e-01 1.810897394687813744e+00
1.337105332835853977e-01 1.798651361807689142e+00
1.347510821802507808e-01 1.604728905456887844e+00
1.357916310769161639e-01 1.748631863200255765e+00
1.368321799735815469e-01 2.013234842432453320e+00
1.378727288702469300e-01 2.588293350992806552e+00
1.389132777669123131e-01 2.711374885069943730e+00
1.399538266635776962e-01 2.969821516213638546e+00
1.409943755602430793e-01 3.481591828820580048e+00
1.420349244569084624e-01 3.385434229868881317e+00
1.430754733535738454e-01 3.620417867596700034e+00
1.441160222502392285e-01 3.593335570263391787e+00
1.451565711469046116e-01 4.295932071166550514e+00
1.461971200435699947e-01 5.111019043392538208e+00
1.472376689402353778e-01 5.292609728318588225e+00
1.482782178369007609e-01 5.489589385971981983e+00
1.493187667335661439e-01 5.948153457325382476e+00
1.503593156302315270e-01 6.307652479406396395e+00
1.513998645268969101e-01 6.830388047449634570e+00
1.524404134235622932e-01 7.326844053654710365e+00
1.534809623202276763e-01 7.503982250007261712e+00
1.545215112168930593e-01 7.667871731710448557e+00
1.555620601135584424e-01 8.145407078475212614e+00
1.566026090102238255e-01 8.483481997777779782e+00
1.576431579068892086e-01 8.410734521087700699e+00
1.586837068035545917e-01 8.438809144264606488e+00
1.597242557002199748e-01 8.993225221065344499e+00
1.607648045968853578e-01 8.975926015371342714e+00
1.618053534935507409e-01 9.235287345129865599e+00
1.628459023902161240e-01 9.407405876981666637e+00
1.638864512868815071e-01 9.351210082226316445e+00
1.649270001835468902e-01 9.912250665524151572e+00
1.659675490802122733e-01 1.013757763628665032e+01
1.670080979768776563e-01 9.919151637111500719e+00
1.680486468735430672e-01 9.350214744629923302e+00
1.690891957702084503e-01 9.765772409776001695e+00
1.701297446668738333e-01 1.007168439497814205e+01
1.711702935635392164e-01 9.806677346870415590e+00
1.722108424602045995e-01 9.781638264592739773e+00
1.732513913568699826e-01 9.651037512613751090e+00
1.742919402535353657e-01 9.909509860192518005e+00
1.753324891502007488e-01 1.018462709872768102e+01
1.763730380468661318e-01 9.844312180974366555e+00
1.774135869435315149e-01 9.264698293916143967e+00
1.784541358401968980e-01 9.320701334365669055e+00
1.794946847368622811e-01 9.414042699993149910e+00
1.805352336335276642e-01 8.592890254539600647e+00
1.815757825301930473e-01 8.396445313344102601e+00
1.826163314268584303e-01 8.405985885662619950e+00
1.836568803235238134e-01 7.889333957380678441e+00
1.846974292201891965e-01 7.552312725634713786e+00
1.857379781168545796e-01 7.707022798744731062e+00
1.867785270135199627e-01 7.523069934284905003e+00
1.878190759101853458e-01 7.012184722624972721e+00
1.888596248068507288e-01 6.746300939363084836e+00
1.899001737035161119e-01 6.514456391821553893e+00
1.909407226001814950e-01 6.201825428678851893e+00
1.919812714968468781e-01 5.961068125551214791e+00
1.930218203935122612e-01 5.677048242650620580e+00
1.940623692901776443e-01 5.736467106357146406e+00
1.951029181868430273e-01 5.534841345472290897e+00
1.961434670835084104e-01 5.231620771926305480e+00
1.971840159801737935e-01 4.796520191374877840e+00
1.982245648768391766e-01 4.524760994665612657e+00
1.992651137735045597e-01 4.351133615337552385e+00
2.003056626701699428e-01 4.229281808331585069e+00
2.013462115668353813e-01 3.968885853783351791e+00
2.023867604635007644e-01 3.439420965998319701e+00
2.034273093601661475e-01 3.250696855158388132e+00
2.044678582568315306e-01 2.721986586572654687e+00
2.055084071534969137e-01 2.710109447258872706e+00
2.065489560501622968e-01 2.727405880051250620e+00
2.075895049468276798e-01 2.593574979959829108e+00
2.086300538434930629e-01 2.535390531621693810e+00
2.096706027401584460e-01 2.230058181197229317e+00
2.107111516368238291e-01 2.036143256267092028e+00
2.117517005334892122e-01 1.830076723441493414e+00
2.127922494301545953e-01 1.639128098678579448e+00
2.138327983268199783e-01 1.800486287136518371e+00
2.148733472234853614e-01 1.412187921387669576e+00
2.159138961201507445e-01 1.397877118556149156e+00
2.169544450168161276e-01 1.454419907913401033e+00
2.179949939134815107e-01 1.240417555158906282e+00
2.190355428101468938e-01 9.945320587504511423e-01
2.200760917068122768e-01 9.251720850912583671e-01
2.211166406034776599e-01 8.027583743870501110e-01
2.221571895001430430e-01 7.359242770795439981e-01
2.231977383968084261e-01 9.282648737440695186e-01
2.242382872934738092e-01 8.292155647246275407e-01
2.252788361901391923e-01 9.713434313343363158e-01
2.263193850868045753e-01 9.885589691837282089e-01
2.273599339834699584e-01 6.886801936166975224e-01
2.284004828801353415e-01 6.027592912165395944e-01
2.294410317768007246e-01 5.924822272171574866e-01
2.304815806734661077e-01 8.284130997189080858e-01
2.315221295701314908e-01 7.796142622440775938e-01
2.325626784667968738e-01 6.234560331426770574e-01
2.336032273634622569e-01 7.928489792134669756e-01
2.346437762601276400e-01 1.132870142167270444e+00
2.356843251567930231e-01 9.139236634820768757e-01
2.367248740534584062e-01 9.836286017315778452e-01
2.377654229501237892e-01 1.007089404764013096e+00
2.388059718467891723e-01 1.056842613102926265e+00
2.398465207434545554e-01 9.985514283351051290e-01
2.408870696401199385e-01 8.895156544503706186e-01
2.419276185367853216e-01 9.242810259666889294e-01
2.429681674334507047e-01 1.225990354409972838e+00
2.440087163301160877e-01 1.367155297980868767e+00
2.450492652267814708e-01 1.296100610839964418e+00
2.460898141234468539e-01 1.464861918533841845e+00
2.471303630201122370e-01 1.341178351844067862e+00
2.481709119167776201e-01 1.338762656942297014e+00
2.492114608134430032e-01 1.650762591205058527e+00
2.502520097101083585e-01 1.778913642383184168e+00
2.512925586067737416e-01 1.531590686921013855e+00
2.523331075034391247e-01 1.527824719611409421e+00
2.533736564001045077e-01 1.568942486539501857e+00
2.544142052967698908e-01 1.541301683511022702e+00
2.554547541934352739e-01 1.650547892281764462e+00
2.564953030901006570e-01 1.799263518013638929e+00
2.575358519867660401e-01 1.732048000926774023e+00
2.585764008834314231e-01 1.467039916606513117e+00
2.596169497800968062e-01 1.626997961511182922e+00
2.606574986767621893e-01 1.696365483857967149e+00
2.616980475734275724e-01 1.650940553062451244e+00
2.627385964700929555e-01 1.836978488093581774e+00
2.637791453667583386e-01 2.003870666677634915e+00
2.648196942634237216e-01 1.926842754970277127e+00
2.658602431600891047e-01 1.916679547394352312e+00
2.669007920567544878e-01 1.752854114546472886e+00
2.679413409534198709e-01 1.707710309497954881e+00
2.689818898500852540e-01 1.755704591974303952e+00
2.700224387467506371e-01 1.580791716843528150e+00
2.710629876434160201e-01 1.713345632047087008e+00
2.721035365400814032e-01 1.561278450127225881e+00
2.731440854367467863e-01 1.379716622924050284e+00
2.741846343334121694e-01 1.630444856437637924e+00
2.752251832300775525e-01 1.459149295252547773e+00
2.762657321267429356e-01 1.354020906035437122e+00
2.773062810234083186e-01 1.398757858471427085e+00
2.783468299200737017e-01 1.500963478668435158e+00
2.793873788167390848e-01 1.404545569633668833e+00
2.804279277134044679e-01 1.199758556915007546e+00
2.814684766100698510e-01 1.581296826248227205e+00
2.825090255067352341e-01 1.826723533818181977e+00
2.835495744034006171e-01 1.605660789342000072e+00
2.845901233000660002e-01 1.371707240708545328e+00
2.856306721967313833e-01 1.294825693913196574e+00
2.866712210933967664e-01 1.247556930378198814e+00
2.877117699900621495e-01 1.057701335122263941e+00
2.887523188867275326e-01 1.066256886918221625e+00
2.897928677833929156e-01 1.341467918890003830e+00
2.908334166800582987e-01 1.046793134842943118e+00
2.918739655767236818e-01 8.785374319334451343e-01
2.929145144733890649e-01 1.234229194425285669e+00
2.939550633700544480e-01 1.240109881652564638e+00
2.949956122667198311e-01 8.714613919071645398e-01
2.960361611633852141e-01 8.917715245382744627e-01
2.970767100600505972e-01 1.027657995726329432e+00
2.981172589567159803e-01 1.100892128439614481e+00
2.991578078533813634e-01 1.029303334391638458e+00
3.001983567500468020e-01 9.768451799122637169e-01
3.012389056467121851e-01 7.587592178331448167e-01
3.022794545433775681e-01 5.515128107602684793e-01
3.033200034400429512e-01 4.582988383797292897e-01
3.043605523367083343e-01 6.126721461571271732e-01
3.054011012333737174e-01 6.167255231553845363e-01
3.064416501300391005e-01 5.455529426866370102e-01
3.074821990267044836e-01 6.085352235411001232e-01
3.085227479233698666e-01 6.398238219610874467e-01
3.095632968200352497e-01 3.565831417459826014e-01
3.106038457167006328e-01 2.875789488320030785e-01
3.116443946133660159e-01 5.292217041287230472e-01
3.126849435100313990e-01 5.941782723237309938e-01
3.137254924066967821e-01 4.746645752131080087e-01
3.147660413033621651e-01 4.913917827525580151e-01
3.158065902000275482e-01 4.547439519506895067e-01
3.168471390966929313e-01 3.875398180677755988e-01
3.178876879933583144e-01 3.401006627116132108e-01
3.189282368900236975e-01 3.342741890517864078e-01
3.199687857866890806e-01 2.935095376379734944e-01
3.210093346833544636e-01 4.620301276609666274e-01
3.220498835800198467e-01 6.213564998823706276e-01
3.230904324766852298e-01 6.950897921986758377e-01
3.241309813733506129e-01 6.327439740043132588e-01
3.251715302700159960e-01 5.990452093154026159e-01
3.262120791666813790e-01 5.428619339718494530e-01
3.272526280633467621e-01 3.562728026953401184e-01
3.282931769600121452e-01 2.698207982281211059e-01
3.293337258566775283e-01 4.405077934988455013e-01
3.303742747533429114e-01 4.902766298978207260e-01
3.314148236500082945e-01 3.942288365105781622e-01
3.324553725466736775e-01 4.063615366039812216e-01
3.334959214433390606e-01 4.089556854474913905e-01
3.345364703400044437e-01 5.826097511777774685e-01
3.355770192366698268e-01 7.244131219181646486e-01
3.366175681333352099e-01 6.269182012571583584e-01
3.376581170300005930e-01 5.729428096059479003e-01
3.386986659266659760e-01 4.113479840237630469e-01
3.397392148233313591e-01 3.948606163920409529e-01
3.407797637199967422e-01 4.981164990434869821e-01
3.418203126166621253e-01 4.947527240762923384e-01
3.428608615133275084e-01 6.044064568112048619e-01
3.439014104099928915e-01 7.481118087010365514e-01
3.449419593066582745e-01 7.080730034620614788e-01
3.459825082033236576e-01 7.316555148805257147e-01
3.470230570999890407e-01 6.806107983587708077e-01
3.480636059966544238e-01 6.091823304289647467e-01
3.491041548933198069e-01 7.643096357737171331e-01
3.501447037899851900e-01 5.963652269693078267e-01
3.511852526866505730e-01 5.335013393421235151e-01
3.522258015833159561e-01 6.727067146735343783e-01
3.532663504799813392e-01 6.722519556160975185e-01
3.543068993766467223e-01 7.045400819658489411e-01
3.553474482733121054e-01 3.952282780042857269e-01
3.563879971699774885e-01 3.907374759918695872e-01
3.574285460666428715e-01 5.161237193219037067e-01
3.584690949633082546e-01 3.813517852681513887e-01
3.595096438599736377e-01 3.907196949909312877e-01
3.605501927566390208e-01 5.156224243995630729e-01
3.615907416533044039e-01 7.351341021978505808e-01
3.626312905499697870e-01 6.248908153543872857e-01
3.636718394466351700e-01 6.631981568731255550e-01
3.647123883433005531e-01 7.034448694136621327e-01
3.657529372399659362e-01 6.906127734955447295e-01
3.667934861366313193e-01 7.330370480917309806e-01
3.678340350332967024e-01 7.151574990276330368e-01
3.688745839299620854e-01 7.817281630670507298e-01
3.699151328266274685e-01 8.416352656508472307e-01
3.709556817232928516e-01 7.285829575368474309e-01
3.719962306199582347e-01 5.435247925752726417e-01
3.730367795166236178e-01 5.964122505448159473e-01
3.740773284132890009e-01 6.952284474603693809e-01
3.751178773099543839e-01 5.847475507157646746e-01
3.761584262066197670e-01 3.199065862834622465e-01
3.771989751032851501e-01 3.509811747640192436e-01
3.782395239999505332e-01 4.182299342845645640e-01
3.792800728966159163e-01 4.895400742937887628e-01
3.803206217932812994e-01 4.132801978003435295e-01
3.813611706899466824e-01 2.918073981485918011e-01
3.824017195866120655e-01 4.594325106721335317e-01
3.834422684832774486e-01 4.948696146708435606e-01
3.844828173799428317e-01 4.199192071397810366e-01
3.855233662766082148e-01 2.047374530305106077e-01
3.865639151732735979e-01 4.892661302016669822e-01
3.876044640699389809e-01 3.683154230421372688e-01
3.886450129666043640e-01 2.652215263534500878e-01
3.896855618632697471e-01 3.118220007764307411e-01
3.907261107599351302e-01 1.911380346046094303e-01
3.917666596566005133e-01 4.049246336028922144e-01
3.928072085532658964e-01 4.567224640512641543e-01
3.938477574499312794e-01 3.245512457874113466e-01
3.948883063465966625e-01 1.702503274199784755e-02
3.959288552432620456e-01 2.243456605875664422e-01
3.969694041399274287e-01 3.539993077656653497e-01
3.980099530365928118e-01 5.449638071045228571e-01
3.990505019332581949e-01 5.497051497408342868e-01
4.000910508299235779e-01 4.037103190655848550e-01
4.011315997265889610e-01 2.957899633435729925e-01
4.021721486232543441e-01 2.579280108954726813e-01
4.032126975199197272e-01 1.359032040175769396e-01
4.042532464165851103e-01 1.102342894768426618e-02
4.052937953132504934e-01 1.704288489187781863e-01
4.063343442099158764e-01 2.873832908156579435e-01
4.073748931065812595e-01 4.057417892571173468e-01
4.084154420032466426e-01 1.667682817307536425e-01
4.094559908999120257e-01 1.392451070893478970e-01
4.104965397965774088e-01 2.519559316365160839e-01
4.115370886932427918e-01 2.474128423070283134e-01
4.125776375899081749e-01 3.588394625487083545e-01
4.136181864865735580e-01 4.360105903897313340e-01
4.146587353832389411e-01 3.607887095962638568e-01
4.156992842799043242e-01 3.283145594038856530e-01
4.167398331765697073e-01 4.468236484196914660e-01
4.177803820732350903e-01 3.749540296376316917e-01
4.188209309699004734e-01 2.819641400315759938e-01
4.198614798665658565e-01 1.513794492491022936e-01
4.209020287632312396e-01 3.610370026157987411e-01
4.219425776598966227e-01 3.870989945004197352e-01
4.229831265565620058e-01 3.081065832376168601e-01
4.240236754532273888e-01 4.690023892477697132e-01
4.250642243498927719e-01 6.430068393662686788e-01
4.261047732465581550e-01 4.360863030456414435e-01
4.271453221432235381e-01 4.314298031268428701e-01
4.281858710398889212e-01 2.659391638163199900e-01
4.292264199365543043e-01 3.310179283078333867e-01
4.302669688332196873e-01 2.652774041091454649e-01
4.313075177298850704e-01 3.381770615464638752e-01
4.323480666265504535e-01 3.841744053090003774e-01
4.333886155232158366e-01 1.913135208675491583e-01
4.344291644198812197e-01 3.197372401761562344e-01
