# q (1/Angstrom), Intensity (arb)
2.029070354705860696e-02 1.247099703075930847e+03
2.133125244372399004e-02 1.240831139180798800e+03
2.237180134038937659e-02 1.236581447475957248e+03
2.341235023705475968e-02 1.226961231081832693e+03
2.445289913372014276e-02 1.219378521026139651e+03
2.549344803038552584e-02 1.216407720627300932e+03
2.653399692705091240e-02 1.202322729034520762e+03
2.757454582371629548e-02 1.184472938768559516e+03
2.861509472038167856e-02 1.173020428755031844e+03
2.965564361704706164e-02 1.159695613868790360e+03
3.069619251371244473e-02 1.140196480878666989e+03
3.173674141037782781e-02 1.124256065825423548e+03
3.277729030704321089e-02 1.108373740070514486e+03
3.381783920370859398e-02 1.089800156332099505e+03
3.485838810037397706e-02 1.072938916457188043e+03
3.589893699703936014e-02 1.059869868245576754e+03
3.693948589370474322e-02 1.044003311340914479e+03
3.798003479037012631e-02 1.021838319900522720e+03
3.902058368703550939e-02 1.001345592567684662e+03
4.006113258370089247e-02 9.775710744026055181e+02
4.110168148036627556e-02 9.634481404438183745e+02
4.214223037703165864e-02 9.457704731924019370e+02
4.318277927369704866e-02 9.267495475539006975e+02
4.422332817036243174e-02 9.042521843917911610e+02
4.526387706702781483e-02 8.842347829300047124e+02
4.630442596369319791e-02 8.626579029775873551e+02
4.734497486035858099e-02 8.453446852065901567e+02
4.838552375702396408e-02 8.270045358935498143e+02
4.942607265368934716e-02 8.077509311095948306e+02
5.046662155035473024e-02 7.838876721757457062e+02
5.150717044702011332e-02 7.625903826326249373e+02
5.254771934368549641e-02 7.399028035175364266e+02
5.358826824035087949e-02 7.172000899480119642e+02
5.462881713701626257e-02 6.981801113058963892e+02
5.566936603368164566e-02 6.803093445972143627e+02
5.670991493034702874e-02 6.624751766556735220e+02
5.775046382701241182e-02 6.432138971042810454e+02
5.879101272367779490e-02 6.217408305618264421e+02
5.983156162034317799e-02 6.033635007690339762e+02
6.087211051700856107e-02 5.884594239662287691e+02
6.191265941367394415e-02 5.665324839116442490e+02
6.295320831033933417e-02 5.441695028794630389e+02
6.399375720700471726e-02 5.258482135336822694e+02
6.503430610367010034e-02 5.085080612726990807e+02
6.607485500033548342e-02 4.901905466058997831e+02
6.711540389700086651e-02 4.731215266096467644e+02
6.815595279366624959e-02 4.554137988432212296e+02
6.919650169033163267e-02 4.394102727729792264e+02
7.023705058699701576e-02 4.210514628359063636e+02
7.127759948366239884e-02 4.019892108784166567e+02
7.231814838032778192e-02 3.845267338800455263e+02
7.335869727699316500e-02 3.697911466799463369e+02
7.439924617365854809e-02 3.547323782961888696e+02
7.543979507032393117e-02 3.391582399439612345e+02
7.648034396698931425e-02 3.235810223585310723e+02
7.752089286365469734e-02 3.085462076783704219e+02
7.856144176032008042e-02 2.940268162761403232e+02
7.960199065698546350e-02 2.809893479594204564e+02
8.064253955365084658e-02 2.665714744110758829e+02
8.168308845031622967e-02 2.541215899842900114e+02
8.272363734698161275e-02 2.419419043549667663e+02
8.376418624364699583e-02 2.286027238335420293e+02
8.480473514031239279e-02 2.169388052692700626e+02
8.584528403697777588e-02 2.057926287962232834e+02
8.688583293364315896e-02 1.956268977898747892e+02
8.792638183030854204e-02 1.841484824024763327e+02
8.896693072697392513e-02 1.726187187499540414e+02
9.000747962363930821e-02 1.630564069703807775e+02
9.104802852030469129e-02 1.535045019290254231e+02
9.208857741697007437e-02 1.447065962245413004e+02
9.312912631363545746e-02 1.364833405459236531e+02
9.416967521030084054e-02 1.274716539722317208e+02
9.521022410696622362e-02 1.183858246558182827e+02
9.625077300363160671e-02 1.092569019499762248e+02
9.729132190029698979e-02 1.009229848416807016e+02
9.833187079696237287e-02 9.420711967637876683e+01
9.937241969362775595e-02 8.671753711552943855e+01
1.004129685902931390e-01 8.012518899955320251e+01
1.014535174869585221e-01 7.395953303169970638e+01
1.024940663836239052e-01 6.793480141954995588e+01
1.035346152802892883e-01 6.298957614315045817e+01
1.045751641769546714e-01 5.777166167651525086e+01
1.056157130736200545e-01 5.306146956641745049e+01
1.066562619702854375e-01 4.820017121307028418e+01
1.076968108669508206e-01 4.364946525897271812e+01
1.087373597636162037e-01 3.964566956680634036e+01
1.097779086602815868e-01 3.530583215836333011e+01
1.108184575569469699e-01 3.125534849709719509e+01
1.118590064536123529e-01 2.849905347509744047e+01
1.128995553502777360e-01 2.521391887898922590e+01
1.139401042469431191e-01 2.198454365152903733e+01
1.149806531436085022e-01 1.957764224709632828e+01
1.160212020402738853e-01 1.720497970949942257e+01
1.170617509369392684e-01 1.556584178287722864e+01
1.181022998336046514e-01 1.386385611640841731e+01
1.191428487302700345e-01 1.191033916916731172e+01
1.201833976269354176e-01 1.020451516595890951e+01
1.212239465236008007e-01 8.744092834832919436e+00
1.222644954202661838e-01 7.291860553835782355e+00
1.233050443169315669e-01 6.433274714755370383e+00
1.243455932135969499e-01 5.594791758851346941e+00
1.253861421102623330e-01 4.913151511823958373e+00
1.264266910069277161e-01 4.174598203938071350e+00
1.274672399035930992e-01 3.600397800791125036e+00
1.285077888002584823e-01 3.419021527772375890e+00
1.295483376969238654e-01 2.908155074229583192e+00
1.305888865935892484e-01 2.092848789667346665e+00
1.316294354902546315e-01 2.407254877175173391e+00
1.326699843869200146e-01 2.656228072392465833e+00
1.337105332835853977e-01 2.456591770105490014e+00
1.347510821802507808e-01 1.955389759146662243e+00
1.357916310769161639e-01 2.030324862779270489e+00
1.368321799735815469e-01 2.476132610923393429e+00
1.378727288702469300e-01 2.563833720775072322e+00
1.389132777669123131e-01 2.728362526819875455e+00
1.399538266635776962e-01 2.954439235938934871e+00
1.409943755602430793e-01 3.271136260240275817e+00
1.420349244569084624e-01 3.728551928536631976e+00
1.430754733535738454e-01 3.915401683781698949e+00
1.441160222502392285e-01 4.187725213440547378e+00
1.451565711469046116e-01 4.971607467517259238e+00
1.461971200435699947e-01 5.240128057509735982e+00
1.472376689402353778e-01 5.421088010288890757e+00
1.482782178369007609e-01 5.819551849879676553e+00
1.493187667335661439e-01 6.069248085168617024e+00
1.503593156302315270e-01 6.313999236915279312e+00
1.513998645268969101e-01 6.814084648379932219e+00
1.524404134235622932e-01 7.165922457952657254e+00
1.534809623202276763e-01 7.751265873076032875e+00
1.545215112168930593e-01 8.149457008043487605e+00
1.555620601135584424e-01 8.421360014190788945e+00
1.566026090102238255e-01 8.816180837267918236e+00
1.576431579068892086e-01 8.882624966344799589e+00
1.586837068035545917e-01 9.418162104562437520e+00
1.597242557002199748e-01 9.564977591261957457e+00
1.607648045968853578e-01 9.240107654201455745e+00
1.618053534935507409e-01 9.787363839589193759e+00
1.628459023902161240e-01 9.913308298430472121e+00
1.638864512868815071e-01 9.769981447978572930e+00
1.649270001835468902e-01 1.010022749892686633e+01
1.659675490802122733e-01 1.017554233981196532e+01
1.670080979768776563e-01 1.035092331856037617e+01
1.680486468735430672e-01 1.044064417140691603e+01
1.690891957702084503e-01 1.047532480276233358e+01
1.701297446668738333e-01 1.046774719300081813e+01
1.711702935635392164e-01 1.023129862245863464e+01
1.722108424602045995e-01 1.019512751413642349e+01
1.732513913568699826e-01 1.021031031095765584e+01
1.742919402535353657e-01 1.006597531402811185e+01
1.753324891502007488e-01 9.958412429539897914e+00
1.763730380468661318e-01 9.808372896515383133e+00
1.774135869435315149e-01 9.676273931944475493e+00
1.784541358401968980e-01 9.773753718376607225e+00
1.794946847368622811e-01 9.372899044844849925e+00
1.805352336335276642e-01 9.063703026298298937e+00
1.815757825301930473e-01 8.790179456504453981e+00
1.826163314268584303e-01 8.656077922761419075e+00
1.836568803235238134e-01 8.275315728273483273e+00
1.846974292201891965e-01 7.845068116507732725e+00
1.857379781168545796e-01 7.758923421208134386e+00
1.867785270135199627e-01 7.651238666921290843e+00
1.878190759101853458e-01 7.395418540469364643e+00
1.888596248068507288e-01 7.137073386539736219e+00
1.899001737035161119e-01 6.858015185954446480e+00
1.909407226001814950e-01 6.598429800514921340e+00
1.919812714968468781e-01 6.430143162443858529e+00
1.930218203935122612e-01 6.024433185194556728e+00
1.940623692901776443e-01 5.757918414731047818e+00
1.951029181868430273e-01 5.314302174990135796e+00
1.961434670835084104e-01 5.107290848176106124e+00
1.971840159801737935e-01 5.219929606751406936e+00
1.982245648768391766e-01 5.008741245470993420e+00
1.992651137735045597e-01 4.412006203994561560e+00
2.003056626701699428e-01 4.308571751452483056e+00
2.013462115668353813e-01 4.002467405515087506e+00
2.023867604635007644e-01 3.845684369562540894e+00
2.034273093601661475e-01 3.738350783972947511e+00
2.044678582568315306e-01 3.215556522690562247e+00
2.055084071534969137e-01 2.816995070895618625e+00
2.065489560501622968e-01 2.916896869571530715e+00
2.075895049468276798e-01 2.444705693485669684e+00
2.086300538434930629e-01 2.232607583823646991e+00
2.096706027401584460e-01 2.079667596810303110e+00
2.107111516368238291e-01 1.787405979171900583e+00
2.117517005334892122e-01 1.645562715008402677e+00
2.127922494301545953e-01 1.773153511794248516e+00
2.138327983268199783e-01 1.717965288062067941e+00
2.148733472234853614e-01 1.567858663993128232e+00
2.159138961201507445e-01 1.390769225500307016e+00
2.169544450168161276e-01 1.154575166414030463e+00
2.179949939134815107e-01 1.118381618648189857e+00
2.190355428101468938e-01 9.144727444930467186e-01
2.200760917068122768e-01 1.137946713380735275e+00
2.211166406034776599e-01 1.011440036059980230e+00
2.221571895001430430e-01 8.783072508001730228e-01
2.231977383968084261e-01 8.585149691498799029e-01
2.242382872934738092e-01 7.681699620968878151e-01
2.252788361901391923e-01 9.851271458997885588e-01
2.263193850868045753e-01 6.067441134829074656e-01
2.273599339834699584e-01 5.799215402910462558e-01
2.284004828801353415e-01 8.025668310823803608e-01
2.294410317768007246e-01 6.882185810479342081e-01
2.304815806734661077e-01 6.725558545234129326e-01
2.315221295701314908e-01 8.691611098893723408e-01
2.325626784667968738e-01 7.867282695310642282e-01
2.336032273634622569e-01 8.781839371130431005e-01
2.346437762601276400e-01 9.056322624103039232e-01
2.356843251567930231e-01 8.332567160673072237e-01
2.367248740534584062e-01 9.277898842944729552e-01
2.377654229501237892e-01 1.123104840364156587e+00
2.388059718467891723e-01 1.267231094905355349e+00
2.398465207434545554e-01 1.148043977967915907e+00
2.408870696401199385e-01 8.993567612462562977e-01
2.419276185367853216e-01 9.670524227502426129e-01
2.429681674334507047e-01 1.140586636856475877e+00
2.440087163301160877e-01 1.265129492453880289e+00
2.450492652267814708e-01 1.449632652580461922e+00
2.460898141234468539e-01 1.256495506671903684e+00
2.471303630201122370e-01 1.369335844164421445e+00
2.481709119167776201e-01 1.524707315382205053e+00
2.492114608134430032e-01 1.541998484231644539e+00
2.502520097101083585e-01 1.400219986572594166e+00
2.512925586067737416e-01 1.481140509900665592e+00
2.523331075034391247e-01 1.558974996686860237e+00
2.533736564001045077e-01 1.598874395208031984e+00
2.544142052967698908e-01 1.698277332243975479e+00
2.554547541934352739e-01 1.797614217318198371e+00
2.564953030901006570e-01 1.723132104788106744e+00
2.575358519867660401e-01 1.546692958142681817e+00
2.585764008834314231e-01 1.647853051673870084e+00
2.596169497800968062e-01 1.833859492332987173e+00
2.606574986767621893e-01 1.636198965469173316e+00
2.616980475734275724e-01 1.877000434756169511e+00
2.627385964700929555e-01 1.743084650173848615e+00
2.637791453667583386e-01 1.855810552264550495e+00
2.648196942634237216e-01 1.902328763444497639e+00
2.658602431600891047e-01 1.880853527228019573e+00
2.669007920567544878e-01 1.706731444423013500e+00
2.679413409534198709e-01 1.803431434615504259e+00
2.689818898500852540e-01 1.928762535864297689e+00
2.700224387467506371e-01 1.752143289712044805e+00
2.710629876434160201e-01 1.684377600979388490e+00
2.721035365400814032e-01 1.663696753732004652e+00
2.731440854367467863e-01 1.882389408173885670e+00
2.741846343334121694e-01 1.898227955382981946e+00
2.752251832300775525e-01 2.002286725345978624e+00
2.762657321267429356e-01 1.846410507492365127e+00
2.773062810234083186e-01 1.782507057050203514e+00
2.783468299200737017e-01 1.857497176117018256e+00
2.793873788167390848e-01 1.710904720866555095e+00
2.804279277134044679e-01 1.781374865181728495e+00
2.814684766100698510e-01 1.686539487977100293e+00
2.825090255067352341e-01 1.792189337415972972e+00
2.835495744034006171e-01 1.816847126364883991e+00
2.845901233000660002e-01 1.458042830784687993e+00
2.856306721967313833e-01 1.636343502686273155e+00
2.866712210933967664e-01 1.798475537396733159e+00
2.877117699900621495e-01 1.559383013976521681e+00
2.887523188867275326e-01 1.573655490186482098e+00
2.897928677833929156e-01 1.409960477830715320e+00
2.908334166800582987e-01 1.301986385332828178e+00
2.918739655767236818e-01 1.364622234599170980e+00
2.929145144733890649e-01 1.327583167245013129e+00
2.939550633700544480e-01 1.304981843991956936e+00
2.949956122667198311e-01 1.264435527726671893e+00
2.960361611633852141e-01 1.182036975815549340e+00
2.970767100600505972e-01 1.120912278982029164e+00
2.981172589567159803e-01 1.249948801500575968e+00
2.991578078533813634e-01 1.186009733952989365e+00
3.001983567500468020e-01 9.179484803529796011e-01
3.012389056467121851e-01 8.664481277727063002e-01
3.022794545433775681e-01 8.107125373222991982e-01
3.033200034400429512e-01 6.941132488025729685e-01
3.043605523367083343e-01 6.967311628492787179e-01
3.054011012333737174e-01 8.277807685150087025e-01
3.064416501300391005e-01 8.482311921123226739e-01
3.074821990267044836e-01 7.139898912355882032e-01
3.085227479233698666e-01 5.944437702895015718e-01
3.095632968200352497e-01 6.826012993163139697e-01
3.106038457167006328e-01 5.532155655568686825e-01
3.116443946133660159e-01 4.505013100747561339e-01
3.126849435100313990e-01 4.764820161131524401e-01
3.137254924066967821e-01 5.798182385270109762e-01
3.147660413033621651e-01 6.589182186868356439e-01
3.158065902000275482e-01 5.525002346693312916e-01
3.168471390966929313e-01 4.575058695066225312e-01
3.178876879933583144e-01 4.684505581970022092e-01
3.189282368900236975e-01 6.394539370350855734e-01
3.199687857866890806e-01 5.409448266530283433e-01
3.210093346833544636e-01 4.891782091511842623e-01
3.220498835800198467e-01 5.651647835868445213e-01
3.230904324766852298e-01 5.826163016290948349e-01
3.241309813733506129e-01 4.603507944557669873e-01
3.251715302700159960e-01 4.440166114652548401e-01
3.262120791666813790e-01 2.688656645205007578e-01
3.272526280633467621e-01 3.272204227596873238e-01
3.282931769600121452e-01 5.270000426619638745e-01
3.293337258566775283e-01 5.952630629859605449e-01
3.303742747533429114e-01 5.461107774250670843e-01
3.314148236500082945e-01 5.743455173088705124e-01
3.324553725466736775e-01 6.113727334001097802e-01
3.334959214433390606e-01 4.304868381057396221e-01
3.345364703400044437e-01 4.967593161127972223e-01
3.355770192366698268e-01 5.613283217707412120e-01
3.366175681333352099e-01 6.903583961618124931e-01
3.376581170300005930e-01 6.262396354548478428e-01
3.386986659266659760e-01 5.942699221367035989e-01
3.397392148233313591e-01 4.842875681483143069e-01
3.407797637199967422e-01 3.630637321790821659e-01
3.418203126166621253e-01 5.353919609285888725e-01
3.428608615133275084e-01 7.942984847265108783e-01
3.439014104099928915e-01 7.795414820099146880e-01
3.449419593066582745e-01 5.840338528143931285e-01
3.459825082033236576e-01 5.568681341912409266e-01
3.470230570999890407e-01 6.750953464050759578e-01
3.480636059966544238e-01 6.878842325936851410e-01
3.491041548933198069e-01 5.205378955827200116e-01
3.501447037899851900e-01 5.769344687324675647e-01
3.511852526866505730e-01 7.131475188946119204e-01
3.522258015833159561e-01 4.543606356666387569e-01
3.532663504799813392e-01 5.117307151712182645e-01
3.543068993766467223e-01 7.531581647495571019e-01
3.553474482733121054e-01 6.882541704663509563e-01
3.563879971699774885e-01 7.333657466424483573e-01
3.574285460666428715e-01 7.159349567357153887e-01
3.584690949633082546e-01 6.251069250690086676e-01
3.595096438599736377e-01 5.890539610310092655e-01
3.605501927566390208e-01 7.399560205645379085e-01
3.615907416533044039e-01 6.842370229342655819e-01
3.626312905499697870e-01 7.643327678898224065e-01
3.636718394466351700e-01 8.507414948320004555e-01
3.647123883433005531e-01 6.614074213817389136e-01
3.657529372399659362e-01 6.975232714090147113e-01
3.667934861366313193e-01 8.026229483642595142e-01
3.678340350332967024e-01 7.513506993602447892e-01
3.688745839299620854e-01 8.028548617184263492e-01
3.699151328266274685e-01 9.544879953582032783e-01
3.709556817232928516e-01 7.138703979887530693e-01
3.719962306199582347e-01 9.194439568358312442e-01
3.730367795166236178e-01 8.762388706157722140e-01
3.740773284132890009e-01 6.433632155231236993e-01
3.751178773099543839e-01 5.053327033651946465e-01
3.761584262066197670e-01 4.333747571121548958e-01
3.771989751032851501e-01 6.324960690947278863e-01
3.782395239999505332e-01 5.652807165437998549e-01
3.792800728966159163e-01 5.264028443988237882e-01
3.803206217932812994e-01 5.515397917888407164e-01
3.813611706899466824e-01 3.627835094620870393e-01
3.824017195866120655e-01 5.142301358801617539e-01
3.834422684832774486e-01 6.020537651849409144e-01
3.844828173799428317e-01 5.904667676291808220e-01
3.855233662766082148e-01 6.801826267406028137e-01
3.865639151732735979e-01 5.874356410843049048e-01
3.876044640699389809e-01 5.722478551902732136e-01
3.886450129666043640e-01 4.642364963936138622e-01
3.896855618632697471e-01 4.368909352175762706e-01
3.907261107599351302e-01 5.299055437202611074e-01
3.917666596566005133e-01 5.165350852015144767e-01
3.928072085532658964e-01 6.333886408201330198e-01
3.938477574499312794e-01 4.615809359675075996e-01
3.948883063465966625e-01 5.158530134720749061e-01
3.959288552432620456e-01 4.236893426628896009e-01
3.969694041399274287e-01 4.834006691850483151e-01
3.980099530365928118e-01 4.996453363927351177e-01
3.990505019332581949e-01 3.966525623155483515e-01
4.000910508299235779e-01 2.904419823557198299e-01
4.011315997265889610e-01 2.925741362992795302e-01
4.021721486232543441e-01 2.030302454073407148e-01
4.032126975199197272e-01 2.919075218173219355e-01
4.042532464165851103e-01 3.300375681287910368e-01
4.052937953132504934e-01 2.785774004247798530e-01
4.063343442099158764e-01 3.872414343082475341e-01
4.073748931065812595e-01 3.182257748591794666e-01
4.084154420032466426e-01 3.115639062018544791e-01
4.094559908999120257e-01 3.048895643221740670e-01
4.104965397965774088e-01 3.453886415159210799e-01
4.115370886932427918e-01 2.361726543200788342e-01
4.125776375899081749e-01 1.588702434003472774e-01
4.136181864865735580e-01 4.060307090580650424e-01
4.146587353832389411e-01 4.739603671744632152e-01
4.156992842799043242e-01 3.409067348161229916e-01
4.167398331765697073e-01 3.349188398347706652e-01
4.177803820732350903e-01 3.832613214354800846e-01
4.188209309699004734e-01 4.030787982476802256e-01
4.198614798665658565e-01 5.008157181930243951e-01
4.209020287632312396e-01 3.231839188682954500e-01
4.219425776598966227e-01 3.476080850665042021e-01
4.229831265565620058e-01 3.135679636346360155e-01
4.240236754532273888e-01 3.568411294355691155e-01
4.250642243498927719e-01 3.510280482546299652e-01
4.261047732465581550e-01 4.570889202874148793e-01
4.271453221432235381e-01 4.620787631115597094e-01
4.281858710398889212e-01 3.333053675545336603e-01
4.292264199365543043e-01 3.574150619431364362e-01
4.302669688332196873e-01 4.056564659225649905e-01
4.313075177298850704e-01 5.174538730656408347e-01
4.323480666265504535e-01 4.750398532395685436e-01
4.333886155232158366e-01 6.101708469131814638e-01
4.344291644198812197e-01 7.256789246095429746e-01
