# q (1/Angstrom), Intensity (arb)
2.029070354705860696e-02 1.776356839400250465e-15
2.133125244372399004e-02 1.654682295758087562e+00
2.237180134038937659e-02 2.858260971861393607e+00
2.341235023705475968e-02 3.748111055732203489e+00
2.445289913372014276e-02 4.569488679165162992e+00
2.549344803038552584e-02 5.363146319984472221e+00
2.653399692705091240e-02 5.885859296912273386e+00
2.757454582371629548e-02 6.162304645777697765e+00
2.861509472038167856e-02 6.800011441735271944e+00
2.965564361704706164e-02 7.171216257861323662e+00
3.069619251371244473e-02 7.474542208674363586e+00
3.173674141037782781e-02 7.786052164811406051e+00
3.277729030704321089e-02 8.059880688676292593e+00
3.381783920370859398e-02 7.955285548405996110e+00
3.485838810037397706e-02 8.057587555778248145e+00
3.589893699703936014e-02 8.099545186823513987e+00
3.693948589370474322e-02 8.112517281818050208e+00
3.798003479037012631e-02 8.351367878408705536e+00
3.902058368703550939e-02 8.496127178965641846e+00
4.006113258370089247e-02 8.391809563049898557e+00
4.110168148036627556e-02 8.415409521243367053e+00
4.214223037703165864e-02 8.697693566588606373e+00
4.318277927369704866e-02 8.574015986396069877e+00
4.422332817036243174e-02 8.618246886095421999e+00
4.526387706702781483e-02 8.602107531347030545e+00
4.630442596369319791e-02 8.639675447672098940e+00
4.734497486035858099e-02 8.734518095562426865e+00
4.838552375702396408e-02 8.823506954067134700e+00
4.942607265368934716e-02 8.833135968468372567e+00
5.046662155035473024e-02 8.712760591719003855e+00
5.150717044702011332e-02 8.591653314343274062e+00
5.254771934368549641e-02 8.700525234369827388e+00
5.358826824035087949e-02 8.785940791819042417e+00
5.462881713701626257e-02 8.777678677693653952e+00
5.566936603368164566e-02 8.786134349926108200e+00
5.670991493034702874e-02 8.710679716503403114e+00
5.775046382701241182e-02 8.615969940782747472e+00
5.879101272367779490e-02 8.596473087055182205e+00
5.983156162034317799e-02 8.653334425448049316e+00
6.087211051700856107e-02 8.599659214442493038e+00
6.191265941367394415e-02 8.740912693253941157e+00
6.295320831033933417e-02 8.769392827176897498e+00
6.399375720700471726e-02 8.682648317610080824e+00
6.503430610367010034e-02 8.699797660462994742e+00
6.607485500033548342e-02 8.719696421904572503e+00
6.711540389700086651e-02 8.731101402938065803e+00
6.815595279366624959e-02 8.675445089987640301e+00
6.919650169033163267e-02 8.791241568708130671e+00
7.023705058699701576e-02 8.707037152295544757e+00
7.127759948366239884e-02 8.810807926690181091e+00
7.231814838032778192e-02 8.755986965989967175e+00
7.335869727699316500e-02 8.779236697005877943e+00
7.439924617365854809e-02 8.861353598129905862e+00
7.543979507032393117e-02 8.808471181670791239e+00
7.648034396698931425e-02 8.764494079652017433e+00
7.752089286365469734e-02 8.820255403067729816e+00
7.856144176032008042e-02 8.867860160395640179e+00
7.960199065698546350e-02 8.834408940553002410e+00
8.064253955365084658e-02 8.830861707899058999e+00
8.168308845031622967e-02 8.803093661469208797e+00
8.272363734698161275e-02 8.772410116708957872e+00
8.376418624364699583e-02 8.853431898850761428e+00
8.480473514031239279e-02 8.785708982388097610e+00
8.584528403697777588e-02 8.878071740393238542e+00
8.688583293364315896e-02 8.767375449929382114e+00
8.792638183030854204e-02 8.764730069434477855e+00
8.896693072697392513e-02 8.774243589016830214e+00
9.000747962363930821e-02 8.830258555265945830e+00
9.104802852030469129e-02 8.858179254094212141e+00
9.208857741697007437e-02 8.784735667819886018e+00
9.312912631363545746e-02 8.848759401911257427e+00
9.416967521030084054e-02 8.822286994754596989e+00
9.521022410696622362e-02 8.912472760015234030e+00
9.625077300363160671e-02 8.803729153214336023e+00
9.729132190029698979e-02 8.858817231035354567e+00
9.833187079696237287e-02 8.763500819574918665e+00
9.937241969362775595e-02 8.738319495204711629e+00
1.004129685902931390e-01 8.808968695272548999e+00
1.014535174869585221e-01 8.830393102316845599e+00
1.024940663836239052e-01 8.815509894262628876e+00
1.035346152802892883e-01 8.725214860116665250e+00
1.045751641769546714e-01 8.785303844555929942e+00
1.056157130736200545e-01 8.780252279865056408e+00
1.066562619702854375e-01 8.789402964227866377e+00
1.076968108669508206e-01 8.825971152665214703e+00
1.087373597636162037e-01 8.873356605077432846e+00
1.097779086602815868e-01 8.879153772180455206e+00
1.108184575569469699e-01 8.755014319254867061e+00
1.118590064536123529e-01 8.842525558375353256e+00
1.128995553502777360e-01 8.880053917374061356e+00
1.139401042469431191e-01 8.872472820582931519e+00
1.149806531436085022e-01 8.874430189137914482e+00
1.160212020402738853e-01 8.795156149170846760e+00
1.170617509369392684e-01 8.867369370073387103e+00
1.181022998336046514e-01 8.833792913054105966e+00
1.191428487302700345e-01 8.809235924647895288e+00
1.201833976269354176e-01 8.766385916676265211e+00
1.212239465236008007e-01 8.798757046303432361e+00
1.222644954202661838e-01 8.865967845792068758e+00
1.233050443169315669e-01 8.925918829390861120e+00
1.243455932135969499e-01 8.901192272082729673e+00
1.253861421102623330e-01 8.873023308019293509e+00
1.264266910069277161e-01 8.811760575903200277e+00
1.274672399035930992e-01 8.897408422652956617e+00
1.285077888002584823e-01 8.885668836375572255e+00
1.295483376969238654e-01 8.806757269457484938e+00
1.305888865935892484e-01 8.875430786543454076e+00
1.316294354902546315e-01 8.847507433720068093e+00
1.326699843869200146e-01 8.874545504691273123e+00
1.337105332835853977e-01 8.908531156146869634e+00
1.347510821802507808e-01 8.904234404992044105e+00
1.357916310769161639e-01 8.856574539704810789e+00
1.368321799735815469e-01 8.884877884031398665e+00
1.378727288702469300e-01 8.910599147321136115e+00
1.389132777669123131e-01 8.859348805448426845e+00
1.399538266635776962e-01 8.825551220216311776e+00
1.409943755602430793e-01 8.833758259902641186e+00
1.420349244569084624e-01 8.945217738925702378e+00
1.430754733535738454e-01 8.959087894537766772e+00
1.441160222502392285e-01 8.951406101222636025e+00
1.451565711469046116e-01 8.986457368245096333e+00
1.461971200435699947e-01 8.966777296689235399e+00
1.472376689402353778e-01 8.892468600293131686e+00
1.482782178369007609e-01 8.900341728844654909e+00
1.493187667335661439e-01 8.925491203116637351e+00
1.503593156302315270e-01 8.969014219216715489e+00
1.513998645268969101e-01 8.903179098777332712e+00
1.524404134235622932e-01 8.999951750672101625e+00
1.534809623202276763e-01 8.930296493386533641e+00
1.545215112168930593e-01 8.956042052751104876e+00
1.555620601135584424e-01 8.895923431546812310e+00
1.566026090102238255e-01 8.979097759224259789e+00
1.576431579068892086e-01 8.944991432625799987e+00
1.586837068035545917e-01 8.927303539588367087e+00
1.597242557002199748e-01 8.885816082391682968e+00
1.607648045968853578e-01 8.988879329368003823e+00
1.618053534935507409e-01 8.976190718438083138e+00
1.628459023902161240e-01 8.985816356199689992e+00
1.638864512868815071e-01 9.023043341192526157e+00
1.649270001835468902e-01 8.970124641645902841e+00
1.659675490802122733e-01 8.963183594839252422e+00
1.670080979768776563e-01 8.991954909729086509e+00
1.680486468735430672e-01 8.968805716227290503e+00
1.690891957702084503e-01 8.929273526426566576e+00
1.701297446668738333e-01 8.875189374486044613e+00
1.711702935635392164e-01 8.938734094698498112e+00
1.722108424602045995e-01 9.010348150618460394e+00
1.732513913568699826e-01 9.062321949935528309e+00
1.742919402535353657e-01 8.980318468004670152e+00
1.753324891502007488e-01 8.956769417838852831e+00
1.763730380468661318e-01 8.964679632391648667e+00
1.774135869435315149e-01 8.942703839468455485e+00
1.784541358401968980e-01 8.934627200384426260e+00
1.794946847368622811e-01 8.897301791913653446e+00
1.805352336335276642e-01 8.922719292612960373e+00
1.815757825301930473e-01 8.988458687124014190e+00
1.826163314268584303e-01 8.995373626268527545e+00
1.836568803235238134e-01 8.916482685610052528e+00
1.846974292201891965e-01 8.887329626011529982e+00
1.857379781168545796e-01 8.976474581663493879e+00
1.867785270135199627e-01 9.000047983330116352e+00
1.878190759101853458e-01 8.971662118399626351e+00
1.888596248068507288e-01 9.003948312010789934e+00
1.899001737035161119e-01 8.940855004555956498e+00
1.909407226001814950e-01 8.950477099078918641e+00
1.919812714968468781e-01 9.009479623658062764e+00
1.930218203935122612e-01 8.940369653770716241e+00
1.940623692901776443e-01 8.938197533326272648e+00
1.951029181868430273e-01 8.953464226420871697e+00
1.961434670835084104e-01 8.914570332061996893e+00
1.971840159801737935e-01 8.962698767532558008e+00
1.982245648768391766e-01 8.972282617331179821e+00
1.992651137735045597e-01 9.045550576248713170e+00
2.003056626701699428e-01 8.968633397944847374e+00
2.013462115668353813e-01 8.977274035094835014e+00
2.023867604635007644e-01 8.914930600089206791e+00
2.034273093601661475e-01 8.963848292210963464e+00
2.044678582568315306e-01 8.936581491886263606e+00
2.055084071534969137e-01 8.951786666416325033e+00
2.065489560501622968e-01 8.996964460497560268e+00
2.075895049468276798e-01 9.051918304673360893e+00
2.086300538434930629e-01 9.045678237107789954e+00
2.096706027401584460e-01 9.004869670763046230e+00
2.107111516368238291e-01 9.013070141116738654e+00
2.117517005334892122e-01 8.985724149376574488e+00
2.127922494301545953e-01 8.995607526164423717e+00
2.138327983268199783e-01 9.018217398284768649e+00
2.148733472234853614e-01 8.939577487078132378e+00
2.159138961201507445e-01 8.974657214549935702e+00
2.169544450168161276e-01 8.984694156540044219e+00
2.179949939134815107e-01 8.948787494242994356e+00
2.190355428101468938e-01 8.928008278928686536e+00
2.200760917068122768e-01 9.018537835329091479e+00
2.211166406034776599e-01 8.975667996377119096e+00
2.221571895001430430e-01 8.914645586562976121e+00
2.231977383968084261e-01 8.916922877308085305e+00
2.242382872934738092e-01 8.915444298571316040e+00
2.252788361901391923e-01 8.985399068946547274e+00
2.263193850868045753e-01 9.019055271066605428e+00
2.273599339834699584e-01 8.960420113474649284e+00
2.284004828801353415e-01 8.982123695776847327e+00
2.294410317768007246e-01 8.950553564367346837e+00
2.304815806734661077e-01 9.004072135291677270e+00
2.315221295701314908e-01 8.963401560429206327e+00
2.325626784667968738e-01 9.023677758042978780e+00
2.336032273634622569e-01 9.037814353687448232e+00
2.346437762601276400e-01 9.102220231195371269e+00
2.356843251567930231e-01 9.012143952237039457e+00
2.367248740534584062e-01 8.992160810936054460e+00
2.377654229501237892e-01 8.939736968560698216e+00
2.388059718467891723e-01 8.978984812442112329e+00
2.398465207434545554e-01 8.999189217650240380e+00
2.408870696401199385e-01 9.033227222420059377e+00
2.419276185367853216e-01 9.005188876082165450e+00
2.429681674334507047e-01 8.998257116361667585e+00
2.440087163301160877e-01 8.955344687380346613e+00
2.450492652267814708e-01 8.960334088520129470e+00
2.460898141234468539e-01 8.956703395625718045e+00
2.471303630201122370e-01 8.970059109269588049e+00
2.481709119167776201e-01 9.018428958212345137e+00
2.492114608134430032e-01 8.983529347725550451e+00
2.502520097101083585e-01 9.010116588766807766e+00
2.512925586067737416e-01 8.934528216091980113e+00
2.523331075034391247e-01 8.926072214249826331e+00
2.533736564001045077e-01 9.066799515672677501e+00
2.544142052967698908e-01 9.036724783685208706e+00
2.554547541934352739e-01 9.050453723676993079e+00
2.564953030901006570e-01 9.014406824271167906e+00
2.575358519867660401e-01 9.010443899510537591e+00
2.585764008834314231e-01 8.925209746464151550e+00
2.596169497800968062e-01 8.960558117965266689e+00
2.606574986767621893e-01 9.013735417518971005e+00
2.616980475734275724e-01 9.014915597262611158e+00
2.627385964700929555e-01 8.977771696425206116e+00
2.637791453667583386e-01 8.990774741039984974e+00
2.648196942634237216e-01 8.971226550425233981e+00
2.658602431600891047e-01 8.977571386827133182e+00
2.669007920567544878e-01 9.039416377459252416e+00
2.679413409534198709e-01 8.960802156482589709e+00
2.689818898500852540e-01 8.948386608731981440e+00
2.700224387467506371e-01 8.961188289537302509e+00
2.710629876434160201e-01 8.975240799759916399e+00
2.721035365400814032e-01 9.048111142870284951e+00
2.731440854367467863e-01 9.006930169292679977e+00
2.741846343334121694e-01 8.951563419558398849e+00
2.752251832300775525e-01 9.031846841545462468e+00
2.762657321267429356e-01 9.023069407857915891e+00
2.773062810234083186e-01 9.098363838150401506e+00
2.783468299200737017e-01 9.011087799652989005e+00
2.793873788167390848e-01 9.132851989843985052e+00
2.804279277134044679e-01 9.110531771488902919e+00
2.814684766100698510e-01 9.070473501949898321e+00
2.825090255067352341e-01 9.022174728636848329e+00
2.835495744034006171e-01 9.006561476033736469e+00
2.845901233000660002e-01 9.066275885284687419e+00
2.856306721967313833e-01 9.102126351969584306e+00
2.866712210933967664e-01 9.050016258638382993e+00
2.877117699900621495e-01 9.069292314201742755e+00
2.887523188867275326e-01 9.019412490033076324e+00
2.897928677833929156e-01 8.996611344194189286e+00
2.908334166800582987e-01 8.946646186498799835e+00
2.918739655767236818e-01 8.987884116779444099e+00
2.929145144733890649e-01 9.030990504988514189e+00
2.939550633700544480e-01 9.096773708082041665e+00
2.949956122667198311e-01 9.067056704851852444e+00
2.960361611633852141e-01 8.990246412351066141e+00
2.970767100600505972e-01 9.009495301030790770e+00
2.981172589567159803e-01 9.031367164127969360e+00
2.991578078533813634e-01 9.030686152010193979e+00
3.001983567500468020e-01 8.994943625519042030e+00
3.012389056467121851e-01 9.060805452601435661e+00
3.022794545433775681e-01 9.101604819916863320e+00
3.033200034400429512e-01 9.049714443827221899e+00
3.043605523367083343e-01 9.021962698807895364e+00
3.054011012333737174e-01 9.053018427647067767e+00
3.064416501300391005e-01 9.124532549594336572e+00
3.074821990267044836e-01 9.135974904125552243e+00
3.085227479233698666e-01 9.038047779726534614e+00
3.095632968200352497e-01 9.063636637017188136e+00
3.106038457167006328e-01 9.042938065052002372e+00
3.116443946133660159e-01 9.091571069585173248e+00
3.126849435100313990e-01 9.113771655009472283e+00
3.137254924066967821e-01 9.076672999375396955e+00
3.147660413033621651e-01 9.033711438170101360e+00
3.158065902000275482e-01 9.055585977162920130e+00
3.168471390966929313e-01 9.071122047730783677e+00
3.178876879933583144e-01 9.025767740055893995e+00
3.189282368900236975e-01 9.038578139516003418e+00
3.199687857866890806e-01 9.069977361819081096e+00
3.210093346833544636e-01 9.037810340608610105e+00
3.220498835800198467e-01 8.985145127666614329e+00
3.230904324766852298e-01 8.975537787284112667e+00
3.241309813733506129e-01 9.009549121624658596e+00
3.251715302700159960e-01 9.041486858121615455e+00
3.262120791666813790e-01 9.071628080344067868e+00
3.272526280633467621e-01 9.087560703549169006e+00
3.282931769600121452e-01 9.082280039719837106e+00
3.293337258566775283e-01 9.062697558763664674e+00
3.303742747533429114e-01 9.049293737308904184e+00
3.314148236500082945e-01 9.083726364764594052e+00
3.324553725466736775e-01 9.079637947823547606e+00
3.334959214433390606e-01 9.040152748767333435e+00
3.345364703400044437e-01 8.993094251151351415e+00
3.355770192366698268e-01 9.004670065577386140e+00
3.366175681333352099e-01 9.043803693249561348e+00
3.376581170300005930e-01 9.022657790936307265e+00
3.386986659266659760e-01 9.027562588348351014e+00
3.397392148233313591e-01 8.984307947036693776e+00
3.407797637199967422e-01 9.030256885936163158e+00
3.418203126166621253e-01 9.070634678758970892e+00
3.428608615133275084e-01 9.049605943738185942e+00
3.439014104099928915e-01 9.009327637431146840e+00
3.449419593066582745e-01 9.088523796816609490e+00
3.459825082033236576e-01 9.095537414897576056e+00
3.470230570999890407e-01 9.068472732416754667e+00
3.480636059966544238e-01 8.993835116692013187e+00
3.491041548933198069e-01 9.023095343546277292e+00
3.501447037899851900e-01 9.050569833764502192e+00
3.511852526866505730e-01 9.043530945530195098e+00
3.522258015833159561e-01 9.036501754791830265e+00
3.532663504799813392e-01 9.068748067196619189e+00
3.543068993766467223e-01 9.064449912313266466e+00
3.553474482733121054e-01 8.989098867475860288e+00
3.563879971699774885e-01 9.081105475607426314e+00
3.574285460666428715e-01 9.097556043000070147e+00
3.584690949633082546e-01 9.125755710520152775e+00
3.595096438599736377e-01 9.039701862267552457e+00
3.605501927566390208e-01 9.023536704550076948e+00
3.615907416533044039e-01 9.066638973743204488e+00
3.626312905499697870e-01 9.059036675404909644e+00
3.636718394466351700e-01 9.079025564841213480e+00
3.647123883433005531e-01 9.099119077289124391e+00
3.657529372399659362e-01 9.084897792616555279e+00
3.667934861366313193e-01 9.043000274263304661e+00
3.678340350332967024e-01 9.071296961043049834e+00
3.688745839299620854e-01 9.004130052920325866e+00
3.699151328266274685e-01 9.078256798505130121e+00
3.709556817232928516e-01 9.125841149137491115e+00
3.719962306199582347e-01 9.104378941523556534e+00
3.730367795166236178e-01 9.038157071082496330e+00
3.740773284132890009e-01 9.020319030630190582e+00
3.751178773099543839e-01 9.039511828458728360e+00
3.761584262066197670e-01 9.043462009657162071e+00
3.771989751032851501e-01 9.060376228564560819e+00
3.782395239999505332e-01 9.015872245140792884e+00
3.792800728966159163e-01 9.015473240628436358e+00
3.803206217932812994e-01 9.066693387668626869e+00
3.813611706899466824e-01 9.119749270380088646e+00
3.824017195866120655e-01 9.099198891970807779e+00
3.834422684832774486e-01 9.098613320890107659e+00
3.844828173799428317e-01 9.075278448895900851e+00
3.855233662766082148e-01 9.074629488984166770e+00
3.865639151732735979e-01 9.108619002941598097e+00
3.876044640699389809e-01 9.056468010903124366e+00
3.886450129666043640e-01 9.076955748493002574e+00
3.896855618632697471e-01 9.047273056829636673e+00
3.907261107599351302e-01 9.073703974043736409e+00
3.917666596566005133e-01 9.056447967878746397e+00
3.928072085532658964e-01 9.016749829568052377e+00
3.938477574499312794e-01 9.031429425195460325e+00
3.948883063465966625e-01 9.047167864896916711e+00
3.959288552432620456e-01 9.042764050047448876e+00
3.969694041399274287e-01 9.055115904407884386e+00
3.980099530365928118e-01 9.085369187334537244e+00
3.990505019332581949e-01 9.077364771281825284e+00
4.000910508299235779e-01 9.043926605355940396e+00
4.011315997265889610e-01 9.089707285871702069e+00
4.021721486232543441e-01 9.105562608924955725e+00
4.032126975199197272e-01 9.051389430137263048e+00
4.042532464165851103e-01 9.051519902505923199e+00
4.052937953132504934e-01 9.079454573077084589e+00
4.063343442099158764e-01 9.115042546344996666e+00
4.073748931065812595e-01 9.121837872614081633e+00
4.084154420032466426e-01 9.086078319402419723e+00
4.094559908999120257e-01 9.025333920071412663e+00
4.104965397965774088e-01 9.045668116620188215e+00
4.115370886932427918e-01 9.102565531121735276e+00
4.125776375899081749e-01 9.111346717327577949e+00
4.136181864865735580e-01 9.068954695001986366e+00
4.146587353832389411e-01 9.047674575024434063e+00
4.156992842799043242e-01 9.097956524783382903e+00
4.167398331765697073e-01 9.087169500119017584e+00
4.177803820732350903e-01 9.142118416672882830e+00
4.188209309699004734e-01 9.107393808190124673e+00
4.198614798665658565e-01 9.127601965771358294e+00
4.209020287632312396e-01 9.070104502262008594e+00
4.219425776598966227e-01 9.042107151295208922e+00
4.229831265565620058e-01 9.108763298263767183e+00
4.240236754532273888e-01 9.098652992380360516e+00
4.250642243498927719e-01 9.082862542487383450e+00
4.261047732465581550e-01 9.104225631959092624e+00
4.271453221432235381e-01 9.119690224846982218e+00
4.281858710398889212e-01 9.046866356938716436e+00
4.292264199365543043e-01 9.119852638734112560e+00
4.302669688332196873e-01 9.078729631856232274e+00
4.313075177298850704e-01 9.073680738534543266e+00
4.323480666265504535e-01 9.136763934631961348e+00
4.333886155232158366e-01 9.103726752842355552e+00
4.344291644198812197e-01 9.112148642040459379e+00
