# q (1/Angstrom), Intensity (arb)
2.029070354705860696e-02 1.231758820985589864e+03
2.133125244372399004e-02 1.235856715161908369e+03
2.237180134038937659e-02 1.228527621189760794e+03
2.341235023705475968e-02 1.216296830948846946e+03
2.445289913372014276e-02 1.202668585124342144e+03
2.549344803038552584e-02 1.191336481164893712e+03
2.653399692705091240e-02 1.175801514371684334e+03
2.757454582371629548e-02 1.164395363762282614e+03
2.861509472038167856e-02 1.145798225291599238e+03
2.965564361704706164e-02 1.130622920206572189e+03
3.069619251371244473e-02 1.118608505388985350e+03
3.173674141037782781e-02 1.103940313567776457e+03
3.277729030704321089e-02 1.088036155501053827e+03
3.381783920370859398e-02 1.073755372574399189e+03
3.485838810037397706e-02 1.053445656954971582e+03
3.589893699703936014e-02 1.034871622399932903e+03
3.693948589370474322e-02 1.019094526425146455e+03
3.798003479037012631e-02 1.002489052780164684e+03
3.902058368703550939e-02 9.870496725399337947e+02
4.006113258370089247e-02 9.667839799052076160e+02
4.110168148036627556e-02 9.439891743274617966e+02
4.214223037703165864e-02 9.251844666685343554e+02
4.318277927369704866e-02 9.069362772313326104e+02
4.422332817036243174e-02 8.874937980742462287e+02
4.526387706702781483e-02 8.674979853654467661e+02
4.630442596369319791e-02 8.452557838604212748e+02
4.734497486035858099e-02 8.264106948099691863e+02
4.838552375702396408e-02 8.060521356115426670e+02
4.942607265368934716e-02 7.849011783664309405e+02
5.046662155035473024e-02 7.672868204841491888e+02
5.150717044702011332e-02 7.482763201006478084e+02
5.254771934368549641e-02 7.264304687022656708e+02
5.358826824035087949e-02 7.040102772224222463e+02
5.462881713701626257e-02 6.868655938935507947e+02
5.566936603368164566e-02 6.690673451229815782e+02
5.670991493034702874e-02 6.492779675084351538e+02
5.775046382701241182e-02 6.295852789536767204e+02
5.879101272367779490e-02 6.080726312547274119e+02
5.983156162034317799e-02 5.870659993705664874e+02
6.087211051700856107e-02 5.694080775445913787e+02
6.191265941367394415e-02 5.534015959234809543e+02
6.295320831033933417e-02 5.320813905399738815e+02
6.399375720700471726e-02 5.124670233760110705e+02
6.503430610367010034e-02 4.945740165773063950e+02
6.607485500033548342e-02 4.752195375992591835e+02
6.711540389700086651e-02 4.563372313530850306e+02
6.815595279366624959e-02 4.392361110758341738e+02
6.919650169033163267e-02 4.237204731175760912e+02
7.023705058699701576e-02 4.062361468382987368e+02
7.127759948366239884e-02 3.892009517812954300e+02
7.231814838032778192e-02 3.729946584551447586e+02
7.335869727699316500e-02 3.581917165778509116e+02
7.439924617365854809e-02 3.435259400850513316e+02
7.543979507032393117e-02 3.276243962325379471e+02
7.648034396698931425e-02 3.137379735379625458e+02
7.752089286365469734e-02 2.983407920844032333e+02
7.856144176032008042e-02 2.855466763793909877e+02
7.960199065698546350e-02 2.714783197601663005e+02
8.064253955365084658e-02 2.578174196990793234e+02
8.168308845031622967e-02 2.445030192166805705e+02
8.272363734698161275e-02 2.316059658783127020e+02
8.376418624364699583e-02 2.190774471286273979e+02
8.480473514031239279e-02 2.059652697349637549e+02
8.584528403697777588e-02 1.946480983238002977e+02
8.688583293364315896e-02 1.847335812586251791e+02
8.792638183030854204e-02 1.748393409745946769e+02
8.896693072697392513e-02 1.646426600955036008e+02
9.000747962363930821e-02 1.538884918847875554e+02
9.104802852030469129e-02 1.455248674306328951e+02
9.208857741697007437e-02 1.369966294400144307e+02
9.312912631363545746e-02 1.284303298225340200e+02
9.416967521030084054e-02 1.198678757278134412e+02
9.521022410696622362e-02 1.121631915549278062e+02
9.625077300363160671e-02 1.034162765205326622e+02
9.729132190029698979e-02 9.563579793799115691e+01
9.833187079696237287e-02 8.903613898850113628e+01
9.937241969362775595e-02 8.194599771937015475e+01
1.004129685902931390e-01 7.656907824488396841e+01
1.014535174869585221e-01 7.047332347690500853e+01
1.024940663836239052e-01 6.436086290357103223e+01
1.035346152802892883e-01 5.878628600001668758e+01
1.045751641769546714e-01 5.362987077283366943e+01
1.056157130736200545e-01 4.904160215726423644e+01
1.066562619702854375e-01 4.478820052500960003e+01
1.076968108669508206e-01 4.071811028959623258e+01
1.087373597636162037e-01 3.673108417775809187e+01
1.097779086602815868e-01 3.280843895439522839e+01
1.108184575569469699e-01 2.939748105664873634e+01
1.118590064536123529e-01 2.663384971902259579e+01
1.128995553502777360e-01 2.359805562158481607e+01
1.139401042469431191e-01 2.102457256451575773e+01
1.149806531436085022e-01 1.871102070990269084e+01
1.160212020402738853e-01 1.645450738043332706e+01
1.170617509369392684e-01 1.422453396502431744e+01
1.181022998336046514e-01 1.224000296427428580e+01
1.191428487302700345e-01 1.080532144692179841e+01
1.201833976269354176e-01 9.253057784275441122e+00
1.212239465236008007e-01 7.873494813717780261e+00
1.222644954202661838e-01 6.687426238995993089e+00
1.233050443169315669e-01 5.746404075272653955e+00
1.243455932135969499e-01 4.983888077853304566e+00
1.253861421102623330e-01 4.242839627230480914e+00
1.264266910069277161e-01 3.478928884852631853e+00
1.274672399035930992e-01 2.829311530332464741e+00
1.285077888002584823e-01 2.572995232536698040e+00
1.295483376969238654e-01 1.943368157606577995e+00
1.305888865935892484e-01 1.814027509461894283e+00
1.316294354902546315e-01 1.579597244049072202e+00
1.326699843869200146e-01 1.376436163723742112e+00
1.337105332835853977e-01 1.644032122074346347e+00
1.347510821802507808e-01 1.943769652928420300e+00
1.357916310769161639e-01 1.925101798163357358e+00
1.368321799735815469e-01 2.288177024308719609e+00
1.378727288702469300e-01 2.597613634192555310e+00
1.389132777669123131e-01 2.517304589806624193e+00
1.399538266635776962e-01 2.690553791679288764e+00
1.409943755602430793e-01 3.331618402298207826e+00
1.420349244569084624e-01 3.537249769266249899e+00
1.430754733535738454e-01 3.921064335026660075e+00
1.441160222502392285e-01 4.304815029193274967e+00
1.451565711469046116e-01 4.219389518877019185e+00
1.461971200435699947e-01 5.200630753728844979e+00
1.472376689402353778e-01 5.982938150831479618e+00
1.482782178369007609e-01 6.101371565506912731e+00
1.493187667335661439e-01 6.285588471369475627e+00
1.503593156302315270e-01 6.826664225825176402e+00
1.513998645268969101e-01 7.117000891433278298e+00
1.524404134235622932e-01 7.395962090753297247e+00
1.534809623202276763e-01 7.569808720552497761e+00
1.545215112168930593e-01 7.912771652411734635e+00
1.555620601135584424e-01 7.685826764830043345e+00
1.566026090102238255e-01 7.982690713736410260e+00
1.576431579068892086e-01 8.410239121047666799e+00
1.586837068035545917e-01 8.813781961483581284e+00
1.597242557002199748e-01 8.906242842055938524e+00
1.607648045968853578e-01 9.006566242786337995e+00
1.618053534935507409e-01 9.097032706664084145e+00
1.628459023902161240e-01 9.201204109320809010e+00
1.638864512868815071e-01 9.953610698217083552e+00
1.649270001835468902e-01 9.992810185517058130e+00
1.659675490802122733e-01 9.615053666193905002e+00
1.670080979768776563e-01 9.490117396352559354e+00
1.680486468735430672e-01 9.834639364082150337e+00
1.690891957702084503e-01 1.001886318848033497e+01
1.701297446668738333e-01 9.808750595309348341e+00
1.711702935635392164e-01 1.005200034687852195e+01
1.722108424602045995e-01 1.005029954180082896e+01
1.732513913568699826e-01 9.977238790540262414e+00
1.742919402535353657e-01 9.734507333936523565e+00
1.753324891502007488e-01 9.251645574655338322e+00
1.763730380468661318e-01 9.091284709995612445e+00
1.774135869435315149e-01 8.928177285772200378e+00
1.784541358401968980e-01 8.713884998014723493e+00
1.794946847368622811e-01 8.796833276633559962e+00
1.805352336335276642e-01 8.495200214715634246e+00
1.815757825301930473e-01 8.128935831675281776e+00
1.826163314268584303e-01 8.230118835410916489e+00
1.836568803235238134e-01 8.245245533996861553e+00
1.846974292201891965e-01 8.086699594525491364e+00
1.857379781168545796e-01 7.540654167240855799e+00
1.867785270135199627e-01 7.112524615828569097e+00
1.878190759101853458e-01 6.557188111220799698e+00
1.888596248068507288e-01 6.463954823512281678e+00
1.899001737035161119e-01 6.321761589201305043e+00
1.909407226001814950e-01 6.224133547777096709e+00
1.919812714968468781e-01 6.081098030372466212e+00
1.930218203935122612e-01 5.644736597986195648e+00
1.940623692901776443e-01 5.263361087484895506e+00
1.951029181868430273e-01 5.135129749032536495e+00
1.961434670835084104e-01 4.881870820414807355e+00
1.971840159801737935e-01 4.498208714737746305e+00
1.982245648768391766e-01 4.240760154241623781e+00
1.992651137735045597e-01 4.100161117902882069e+00
2.003056626701699428e-01 3.776142118519725699e+00
2.013462115668353813e-01 3.565897578701409998e+00
2.023867604635007644e-01 3.361544823708701557e+00
2.034273093601661475e-01 2.884587737346141267e+00
2.044678582568315306e-01 2.368723311225824801e+00
2.055084071534969137e-01 2.210555020706458151e+00
2.065489560501622968e-01 2.443806019623078640e+00
2.075895049468276798e-01 2.227250893373593499e+00
2.086300538434930629e-01 2.362031781030022870e+00
2.096706027401584460e-01 2.253802347473282452e+00
2.107111516368238291e-01 2.047706487982893009e+00
2.117517005334892122e-01 1.779027302937123522e+00
2.127922494301545953e-01 1.792748991467266961e+00
2.138327983268199783e-01 1.264137111345959852e+00
2.148733472234853614e-01 1.342900323237049776e+00
2.159138961201507445e-01 1.051159418468323281e+00
2.169544450168161276e-01 6.096532255730551242e-01
2.179949939134815107e-01 7.023944392493888245e-01
2.190355428101468938e-01 8.799339512479456005e-01
2.200760917068122768e-01 9.465366999615199006e-01
2.211166406034776599e-01 6.750557523695945861e-01
2.221571895001430430e-01 8.386600456079413846e-01
2.231977383968084261e-01 6.653308240421473840e-01
2.242382872934738092e-01 4.955110324330362914e-01
2.252788361901391923e-01 4.301293594008264165e-01
2.263193850868045753e-01 4.733578106536846519e-01
2.273599339834699584e-01 4.393357365958046046e-01
2.284004828801353415e-01 4.240218721739488217e-01
2.294410317768007246e-01 5.405772493603144824e-01
2.304815806734661077e-01 4.595863623682170385e-01
2.315221295701314908e-01 5.498532505814424098e-01
2.325626784667968738e-01 5.887058499675035250e-01
2.336032273634622569e-01 7.823598218422276318e-01
2.346437762601276400e-01 8.174611018225874659e-01
2.356843251567930231e-01 6.686364463297138627e-01
2.367248740534584062e-01 5.796333151663830563e-01
2.377654229501237892e-01 8.546370307117214793e-01
2.388059718467891723e-01 9.910878765890380748e-01
2.398465207434545554e-01 1.159532428397813675e+00
2.408870696401199385e-01 8.168630632203672803e-01
2.419276185367853216e-01 7.859783325460512060e-01
2.429681674334507047e-01 9.158512781033998351e-01
2.440087163301160877e-01 9.330519808527704129e-01
2.450492652267814708e-01 1.253981857395569222e+00
2.460898141234468539e-01 1.301466628852999463e+00
2.471303630201122370e-01 1.184606697058210756e+00
2.481709119167776201e-01 1.273937940068073260e+00
2.492114608134430032e-01 1.018679556865496494e+00
2.502520097101083585e-01 1.150920458163167126e+00
2.512925586067737416e-01 9.973894809679819673e-01
2.523331075034391247e-01 1.074386056721575500e+00
2.533736564001045077e-01 1.271900212176579004e+00
2.544142052967698908e-01 1.552387419315085282e+00
2.554547541934352739e-01 1.756496940119980366e+00
2.564953030901006570e-01 1.558971022528272243e+00
2.575358519867660401e-01 1.424798875399698517e+00
2.585764008834314231e-01 1.572040226556879361e+00
2.596169497800968062e-01 1.581972262154241804e+00
2.606574986767621893e-01 1.555081534065703153e+00
2.616980475734275724e-01 1.710992875909028044e+00
2.627385964700929555e-01 1.550310950349679473e+00
2.637791453667583386e-01 1.281391505673894926e+00
2.648196942634237216e-01 1.549072659912287264e+00
2.658602431600891047e-01 1.692524729772255654e+00
2.669007920567544878e-01 1.741157744075152891e+00
2.679413409534198709e-01 1.692289146709896386e+00
2.689818898500852540e-01 1.601192159819376570e+00
2.700224387467506371e-01 1.621375742941115305e+00
2.710629876434160201e-01 1.665285060934504457e+00
2.721035365400814032e-01 1.539087497740279531e+00
2.731440854367467863e-01 1.640621597821894539e+00
2.741846343334121694e-01 1.742742446556139413e+00
2.752251832300775525e-01 1.656103362882415553e+00
2.762657321267429356e-01 1.496074380936327941e+00
2.773062810234083186e-01 1.534674489499291639e+00
2.783468299200737017e-01 1.461590355400460339e+00
2.793873788167390848e-01 1.398659494055092267e+00
2.804279277134044679e-01 1.385220776541626009e+00
2.814684766100698510e-01 1.372937543978963504e+00
2.825090255067352341e-01 1.452978504133394466e+00
2.835495744034006171e-01 1.299508420106839424e+00
2.845901233000660002e-01 1.059431121169090773e+00
2.856306721967313833e-01 9.695460888666573851e-01
2.866712210933967664e-01 9.583958897153728174e-01
2.877117699900621495e-01 1.006874524247546532e+00
2.887523188867275326e-01 1.010859037051044851e+00
2.897928677833929156e-01 1.118586081570843049e+00
2.908334166800582987e-01 1.168639564348417537e+00
2.918739655767236818e-01 1.111795547145025154e+00
2.929145144733890649e-01 1.204411698271666609e+00
2.939550633700544480e-01 9.514367889112591570e-01
2.949956122667198311e-01 8.692054507285114084e-01
2.960361611633852141e-01 7.230851504060780144e-01
2.970767100600505972e-01 7.489080759644970442e-01
2.981172589567159803e-01 5.968572392454021269e-01
2.991578078533813634e-01 5.613948558303896164e-01
3.001983567500468020e-01 5.695287292501092224e-01
3.012389056467121851e-01 6.766261382258136337e-01
3.022794545433775681e-01 4.460284584931599738e-01
3.033200034400429512e-01 2.492343660969531527e-01
3.043605523367083343e-01 6.086836151258587790e-01
3.054011012333737174e-01 7.220145519536913525e-01
3.064416501300391005e-01 5.679237759457471668e-01
3.074821990267044836e-01 7.189287077198507347e-01
3.085227479233698666e-01 6.363085836727471190e-01
3.095632968200352497e-01 4.342139771606881027e-01
3.106038457167006328e-01 5.209777721903385839e-01
3.116443946133660159e-01 4.329317882390881778e-01
3.126849435100313990e-01 2.647285625328485992e-01
3.137254924066967821e-01 3.383272564571164764e-01
3.147660413033621651e-01 2.131959160656222707e-01
3.158065902000275482e-01 2.681535175894751433e-01
3.168471390966929313e-01 4.302064409999069028e-01
3.178876879933583144e-01 6.400815341835652816e-01
3.189282368900236975e-01 6.824184011466911670e-01
3.199687857866890806e-01 5.063869744824138763e-01
3.210093346833544636e-01 2.545029121878492617e-01
3.220498835800198467e-01 2.703466782805179491e-01
3.230904324766852298e-01 2.451860619935679608e-01
3.241309813733506129e-01 6.108222483345571163e-01
3.251715302700159960e-01 3.947035119238222478e-01
3.262120791666813790e-01 0.000000000000000000e+00
3.272526280633467621e-01 1.572690191929133618e-01
3.282931769600121452e-01 3.092379023511533376e-01
3.293337258566775283e-01 4.912519082031394646e-01
3.303742747533429114e-01 3.058687528496264463e-01
3.314148236500082945e-01 3.350412636359401120e-01
3.324553725466736775e-01 4.160557993938311938e-01
3.334959214433390606e-01 4.370779439129286459e-01
3.345364703400044437e-01 5.461704669984435156e-01
3.355770192366698268e-01 5.645021453515646215e-01
3.366175681333352099e-01 2.471319697498763901e-01
3.376581170300005930e-01 3.939094513991392432e-01
3.386986659266659760e-01 4.351012865364687343e-01
3.397392148233313591e-01 4.447733369057296215e-01
3.407797637199967422e-01 5.645380811110278785e-01
3.418203126166621253e-01 5.390458697688913503e-01
3.428608615133275084e-01 3.866256144075101986e-01
3.439014104099928915e-01 4.780420141467800477e-01
3.449419593066582745e-01 5.578475713476649389e-01
3.459825082033236576e-01 7.689759406479943493e-01
3.470230570999890407e-01 6.405018291453146162e-01
3.480636059966544238e-01 3.619481687369905387e-01
3.491041548933198069e-01 3.561871561682288245e-01
3.501447037899851900e-01 6.206402280932188376e-01
3.511852526866505730e-01 4.040644149286727327e-01
3.522258015833159561e-01 4.825099356860249600e-01
3.532663504799813392e-01 6.837608254161899879e-01
3.543068993766467223e-01 8.015971891412974060e-01
3.553474482733121054e-01 7.228075850478390407e-01
3.563879971699774885e-01 6.167467039409757490e-01
3.574285460666428715e-01 5.527617060517791003e-01
3.584690949633082546e-01 4.523341770140838491e-01
3.595096438599736377e-01 5.768465778939777522e-01
3.605501927566390208e-01 6.305020194124111299e-01
3.615907416533044039e-01 7.154257603912661523e-01
3.626312905499697870e-01 7.040919692196148105e-01
3.636718394466351700e-01 6.121956209332104493e-01
3.647123883433005531e-01 3.707028116695987308e-01
3.657529372399659362e-01 5.483076773843613694e-01
3.667934861366313193e-01 6.644089892067803760e-01
3.678340350332967024e-01 7.535657019899240083e-01
3.688745839299620854e-01 6.216129569274393418e-01
3.699151328266274685e-01 5.930715877484722398e-01
3.709556817232928516e-01 4.667315036044037413e-01
3.719962306199582347e-01 6.103365068397934579e-01
3.730367795166236178e-01 5.432119108919977180e-01
3.740773284132890009e-01 6.226991228216185448e-01
3.751178773099543839e-01 7.268536884351703975e-01
3.761584262066197670e-01 5.603555537702007427e-01
3.771989751032851501e-01 5.471903476934265598e-01
3.782395239999505332e-01 5.899165388215799055e-01
3.792800728966159163e-01 4.503460368721547979e-01
3.803206217932812994e-01 5.219364190200614928e-01
3.813611706899466824e-01 5.059310100570542090e-01
3.824017195866120655e-01 5.208211554239738916e-01
3.834422684832774486e-01 4.461706531108831086e-01
3.844828173799428317e-01 3.922995738314654091e-01
3.855233662766082148e-01 4.203915497942922741e-01
3.865639151732735979e-01 2.892427738193745768e-01
3.876044640699389809e-01 1.738666596301712275e-01
3.886450129666043640e-01 3.005930445789779526e-01
3.896855618632697471e-01 4.772755126643737356e-01
3.907261107599351302e-01 3.867506863493801461e-01
3.917666596566005133e-01 4.210044514250093073e-01
3.928072085532658964e-01 4.444957186934743731e-01
3.938477574499312794e-01 3.735949730014489489e-01
3.948883063465966625e-01 3.111666625699598399e-01
3.959288552432620456e-01 3.716022894397923437e-01
3.969694041399274287e-01 4.068827583509673218e-01
3.980099530365928118e-01 4.866977710803084278e-01
3.990505019332581949e-01 3.169466033225454282e-01
4.000910508299235779e-01 3.022005564229353070e-01
4.011315997265889610e-01 5.095014387062413164e-01
4.021721486232543441e-01 2.958338694118047840e-01
4.032126975199197272e-01 2.457322802704346998e-01
4.042532464165851103e-01 3.192140592667342958e-01
4.052937953132504934e-01 4.885264663055437495e-01
4.063343442099158764e-01 4.399588095862121406e-01
4.073748931065812595e-01 1.104778979659570837e-01
4.084154420032466426e-01 2.013599756338635416e-03
4.094559908999120257e-01 2.141697161605371491e-01
4.104965397965774088e-01 2.443388572148492699e-01
4.115370886932427918e-01 1.474570124906939839e-01
4.125776375899081749e-01 2.203818300325828261e-01
4.136181864865735580e-01 3.505159401808448649e-01
4.146587353832389411e-01 3.609501294582386777e-01
4.156992842799043242e-01 2.054613738995989536e-01
4.167398331765697073e-01 6.283129247974983400e-02
4.177803820732350903e-01 1.279959520732418810e-01
4.188209309699004734e-01 1.283311062111458511e-01
4.198614798665658565e-01 1.256340546555954063e-01
4.209020287632312396e-01 2.468621394942047687e-01
4.219425776598966227e-01 3.102789975805642086e-01
4.229831265565620058e-01 2.747638433886834264e-01
4.240236754532273888e-01 2.629976636299673487e-01
4.250642243498927719e-01 2.777473348050527591e-01
4.261047732465581550e-01 4.689402357887644257e-01
4.271453221432235381e-01 3.457610872568324112e-01
4.281858710398889212e-01 2.506815772311199453e-01
4.292264199365543043e-01 4.642534665738224930e-01
4.302669688332196873e-01 3.530009811974501588e-01
4.313075177298850704e-01 1.500198872172049391e-01
4.323480666265504535e-01 2.885984176027278636e-01
4.333886155232158366e-01 2.912263407076025601e-01
4.344291644198812197e-01 3.223429476649677383e-01
