# q (1/Angstrom), Intensity (arb)
2.029070354705860696e-02 1.306368305956716313e+03
2.133125244372399004e-02 1.302366548108612278e+03
2.237180134038937659e-02 1.301215679337285565e+03
2.341235023705475968e-02 1.294376192813595253e+03
2.445289913372014276e-02 1.284133152936075021e+03
2.549344803038552584e-02 1.273157440405591615e+03
2.653399692705091240e-02 1.261499663719163891e+03
2.757454582371629548e-02 1.250806363751909203e+03
2.861509472038167856e-02 1.237669003485701978e+03
2.965564361704706164e-02 1.219782104821353641e+03
3.069619251371244473e-02 1.203392805677870228e+03
3.173674141037782781e-02 1.187482193630646407e+03
3.277729030704321089e-02 1.173427097127826528e+03
3.381783920370859398e-02 1.155619361641796559e+03
3.485838810037397706e-02 1.134698059663056938e+03
3.589893699703936014e-02 1.114396750934585498e+03
3.693948589370474322e-02 1.096188574940127637e+03
3.798003479037012631e-02 1.078403388853517072e+03
3.902058368703550939e-02 1.058421216776516530e+03
4.006113258370089247e-02 1.037556923407060367e+03
4.110168148036627556e-02 1.018333890222535160e+03
4.214223037703165864e-02 1.000674404709020905e+03
4.318277927369704866e-02 9.796951712825048162e+02
4.422332817036243174e-02 9.556566941908529316e+02
4.526387706702781483e-02 9.321715438461077383e+02
4.630442596369319791e-02 9.109309809954925186e+02
4.734497486035858099e-02 8.903356383170506660e+02
4.838552375702396408e-02 8.695783223697188760e+02
4.942607265368934716e-02 8.480500866226484504e+02
5.046662155035473024e-02 8.278270598862148972e+02
5.150717044702011332e-02 8.058038736229930237e+02
5.254771934368549641e-02 7.845639897615924383e+02
5.358826824035087949e-02 7.622539949986474994e+02
5.462881713701626257e-02 7.395248966548086855e+02
5.566936603368164566e-02 7.170700767999810523e+02
5.670991493034702874e-02 6.981456726887488458e+02
5.775046382701241182e-02 6.764424186866457376e+02
5.879101272367779490e-02 6.564801544418839967e+02
5.983156162034317799e-02 6.351368007986906150e+02
6.087211051700856107e-02 6.147860047005709703e+02
6.191265941367394415e-02 5.944748678868082834e+02
6.295320831033933417e-02 5.750073843334604362e+02
6.399375720700471726e-02 5.541012566628388640e+02
6.503430610367010034e-02 5.356031802151126158e+02
6.607485500033548342e-02 5.157449670747727168e+02
6.711540389700086651e-02 4.972132136354416616e+02
6.815595279366624959e-02 4.794559470788026943e+02
6.919650169033163267e-02 4.613937627823498246e+02
7.023705058699701576e-02 4.437106042936990775e+02
7.127759948366239884e-02 4.236306807262246252e+02
7.231814838032778192e-02 4.065023005029627257e+02
7.335869727699316500e-02 3.891982608994529187e+02
7.439924617365854809e-02 3.732173515214211079e+02
7.543979507032393117e-02 3.564085155830382519e+02
7.648034396698931425e-02 3.403541507274561013e+02
7.752089286365469734e-02 3.245824940412842921e+02
7.856144176032008042e-02 3.096438577654788560e+02
7.960199065698546350e-02 2.949047700468419748e+02
8.064253955365084658e-02 2.820816582666025170e+02
8.168308845031622967e-02 2.676389985780437542e+02
8.272363734698161275e-02 2.522577026401702938e+02
8.376418624364699583e-02 2.387733773088924920e+02
8.480473514031239279e-02 2.265330167118766553e+02
8.584528403697777588e-02 2.148647614300851956e+02
8.688583293364315896e-02 2.029459555301208127e+02
8.792638183030854204e-02 1.912142261208307730e+02
8.896693072697392513e-02 1.801296106857859058e+02
9.000747962363930821e-02 1.699373547932432587e+02
9.104802852030469129e-02 1.602032259039840767e+02
9.208857741697007437e-02 1.498827607360740330e+02
9.312912631363545746e-02 1.398277941144246199e+02
9.416967521030084054e-02 1.313275191899548986e+02
9.521022410696622362e-02 1.224994482778251097e+02
9.625077300363160671e-02 1.144104243241521601e+02
9.729132190029698979e-02 1.065666209030823666e+02
9.833187079696237287e-02 9.843470210895675621e+01
9.937241969362775595e-02 9.130668902838209533e+01
1.004129685902931390e-01 8.448743328795043794e+01
1.014535174869585221e-01 7.765300718784868650e+01
1.024940663836239052e-01 7.130844151736938841e+01
1.035346152802892883e-01 6.563215313506566417e+01
1.045751641769546714e-01 6.072927931028640103e+01
1.056157130736200545e-01 5.541973929456331405e+01
1.066562619702854375e-01 5.020163390269587467e+01
1.076968108669508206e-01 4.541777349826514865e+01
1.087373597636162037e-01 4.072397273493663050e+01
1.097779086602815868e-01 3.695101286650330508e+01
1.108184575569469699e-01 3.362530619190170711e+01
1.118590064536123529e-01 3.000356430181907186e+01
1.128995553502777360e-01 2.720027138462447525e+01
1.139401042469431191e-01 2.470526876161887131e+01
1.149806531436085022e-01 2.217569917514371269e+01
1.160212020402738853e-01 1.924996344246708446e+01
1.170617509369392684e-01 1.659787800506389743e+01
1.181022998336046514e-01 1.494851335714748330e+01
1.191428487302700345e-01 1.349232458976532456e+01
1.201833976269354176e-01 1.168873543620822630e+01
1.212239465236008007e-01 1.009025559332899391e+01
1.222644954202661838e-01 8.659020212380251991e+00
1.233050443169315669e-01 7.483621262192301060e+00
1.243455932135969499e-01 6.432657820616199729e+00
1.253861421102623330e-01 5.228062258404122531e+00
1.264266910069277161e-01 4.686293260508367808e+00
1.274672399035930992e-01 4.042997125743333697e+00
1.285077888002584823e-01 3.496069970902386359e+00
1.295483376969238654e-01 3.406888353378530354e+00
1.305888865935892484e-01 3.245593270255991314e+00
1.316294354902546315e-01 2.572039350796568868e+00
1.326699843869200146e-01 2.056234794873201821e+00
1.337105332835853977e-01 2.348308466828836316e+00
1.347510821802507808e-01 2.697768605732651537e+00
1.357916310769161639e-01 2.835464152705029051e+00
1.368321799735815469e-01 2.724669188360753225e+00
1.378727288702469300e-01 3.311884019506226906e+00
1.389132777669123131e-01 3.660423761727638947e+00
1.399538266635776962e-01 3.738109620668012667e+00
1.409943755602430793e-01 3.923317802952343669e+00
1.420349244569084624e-01 4.266169975518138813e+00
1.430754733535738454e-01 4.355539413448784813e+00
1.441160222502392285e-01 4.792899536683460582e+00
1.451565711469046116e-01 5.001953368969989100e+00
1.461971200435699947e-01 5.440516175624935613e+00
1.472376689402353778e-01 6.276893322035220990e+00
1.482782178369007609e-01 6.731709941147855147e+00
1.493187667335661439e-01 7.278705918241552553e+00
1.503593156302315270e-01 7.469065734120501787e+00
1.513998645268969101e-01 7.813422029235482569e+00
1.524404134235622932e-01 8.120030560316962465e+00
1.534809623202276763e-01 8.383848580835415731e+00
1.545215112168930593e-01 8.683967910858861217e+00
1.555620601135584424e-01 9.054084548902796570e+00
1.566026090102238255e-01 9.321143402125841249e+00
1.576431579068892086e-01 9.602995882996875565e+00
1.586837068035545917e-01 1.016133820608322225e+01
1.597242557002199748e-01 1.054734150163598372e+01
1.607648045968853578e-01 1.035307137042229542e+01
1.618053534935507409e-01 1.037399119113192469e+01
1.628459023902161240e-01 1.080451901423974803e+01
1.638864512868815071e-01 1.073051988083359731e+01
1.649270001835468902e-01 1.061945401986132254e+01
1.659675490802122733e-01 1.095503808277772606e+01
1.670080979768776563e-01 1.065572709440478860e+01
1.680486468735430672e-01 1.096254319552309653e+01
1.690891957702084503e-01 1.128955051382326502e+01
1.701297446668738333e-01 1.136942132430705144e+01
1.711702935635392164e-01 1.136792218331108018e+01
1.722108424602045995e-01 1.110999040284662343e+01
1.732513913568699826e-01 1.092090590171903131e+01
1.742919402535353657e-01 1.094555525833047227e+01
1.753324891502007488e-01 1.067999486036700318e+01
1.763730380468661318e-01 1.068302965280889438e+01
1.774135869435315149e-01 1.027355349238930771e+01
1.784541358401968980e-01 1.017389578814590223e+01
1.794946847368622811e-01 9.817443286719825579e+00
1.805352336335276642e-01 9.815870918334606898e+00
1.815757825301930473e-01 9.780163072535959401e+00
1.826163314268584303e-01 9.360406617996758882e+00
1.836568803235238134e-01 9.122851355540795737e+00
1.846974292201891965e-01 9.098803869200256855e+00
1.857379781168545796e-01 8.810341124945622937e+00
1.867785270135199627e-01 8.498370281053805542e+00
1.878190759101853458e-01 8.246894636397229306e+00
1.888596248068507288e-01 8.051266931622876655e+00
1.899001737035161119e-01 8.010820539218038050e+00
1.909407226001814950e-01 7.724920779981431451e+00
1.919812714968468781e-01 7.084577414693711717e+00
1.930218203935122612e-01 6.574765206463546008e+00
1.940623692901776443e-01 6.364329508903978194e+00
1.951029181868430273e-01 6.189847207936761464e+00
1.961434670835084104e-01 5.863584224320803173e+00
1.971840159801737935e-01 5.708153058189655127e+00
1.982245648768391766e-01 5.543086474287715504e+00
1.992651137735045597e-01 5.006628303916112799e+00
2.003056626701699428e-01 4.571671448881822641e+00
2.013462115668353813e-01 4.198124957090854537e+00
2.023867604635007644e-01 3.806766103661338718e+00
2.034273093601661475e-01 3.952024195942215101e+00
2.044678582568315306e-01 3.764312761832389498e+00
2.055084071534969137e-01 3.286619892232518936e+00
2.065489560501622968e-01 3.156152467716360377e+00
2.075895049468276798e-01 3.241608241536731327e+00
2.086300538434930629e-01 2.953079363571365690e+00
2.096706027401584460e-01 2.625382369099284574e+00
2.107111516368238291e-01 2.448825607696075934e+00
2.117517005334892122e-01 2.121058421404043770e+00
2.127922494301545953e-01 2.044968619123267217e+00
2.138327983268199783e-01 1.817375176657066049e+00
2.148733472234853614e-01 1.695101632191995833e+00
2.159138961201507445e-01 1.634791912774733902e+00
2.169544450168161276e-01 1.641127428686200318e+00
2.179949939134815107e-01 1.477697024527412140e+00
2.190355428101468938e-01 1.356324761398923329e+00
2.200760917068122768e-01 1.453890366504243303e+00
2.211166406034776599e-01 1.623219737510009253e+00
2.221571895001430430e-01 1.487731017792761179e+00
2.231977383968084261e-01 1.286926170641997658e+00
2.242382872934738092e-01 1.146544926318167512e+00
2.252788361901391923e-01 1.275784418535859999e+00
2.263193850868045753e-01 1.019619829542328659e+00
2.273599339834699584e-01 1.326632994550301703e+00
2.284004828801353415e-01 1.129810287471066488e+00
2.294410317768007246e-01 9.887453282196680959e-01
2.304815806734661077e-01 1.055598388923968400e+00
2.315221295701314908e-01 1.043178955412614073e+00
2.325626784667968738e-01 1.021410580556615599e+00
2.336032273634622569e-01 9.154992130417412000e-01
2.346437762601276400e-01 1.110229087594468922e+00
2.356843251567930231e-01 1.142056636924387192e+00
2.367248740534584062e-01 1.270261471757969218e+00
2.377654229501237892e-01 1.141578824369855027e+00
2.388059718467891723e-01 1.192971429470166100e+00
2.398465207434545554e-01 1.018664255857874679e+00
2.408870696401199385e-01 1.121635461533550426e+00
2.419276185367853216e-01 1.192522073557455542e+00
2.429681674334507047e-01 1.341435313857918032e+00
2.440087163301160877e-01 1.585018745743074220e+00
2.450492652267814708e-01 1.660602443428423669e+00
2.460898141234468539e-01 1.748500362780333717e+00
2.471303630201122370e-01 1.840054426898152684e+00
2.481709119167776201e-01 1.835201747812828188e+00
2.492114608134430032e-01 1.982400640902739042e+00
2.502520097101083585e-01 1.784287331748910077e+00
2.512925586067737416e-01 1.777229570216064758e+00
2.523331075034391247e-01 1.927436438575998778e+00
2.533736564001045077e-01 1.882311974771344154e+00
2.544142052967698908e-01 1.797699196339273442e+00
2.554547541934352739e-01 1.995665149334332256e+00
2.564953030901006570e-01 2.224549167779770187e+00
2.575358519867660401e-01 2.173139995813098579e+00
2.585764008834314231e-01 2.293335274817518865e+00
2.596169497800968062e-01 2.537468083030820054e+00
2.606574986767621893e-01 2.232051409872305214e+00
2.616980475734275724e-01 2.132843801649865867e+00
2.627385964700929555e-01 2.275744458042929352e+00
2.637791453667583386e-01 2.512930514703825224e+00
2.648196942634237216e-01 2.315928503992129350e+00
2.658602431600891047e-01 2.313250192714189524e+00
2.669007920567544878e-01 2.085670307980738158e+00
2.679413409534198709e-01 2.267759287882640251e+00
2.689818898500852540e-01 2.105200462364454239e+00
2.700224387467506371e-01 2.101483707962312764e+00
2.710629876434160201e-01 2.217286513110547475e+00
2.721035365400814032e-01 2.279806539877121452e+00
2.731440854367467863e-01 2.242181568564344474e+00
2.741846343334121694e-01 2.333852964424888654e+00
2.752251832300775525e-01 2.420736519027631317e+00
2.762657321267429356e-01 2.291709596849575092e+00
2.773062810234083186e-01 2.180753657005382706e+00
2.783468299200737017e-01 2.291627901820600499e+00
2.793873788167390848e-01 2.102646971903549655e+00
2.804279277134044679e-01 1.987994209889969000e+00
2.814684766100698510e-01 2.004871763161908405e+00
2.825090255067352341e-01 1.854162175330120732e+00
2.835495744034006171e-01 1.621889304779923435e+00
2.845901233000660002e-01 1.770072631130194196e+00
2.856306721967313833e-01 1.859834673262291460e+00
2.866712210933967664e-01 1.751295585064919891e+00
2.877117699900621495e-01 1.672812732334485020e+00
2.887523188867275326e-01 1.712599480582365885e+00
2.897928677833929156e-01 1.694738836708975072e+00
2.908334166800582987e-01 1.792700709426370054e+00
2.918739655767236818e-01 1.425503144510994247e+00
2.929145144733890649e-01 1.022748035410018019e+00
2.939550633700544480e-01 1.061176733360660762e+00
2.949956122667198311e-01 1.388546112446459091e+00
2.960361611633852141e-01 1.431475588508369867e+00
2.970767100600505972e-01 1.237654982235401491e+00
2.981172589567159803e-01 1.292396402835748859e+00
2.991578078533813634e-01 1.007133376668281954e+00
3.001983567500468020e-01 1.145385283868822768e+00
3.012389056467121851e-01 1.094080006552328399e+00
3.022794545433775681e-01 1.124771080982419846e+00
3.033200034400429512e-01 1.116356380483146893e+00
3.043605523367083343e-01 9.649780031071344411e-01
3.054011012333737174e-01 9.264767128616497871e-01
3.064416501300391005e-01 1.029165678011615626e+00
3.074821990267044836e-01 8.741650846970578925e-01
3.085227479233698666e-01 6.452814089648057916e-01
3.095632968200352497e-01 1.034177171414107477e+00
3.106038457167006328e-01 9.998879646054135151e-01
3.116443946133660159e-01 9.395333436525632465e-01
3.126849435100313990e-01 6.901756732662995830e-01
3.137254924066967821e-01 5.461001412327739502e-01
3.147660413033621651e-01 6.011791066536140704e-01
3.158065902000275482e-01 7.147940469138802655e-01
3.168471390966929313e-01 8.609781959274762642e-01
3.178876879933583144e-01 9.208371998529543134e-01
3.189282368900236975e-01 7.853282176690790095e-01
3.199687857866890806e-01 8.115571767168390238e-01
3.210093346833544636e-01 9.462860098741323611e-01
3.220498835800198467e-01 6.888774120243041921e-01
3.230904324766852298e-01 5.833564492414495817e-01
3.241309813733506129e-01 7.566273899283935123e-01
3.251715302700159960e-01 6.299788816057798613e-01
3.262120791666813790e-01 6.398774040028811783e-01
3.272526280633467621e-01 5.119758842177901670e-01
3.282931769600121452e-01 5.884596912098984944e-01
3.293337258566775283e-01 9.325747908799648656e-01
3.303742747533429114e-01 9.650425481194133681e-01
3.314148236500082945e-01 7.195812478565493109e-01
3.324553725466736775e-01 7.660397057794092746e-01
3.334959214433390606e-01 6.188149077816440524e-01
3.345364703400044437e-01 6.512938637595233615e-01
3.355770192366698268e-01 8.652817331487625552e-01
3.366175681333352099e-01 8.374255712117673056e-01
3.376581170300005930e-01 7.571973754486975849e-01
3.386986659266659760e-01 7.627391994362895389e-01
3.397392148233313591e-01 8.528313653135022321e-01
3.407797637199967422e-01 1.012887672168638176e+00
3.418203126166621253e-01 9.731504513968189940e-01
3.428608615133275084e-01 7.941229390661241894e-01
3.439014104099928915e-01 8.230702817782749037e-01
3.449419593066582745e-01 8.387748216912349619e-01
3.459825082033236576e-01 8.983051792097604960e-01
3.470230570999890407e-01 1.017053341284768209e+00
3.480636059966544238e-01 1.027957062995859872e+00
3.491041548933198069e-01 9.340897139788637560e-01
3.501447037899851900e-01 8.345322375854600239e-01
3.511852526866505730e-01 1.016290694254198712e+00
3.522258015833159561e-01 9.799773304113905681e-01
3.532663504799813392e-01 9.791180087013557909e-01
3.543068993766467223e-01 9.332585246525688660e-01
3.553474482733121054e-01 1.081283186681247344e+00
3.563879971699774885e-01 1.199173261892841680e+00
3.574285460666428715e-01 1.157841339552796001e+00
3.584690949633082546e-01 9.004706441214196389e-01
3.595096438599736377e-01 8.430193288133267515e-01
3.605501927566390208e-01 1.061681863518749935e+00
3.615907416533044039e-01 9.783227223746742141e-01
3.626312905499697870e-01 8.540937827116863446e-01
3.636718394466351700e-01 8.399742555683040734e-01
3.647123883433005531e-01 8.807610132192209562e-01
3.657529372399659362e-01 9.244801729579066318e-01
3.667934861366313193e-01 1.026879765768523356e+00
3.678340350332967024e-01 9.745699608464093444e-01
3.688745839299620854e-01 1.015420878527706350e+00
3.699151328266274685e-01 9.922316443569805244e-01
3.709556817232928516e-01 1.048089472467037098e+00
3.719962306199582347e-01 1.049086376662184961e+00
3.730367795166236178e-01 9.207132688490311523e-01
3.740773284132890009e-01 9.696586841249583699e-01
3.751178773099543839e-01 9.292911771659149167e-01
3.761584262066197670e-01 1.001781290473850561e+00
3.771989751032851501e-01 9.661450181048856223e-01
3.782395239999505332e-01 8.698697693804611220e-01
3.792800728966159163e-01 9.531580514315614039e-01
3.803206217932812994e-01 8.886431266231760162e-01
3.813611706899466824e-01 9.060379699725551461e-01
3.824017195866120655e-01 9.161648122867553923e-01
3.834422684832774486e-01 7.768531875402011622e-01
3.844828173799428317e-01 5.943675278453000033e-01
3.855233662766082148e-01 6.961442329085301139e-01
3.865639151732735979e-01 6.982619667058713731e-01
3.876044640699389809e-01 7.712405757048124144e-01
3.886450129666043640e-01 8.111419309899972063e-01
3.896855618632697471e-01 7.404667398939039913e-01
3.907261107599351302e-01 7.184786434770451535e-01
3.917666596566005133e-01 6.803369158201029165e-01
3.928072085532658964e-01 7.060171360398683760e-01
3.938477574499312794e-01 6.962897891189747668e-01
3.948883063465966625e-01 4.315463014775673400e-01
3.959288552432620456e-01 5.509449370674097679e-01
3.969694041399274287e-01 5.716762536744681711e-01
3.980099530365928118e-01 6.775976349818506606e-01
3.990505019332581949e-01 5.866295950399020853e-01
4.000910508299235779e-01 4.347802481007967401e-01
4.011315997265889610e-01 4.414856677515963668e-01
4.021721486232543441e-01 5.366033304559856276e-01
4.032126975199197272e-01 4.929010882746744926e-01
4.042532464165851103e-01 4.736912824936219124e-01
4.052937953132504934e-01 4.891491562035916729e-01
4.063343442099158764e-01 6.158354361757858442e-01
4.073748931065812595e-01 0.000000000000000000e+00
4.084154420032466426e-01 1.434874911149428556e-01
4.094559908999120257e-01 8.000317487196646482e-01
4.104965397965774088e-01 8.841789256862604418e-01
4.115370886932427918e-01 7.415696238432509801e-01
4.125776375899081749e-01 6.503773297006105736e-01
4.136181864865735580e-01 5.549671407732041928e-01
4.146587353832389411e-01 5.490585926133171313e-01
4.156992842799043242e-01 6.061794781046216940e-01
4.167398331765697073e-01 6.161830337864557805e-01
4.177803820732350903e-01 5.193185582826309599e-01
4.188209309699004734e-01 4.784389358517948665e-01
4.198614798665658565e-01 4.042190069202504787e-01
4.209020287632312396e-01 5.361837954819748120e-01
4.219425776598966227e-01 4.909430714630751424e-01
4.229831265565620058e-01 5.673487165460784354e-01
4.240236754532273888e-01 5.767006443887972011e-01
4.250642243498927719e-01 6.846806855355609400e-01
4.261047732465581550e-01 7.552475869268064912e-01
4.271453221432235381e-01 6.656595643971350285e-01
4.281858710398889212e-01 7.365077619017732502e-01
4.292264199365543043e-01 6.170332177164077336e-01
4.302669688332196873e-01 4.911065515616321875e-01
4.313075177298850704e-01 4.570184163647361686e-01
4.323480666265504535e-01 4.952343057717385477e-01
4.333886155232158366e-01 6.432136733161222253e-01
4.344291644198812197e-01 6.307578159025482023e-01
