# q (1/Angstrom), Intensity (arb)
2.029070354705860696e-02 1.257955918876970372e+03
2.133125244372399004e-02 1.250900175879266044e+03
2.237180134038937659e-02 1.244479908321902712e+03
2.341235023705475968e-02 1.232400747486075034e+03
2.445289913372014276e-02 1.225358742808374700e+03
2.549344803038552584e-02 1.214106854931695807e+03
2.653399692705091240e-02 1.203938397339681842e+03
2.757454582371629548e-02 1.193042496164006934e+03
2.861509472038167856e-02 1.176848473598121927e+03
2.965564361704706164e-02 1.164799473101709282e+03
3.069619251371244473e-02 1.150318125941451626e+03
3.173674141037782781e-02 1.129610472582693092e+03
3.277729030704321089e-02 1.113507155563681863e+03
3.381783920370859398e-02 1.099029517727662778e+03
3.485838810037397706e-02 1.083725498452670536e+03
3.589893699703936014e-02 1.067737109252003620e+03
3.693948589370474322e-02 1.048721468831697393e+03
3.798003479037012631e-02 1.029850780799908762e+03
3.902058368703550939e-02 1.011308494380974707e+03
4.006113258370089247e-02 9.911897998722521379e+02
4.110168148036627556e-02 9.737031402345241986e+02
4.214223037703165864e-02 9.554428925726713260e+02
4.318277927369704866e-02 9.338561820753043321e+02
4.422332817036243174e-02 9.152380498137771383e+02
4.526387706702781483e-02 8.924044304262990863e+02
4.630442596369319791e-02 8.716806318347291835e+02
4.734497486035858099e-02 8.481127335761681252e+02
4.838552375702396408e-02 8.303477459425386087e+02
4.942607265368934716e-02 8.069391855487518797e+02
5.046662155035473024e-02 7.840566403168357965e+02
5.150717044702011332e-02 7.633783049008453645e+02
5.254771934368549641e-02 7.457276661924670407e+02
5.358826824035087949e-02 7.266982885995350898e+02
5.462881713701626257e-02 7.071758171099548917e+02
5.566936603368164566e-02 6.842993528076234497e+02
5.670991493034702874e-02 6.641491088834712855e+02
5.775046382701241182e-02 6.433709861255779288e+02
5.879101272367779490e-02 6.242755673675961816e+02
5.983156162034317799e-02 6.056555984246342632e+02
6.087211051700856107e-02 5.854604943679856888e+02
6.191265941367394415e-02 5.669287067721439826e+02
6.295320831033933417e-02 5.467500407845401469e+02
6.399375720700471726e-02 5.257505562515229940e+02
6.503430610367010034e-02 5.067368764920480544e+02
6.607485500033548342e-02 4.899364956510435718e+02
6.711540389700086651e-02 4.732934265180605848e+02
6.815595279366624959e-02 4.540544806535363023e+02
6.919650169033163267e-02 4.351908174444761812e+02
7.023705058699701576e-02 4.177967493704844060e+02
7.127759948366239884e-02 4.020818383448955160e+02
7.231814838032778192e-02 3.840800484252111460e+02
7.335869727699316500e-02 3.688748666276803192e+02
7.439924617365854809e-02 3.522670331448896377e+02
7.543979507032393117e-02 3.358350861066504081e+02
7.648034396698931425e-02 3.226743786142365025e+02
7.752089286365469734e-02 3.083736159389709997e+02
7.856144176032008042e-02 2.930719211023824755e+02
7.960199065698546350e-02 2.797510179711910041e+02
8.064253955365084658e-02 2.662116395547849947e+02
8.168308845031622967e-02 2.528353171807059994e+02
8.272363734698161275e-02 2.393025739021305469e+02
8.376418624364699583e-02 2.267825175361224979e+02
8.480473514031239279e-02 2.150731573368202589e+02
8.584528403697777588e-02 2.033068974355198577e+02
8.688583293364315896e-02 1.912507667437552072e+02
8.792638183030854204e-02 1.807517483422333555e+02
8.896693072697392513e-02 1.704755547117609353e+02
9.000747962363930821e-02 1.602341551276753080e+02
9.104802852030469129e-02 1.493261423702138018e+02
9.208857741697007437e-02 1.407665128897213265e+02
9.312912631363545746e-02 1.326628551314827860e+02
9.416967521030084054e-02 1.233899212741094971e+02
9.521022410696622362e-02 1.157158083255033318e+02
9.625077300363160671e-02 1.065146074249089168e+02
9.729132190029698979e-02 9.918027692910510495e+01
9.833187079696237287e-02 9.204741269338931886e+01
9.937241969362775595e-02 8.554418111975309102e+01
1.004129685902931390e-01 7.903104800872657165e+01
1.014535174869585221e-01 7.275727221318834381e+01
1.024940663836239052e-01 6.734589513154074325e+01
1.035346152802892883e-01 6.215259460863118335e+01
1.045751641769546714e-01 5.634301238592561845e+01
1.056157130736200545e-01 5.190751163156762971e+01
1.066562619702854375e-01 4.700334884048595541e+01
1.076968108669508206e-01 4.255097724768147316e+01
1.087373597636162037e-01 3.895137107257737341e+01
1.097779086602815868e-01 3.493000542798721142e+01
1.108184575569469699e-01 3.108572500899576951e+01
1.118590064536123529e-01 2.797281924822633314e+01
1.128995553502777360e-01 2.482171343514593431e+01
1.139401042469431191e-01 2.233698354411804843e+01
1.149806531436085022e-01 1.989529053317690810e+01
1.160212020402738853e-01 1.770801820321892706e+01
1.170617509369392684e-01 1.582601083935197295e+01
1.181022998336046514e-01 1.310068494309231824e+01
1.191428487302700345e-01 1.129546911977373824e+01
1.201833976269354176e-01 9.863237708475423915e+00
1.212239465236008007e-01 8.794784799600069647e+00
1.222644954202661838e-01 7.506654015535517033e+00
1.233050443169315669e-01 6.186260511989917887e+00
1.243455932135969499e-01 5.247783471363195673e+00
1.253861421102623330e-01 4.318382786063882151e+00
1.264266910069277161e-01 3.636524441220906567e+00
1.274672399035930992e-01 3.125895582364876191e+00
1.285077888002584823e-01 2.897930837525354519e+00
1.295483376969238654e-01 2.651219323820047435e+00
1.305888865935892484e-01 2.627233704933178871e+00
1.316294354902546315e-01 2.288615595058164587e+00
1.326699843869200146e-01 2.033243668858478514e+00
1.337105332835853977e-01 1.604127167122374686e+00
1.347510821802507808e-01 1.528103451787067968e+00
1.357916310769161639e-01 1.824369246497433039e+00
1.368321799735815469e-01 2.136242813517519323e+00
1.378727288702469300e-01 2.724651767175274131e+00
1.389132777669123131e-01 2.771585313890103208e+00
1.399538266635776962e-01 3.426346204403607487e+00
1.409943755602430793e-01 3.903229434717417234e+00
1.420349244569084624e-01 3.967392783809003731e+00
1.430754733535738454e-01 4.146239815024923558e+00
1.441160222502392285e-01 4.362131737364247641e+00
1.451565711469046116e-01 4.792843289492346059e+00
1.461971200435699947e-01 4.997926364872594007e+00
1.472376689402353778e-01 5.498191003814870470e+00
1.482782178369007609e-01 5.891390397703563764e+00
1.493187667335661439e-01 6.175255062515976334e+00
1.503593156302315270e-01 6.538483724834804889e+00
1.513998645268969101e-01 6.899399779464648219e+00
1.524404134235622932e-01 7.064801037370020964e+00
1.534809623202276763e-01 7.826575339868380610e+00
1.545215112168930593e-01 8.257028183569907753e+00
1.555620601135584424e-01 8.189974486209774085e+00
1.566026090102238255e-01 8.720191157717078312e+00
1.576431579068892086e-01 8.915231100922422769e+00
1.586837068035545917e-01 9.130389225845963352e+00
1.597242557002199748e-01 9.403588326934180230e+00
1.607648045968853578e-01 9.560461099344514935e+00
1.618053534935507409e-01 9.655772256621919070e+00
1.628459023902161240e-01 9.303696158718324227e+00
1.638864512868815071e-01 9.685324169515666881e+00
1.649270001835468902e-01 1.000266306469258737e+01
1.659675490802122733e-01 1.009873690776380784e+01
1.670080979768776563e-01 1.025847702156305630e+01
1.680486468735430672e-01 1.039139483278743015e+01
1.690891957702084503e-01 1.025332293641541526e+01
1.701297446668738333e-01 1.054525181349992025e+01
1.711702935635392164e-01 1.042308011429232906e+01
1.722108424602045995e-01 1.017362022408790168e+01
1.732513913568699826e-01 1.029646128236699809e+01
1.742919402535353657e-01 1.034219967192240475e+01
1.753324891502007488e-01 1.001103488012597253e+01
1.763730380468661318e-01 9.644375272630238527e+00
1.774135869435315149e-01 9.721163958417452733e+00
1.784541358401968980e-01 9.590909309877460487e+00
1.794946847368622811e-01 8.994826305334523653e+00
1.805352336335276642e-01 9.186942682138145244e+00
1.815757825301930473e-01 9.081247440033088481e+00
1.826163314268584303e-01 8.822246987538779450e+00
1.836568803235238134e-01 8.409636385049118701e+00
1.846974292201891965e-01 8.008191161346687181e+00
1.857379781168545796e-01 7.918542310517828753e+00
1.867785270135199627e-01 7.487452364572568797e+00
1.878190759101853458e-01 7.399093327144694143e+00
1.888596248068507288e-01 7.088675996473995156e+00
1.899001737035161119e-01 6.561227812161096296e+00
1.909407226001814950e-01 6.718283833439308239e+00
1.919812714968468781e-01 6.512664420300467327e+00
1.930218203935122612e-01 5.870331695708973285e+00
1.940623692901776443e-01 5.696919625205087101e+00
1.951029181868430273e-01 5.281294145212736879e+00
1.961434670835084104e-01 4.958403332098967553e+00
1.971840159801737935e-01 4.733712681137198786e+00
1.982245648768391766e-01 4.769396012531629481e+00
1.992651137735045597e-01 4.476635672665661758e+00
2.003056626701699428e-01 4.064874706469392862e+00
2.013462115668353813e-01 3.749675392199993240e+00
2.023867604635007644e-01 3.502571964094208568e+00
2.034273093601661475e-01 3.214295390204956249e+00
2.044678582568315306e-01 3.131924028566711371e+00
2.055084071534969137e-01 2.898932111799251032e+00
2.065489560501622968e-01 2.630746277272578482e+00
2.075895049468276798e-01 2.450935690898528918e+00
2.086300538434930629e-01 2.268173502654928342e+00
2.096706027401584460e-01 2.137486237699079084e+00
2.107111516368238291e-01 2.047452230972229614e+00
2.117517005334892122e-01 1.761570541698418424e+00
2.127922494301545953e-01 1.690701259411223845e+00
2.138327983268199783e-01 1.838463414517654826e+00
2.148733472234853614e-01 1.279631933757244155e+00
2.159138961201507445e-01 1.169444528782680237e+00
2.169544450168161276e-01 1.270642770254351461e+00
2.179949939134815107e-01 1.097739443703357409e+00
2.190355428101468938e-01 9.573584121468776686e-01
2.200760917068122768e-01 9.213446981500688082e-01
2.211166406034776599e-01 7.159214038250922840e-01
2.221571895001430430e-01 7.972396991121968313e-01
2.231977383968084261e-01 9.593344364083229436e-01
2.242382872934738092e-01 8.103513794241052892e-01
2.252788361901391923e-01 5.672281913510062168e-01
2.263193850868045753e-01 5.032666691595828468e-01
2.273599339834699584e-01 6.793456664252310873e-01
2.284004828801353415e-01 5.570297369959575917e-01
2.294410317768007246e-01 2.591398956899944039e-01
2.304815806734661077e-01 4.092448818474245797e-01
2.315221295701314908e-01 2.210414069739954357e-01
2.325626784667968738e-01 4.694784176871102943e-01
2.336032273634622569e-01 6.532306544228774214e-01
2.346437762601276400e-01 8.984053673382277339e-01
2.356843251567930231e-01 8.759725491400693898e-01
2.367248740534584062e-01 1.141083297318811418e+00
2.377654229501237892e-01 1.183861801893385746e+00
2.388059718467891723e-01 8.152348225908774282e-01
2.398465207434545554e-01 8.269853847575170391e-01
2.408870696401199385e-01 1.069190619332221814e+00
2.419276185367853216e-01 1.025435753725627563e+00
2.429681674334507047e-01 1.100671096778928160e+00
2.440087163301160877e-01 1.215645996940818208e+00
2.450492652267814708e-01 1.095228118874096879e+00
2.460898141234468539e-01 1.201564089344472563e+00
2.471303630201122370e-01 1.224362771940487704e+00
2.481709119167776201e-01 1.293300187909192545e+00
2.492114608134430032e-01 1.641073137821162931e+00
2.502520097101083585e-01 1.599498924594886518e+00
2.512925586067737416e-01 1.574368133533806002e+00
2.523331075034391247e-01 1.459722804776333760e+00
2.533736564001045077e-01 1.508596483701168722e+00
2.544142052967698908e-01 1.568100810258364675e+00
2.554547541934352739e-01 1.626384955844873303e+00
2.564953030901006570e-01 1.731923548020915860e+00
2.575358519867660401e-01 1.770363771379560802e+00
2.585764008834314231e-01 1.680960909869678943e+00
2.596169497800968062e-01 1.651693809127070978e+00
2.606574986767621893e-01 1.789028354709419233e+00
2.616980475734275724e-01 1.747652823526124166e+00
2.627385964700929555e-01 1.821153299432413775e+00
2.637791453667583386e-01 1.691999057134932372e+00
2.648196942634237216e-01 1.908180613426029737e+00
2.658602431600891047e-01 2.101491480087911867e+00
2.669007920567544878e-01 1.677582265267218986e+00
2.679413409534198709e-01 1.728097816837792067e+00
2.689818898500852540e-01 1.633016673097895222e+00
2.700224387467506371e-01 1.482335805222270153e+00
2.710629876434160201e-01 1.679331018667987507e+00
2.721035365400814032e-01 1.910219333037204592e+00
2.731440854367467863e-01 1.644870670136896251e+00
2.741846343334121694e-01 1.615684649630161118e+00
2.752251832300775525e-01 1.891444366005856637e+00
2.762657321267429356e-01 1.861337076665723345e+00
2.773062810234083186e-01 1.708867404413105362e+00
2.783468299200737017e-01 1.603649203104435372e+00
2.793873788167390848e-01 1.611453143825606560e+00
2.804279277134044679e-01 1.756560212060758630e+00
2.814684766100698510e-01 1.591133794599357998e+00
2.825090255067352341e-01 1.488039784804467303e+00
2.835495744034006171e-01 1.329360700011342544e+00
2.845901233000660002e-01 1.361249634690281596e+00
2.856306721967313833e-01 1.387783276761954454e+00
2.866712210933967664e-01 1.294422811041020083e+00
2.877117699900621495e-01 1.144247187676977973e+00
2.887523188867275326e-01 1.023378049590522920e+00
2.897928677833929156e-01 9.113225075959832111e-01
2.908334166800582987e-01 1.090918951087434863e+00
2.918739655767236818e-01 1.183248610364593389e+00
2.929145144733890649e-01 1.146091457014250636e+00
2.939550633700544480e-01 9.074527065153752403e-01
2.949956122667198311e-01 8.730998803387954865e-01
2.960361611633852141e-01 1.072448441412149123e+00
2.970767100600505972e-01 9.656540000988265149e-01
2.981172589567159803e-01 7.984116057347669937e-01
2.991578078533813634e-01 7.039084838036373526e-01
3.001983567500468020e-01 1.022023093805398020e+00
3.012389056467121851e-01 1.140849475431348736e+00
3.022794545433775681e-01 7.711452931904503316e-01
3.033200034400429512e-01 6.826490331387020660e-01
3.043605523367083343e-01 5.521462704149726619e-01
3.054011012333737174e-01 4.633892337584981647e-01
3.064416501300391005e-01 7.988039981770675979e-01
3.074821990267044836e-01 9.082487007558910364e-01
3.085227479233698666e-01 6.579853852285424409e-01
3.095632968200352497e-01 3.840467716590616476e-01
3.106038457167006328e-01 4.477760705307218814e-01
3.116443946133660159e-01 5.126642888468282422e-01
3.126849435100313990e-01 5.620399471877064457e-01
3.137254924066967821e-01 3.596016504494272681e-01
3.147660413033621651e-01 4.358593955950347265e-01
3.158065902000275482e-01 4.910509878402216088e-01
3.168471390966929313e-01 4.784235048680329783e-01
3.178876879933583144e-01 4.535721694160876893e-01
3.189282368900236975e-01 2.224015483301116092e-01
3.199687857866890806e-01 3.431834380441181054e-01
3.210093346833544636e-01 5.364888578828335142e-01
3.220498835800198467e-01 5.993947917934505654e-01
3.230904324766852298e-01 6.712516433131376914e-01
3.241309813733506129e-01 6.621397716023338376e-01
3.251715302700159960e-01 7.782597056417976944e-01
3.262120791666813790e-01 5.214915848751608962e-01
3.272526280633467621e-01 4.168290956541653713e-01
3.282931769600121452e-01 5.094069449389380111e-01
3.293337258566775283e-01 4.749276066609233737e-01
3.303742747533429114e-01 4.913303107723052676e-01
3.314148236500082945e-01 5.573511215597974910e-01
3.324553725466736775e-01 3.568384198708081101e-01
3.334959214433390606e-01 5.955106683938886647e-01
3.345364703400044437e-01 6.391146542488606030e-01
3.355770192366698268e-01 4.102635436821131520e-01
3.366175681333352099e-01 4.719320652717620135e-01
3.376581170300005930e-01 6.013552429922803810e-01
3.386986659266659760e-01 4.731445888244074638e-01
3.397392148233313591e-01 3.058728301504451963e-01
3.407797637199967422e-01 5.242420926797066727e-01
3.418203126166621253e-01 7.110797269249999886e-01
3.428608615133275084e-01 6.000061037832580269e-01
3.439014104099928915e-01 3.992306922876167619e-01
3.449419593066582745e-01 5.928066781919483219e-01
3.459825082033236576e-01 6.349618091210587068e-01
3.470230570999890407e-01 5.961001287351166411e-01
3.480636059966544238e-01 6.214371837482772776e-01
3.491041548933198069e-01 8.918904635790205759e-01
3.501447037899851900e-01 7.812892898123244834e-01
3.511852526866505730e-01 7.029882824966442456e-01
3.522258015833159561e-01 5.178032759253845541e-01
3.532663504799813392e-01 5.936094361093928740e-01
3.543068993766467223e-01 7.639574054311850659e-01
3.553474482733121054e-01 8.068873859340861543e-01
3.563879971699774885e-01 6.635543695381826979e-01
3.574285460666428715e-01 6.908468109799486001e-01
3.584690949633082546e-01 6.974178509048307717e-01
3.595096438599736377e-01 7.353213896535422123e-01
3.605501927566390208e-01 7.960572071375047187e-01
3.615907416533044039e-01 9.464070875532080152e-01
3.626312905499697870e-01 8.236721024406392644e-01
3.636718394466351700e-01 7.498860792521107044e-01
3.647123883433005531e-01 6.405561211491956897e-01
3.657529372399659362e-01 6.217328358484479622e-01
3.667934861366313193e-01 6.950112882872652165e-01
3.678340350332967024e-01 7.734150632966318994e-01
3.688745839299620854e-01 7.091189820744610017e-01
3.699151328266274685e-01 5.910160227025542667e-01
3.709556817232928516e-01 3.589059972794110820e-01
3.719962306199582347e-01 3.145241016874003037e-01
3.730367795166236178e-01 3.727113967564967822e-01
3.740773284132890009e-01 5.026866399923015649e-01
3.751178773099543839e-01 5.999986140870241513e-01
3.761584262066197670e-01 5.524273240513046801e-01
3.771989751032851501e-01 5.679654359480501569e-01
3.782395239999505332e-01 5.129057955750937481e-01
3.792800728966159163e-01 6.123890060527195089e-01
3.803206217932812994e-01 7.049399294757741075e-01
3.813611706899466824e-01 5.431190544579287405e-01
3.824017195866120655e-01 4.027373134688012613e-01
3.834422684832774486e-01 4.110564359052375494e-01
3.844828173799428317e-01 5.583658980659542692e-01
3.855233662766082148e-01 5.122870198713123102e-01
3.865639151732735979e-01 4.678260312511355323e-01
3.876044640699389809e-01 5.088572496012346846e-01
3.886450129666043640e-01 4.368365764306787469e-01
3.896855618632697471e-01 4.395371536932124457e-01
3.907261107599351302e-01 4.489768682841059899e-01
3.917666596566005133e-01 4.230719082995371139e-01
3.928072085532658964e-01 4.706540264099992044e-01
3.938477574499312794e-01 5.128849014753100732e-01
3.948883063465966625e-01 3.715458316721509391e-01
3.959288552432620456e-01 2.127363664367969420e-01
3.969694041399274287e-01 9.652509121343300080e-02
3.980099530365928118e-01 2.411893976398218342e-01
3.990505019332581949e-01 4.931955964202536791e-01
4.000910508299235779e-01 5.477015430926073236e-01
4.011315997265889610e-01 2.864673902940850780e-01
4.021721486232543441e-01 3.277879968800654353e-01
4.032126975199197272e-01 4.487648119269778135e-01
4.042532464165851103e-01 4.227603737110037230e-01
4.052937953132504934e-01 3.856104079135640461e-01
4.063343442099158764e-01 5.203263669700390892e-01
4.073748931065812595e-01 4.045390678873701518e-01
4.084154420032466426e-01 5.306570199020939071e-01
4.094559908999120257e-01 5.103757952724663483e-01
4.104965397965774088e-01 5.062891502209332373e-01
4.115370886932427918e-01 4.771467711846710813e-01
4.125776375899081749e-01 4.223862848726973596e-01
4.136181864865735580e-01 4.603063703937522178e-01
4.146587353832389411e-01 3.905827709379785517e-01
4.156992842799043242e-01 3.502958737830361713e-01
4.167398331765697073e-01 3.315796467545695236e-01
4.177803820732350903e-01 5.398990956213651771e-01
4.188209309699004734e-01 3.397386585662758307e-01
4.198614798665658565e-01 4.758379134354768780e-01
4.209020287632312396e-01 4.895893303200509195e-01
4.219425776598966227e-01 2.906769344886335205e-01
4.229831265565620058e-01 4.076033792688136259e-01
4.240236754532273888e-01 5.539515974191431269e-01
4.250642243498927719e-01 5.887242222342727871e-01
4.261047732465581550e-01 2.839256448923457299e-01
4.271453221432235381e-01 2.754544725850074371e-01
4.281858710398889212e-01 3.466408752641889635e-01
4.292264199365543043e-01 3.878960518175560424e-01
4.302669688332196873e-01 2.130205081964007263e-01
4.313075177298850704e-01 0.000000000000000000e+00
4.323480666265504535e-01 1.985179391450735409e-01
4.333886155232158366e-01 4.379317300614751218e-01
4.344291644198812197e-01 5.625202031349481047e-01
