# q (1/Angstrom), Intensity (arb)
2.029070354705860696e-02 1.323421391885080084e+03
2.133125244372399004e-02 1.317576605436814589e+03
2.237180134038937659e-02 1.314361399441059802e+03
2.341235023705475968e-02 1.311886448415955329e+03
2.445289913372014276e-02 1.300423456947971090e+03
2.549344803038552584e-02 1.288754596978441441e+03
2.653399692705091240e-02 1.273090741956438706e+03
2.757454582371629548e-02 1.260428419815394363e+03
2.861509472038167856e-02 1.246784488701559894e+03
2.965564361704706164e-02 1.233477437407271509e+03
3.069619251371244473e-02 1.220686326478305318e+03
3.173674141037782781e-02 1.197187277671396487e+03
3.277729030704321089e-02 1.183792931828857490e+03
3.381783920370859398e-02 1.162621917688803478e+03
3.485838810037397706e-02 1.141849962645864252e+03
3.589893699703936014e-02 1.126762057477311600e+03
3.693948589370474322e-02 1.107047213746331408e+03
3.798003479037012631e-02 1.089459517257345851e+03
3.902058368703550939e-02 1.072891618713498247e+03
4.006113258370089247e-02 1.050194312649938411e+03
4.110168148036627556e-02 1.027219511398754776e+03
4.214223037703165864e-02 1.005279114513904915e+03
4.318277927369704866e-02 9.859155664012721445e+02
4.422332817036243174e-02 9.660196825572782018e+02
4.526387706702781483e-02 9.467210078990602824e+02
4.630442596369319791e-02 9.242659120082811341e+02
4.734497486035858099e-02 9.029483243016198912e+02
4.838552375702396408e-02 8.800791980048329606e+02
4.942607265368934716e-02 8.580721464036080306e+02
5.046662155035473024e-02 8.384877098494416714e+02
5.150717044702011332e-02 8.157307983036150745e+02
5.254771934368549641e-02 7.927502506789289782e+02
5.358826824035087949e-02 7.707755438112976663e+02
5.462881713701626257e-02 7.492132371874305363e+02
5.566936603368164566e-02 7.269276342792073820e+02
5.670991493034702874e-02 7.073200759779323334e+02
5.775046382701241182e-02 6.873992582267874241e+02
5.879101272367779490e-02 6.648099352972863016e+02
5.983156162034317799e-02 6.422916796340434757e+02
6.087211051700856107e-02 6.202135933005356492e+02
6.191265941367394415e-02 5.992352472552441895e+02
6.295320831033933417e-02 5.820312749997748369e+02
6.399375720700471726e-02 5.619901137501534549e+02
6.503430610367010034e-02 5.415568238545255326e+02
6.607485500033548342e-02 5.218881374468023751e+02
6.711540389700086651e-02 5.019644072588327504e+02
6.815595279366624959e-02 4.830355618750788835e+02
6.919650169033163267e-02 4.663007547657963414e+02
7.023705058699701576e-02 4.479833540543639856e+02
7.127759948366239884e-02 4.279629411044379594e+02
7.231814838032778192e-02 4.103840272806265830e+02
7.335869727699316500e-02 3.936555312363768735e+02
7.439924617365854809e-02 3.787899711041919772e+02
7.543979507032393117e-02 3.645647126218734684e+02
7.648034396698931425e-02 3.441755306668066510e+02
7.752089286365469734e-02 3.275977159102745873e+02
7.856144176032008042e-02 3.115557380575921798e+02
7.960199065698546350e-02 2.980090555940385002e+02
8.064253955365084658e-02 2.849911429074634839e+02
8.168308845031622967e-02 2.714634604412552221e+02
8.272363734698161275e-02 2.566682965774335798e+02
8.376418624364699583e-02 2.432222228759883080e+02
8.480473514031239279e-02 2.303576434460635483e+02
8.584528403697777588e-02 2.175441875610147804e+02
8.688583293364315896e-02 2.045508846883172680e+02
8.792638183030854204e-02 1.935510157428914511e+02
8.896693072697392513e-02 1.829032621806361192e+02
9.000747962363930821e-02 1.720406848237472843e+02
9.104802852030469129e-02 1.617736387538546410e+02
9.208857741697007437e-02 1.523963067192743779e+02
9.312912631363545746e-02 1.425362475704145027e+02
9.416967521030084054e-02 1.337243018835853263e+02
9.521022410696622362e-02 1.240427122944015252e+02
9.625077300363160671e-02 1.150899231233589148e+02
9.729132190029698979e-02 1.079329476734953062e+02
9.833187079696237287e-02 1.002734239604839672e+02
9.937241969362775595e-02 9.254003071441633210e+01
1.004129685902931390e-01 8.544080183755727376e+01
1.014535174869585221e-01 7.883569031818817052e+01
1.024940663836239052e-01 7.236039450903875547e+01
1.035346152802892883e-01 6.618590948812531849e+01
1.045751641769546714e-01 6.068348968967214319e+01
1.056157130736200545e-01 5.544040969441694955e+01
1.066562619702854375e-01 5.046847908323981358e+01
1.076968108669508206e-01 4.619417405134088739e+01
1.087373597636162037e-01 4.210925805107178377e+01
1.097779086602815868e-01 3.796023916970275280e+01
1.108184575569469699e-01 3.419702514807360672e+01
1.118590064536123529e-01 3.038679839340941768e+01
1.128995553502777360e-01 2.690775257219492644e+01
1.139401042469431191e-01 2.413437125316045595e+01
1.149806531436085022e-01 2.166663185798837787e+01
1.160212020402738853e-01 1.883684444463209218e+01
1.170617509369392684e-01 1.659584346769993957e+01
1.181022998336046514e-01 1.488444761347759027e+01
1.191428487302700345e-01 1.252014128792034597e+01
1.201833976269354176e-01 1.086208950459252520e+01
1.212239465236008007e-01 9.680354138434783096e+00
1.222644954202661838e-01 8.589908555282754321e+00
1.233050443169315669e-01 7.401099653907667886e+00
1.243455932135969499e-01 6.170233010924103922e+00
1.253861421102623330e-01 5.100200985281567512e+00
1.264266910069277161e-01 4.250271028868805701e+00
1.274672399035930992e-01 3.997186599806028084e+00
1.285077888002584823e-01 3.750252113478843796e+00
1.295483376969238654e-01 3.006809353741338953e+00
1.305888865935892484e-01 2.616366715807824761e+00
1.316294354902546315e-01 2.109000717973010808e+00
1.326699843869200146e-01 2.044328144408918746e+00
1.337105332835853977e-01 2.260113314644954130e+00
1.347510821802507808e-01 2.340812906002913252e+00
1.357916310769161639e-01 2.162403469421647628e+00
1.368321799735815469e-01 2.528467983623365001e+00
1.378727288702469300e-01 2.829944353706515869e+00
1.389132777669123131e-01 2.860692457477256312e+00
1.399538266635776962e-01 3.245037667760200861e+00
1.409943755602430793e-01 3.361197369656345302e+00
1.420349244569084624e-01 3.755512905754187614e+00
1.430754733535738454e-01 4.281967365248142698e+00
1.441160222502392285e-01 4.721078492826475070e+00
1.451565711469046116e-01 4.963221566737807677e+00
1.461971200435699947e-01 5.319162055663305466e+00
1.472376689402353778e-01 5.892564797392509490e+00
1.482782178369007609e-01 6.211034551400164361e+00
1.493187667335661439e-01 6.853589755600179245e+00
1.503593156302315270e-01 7.286467223482503641e+00
1.513998645268969101e-01 7.528262083154611872e+00
1.524404134235622932e-01 7.882207066373233317e+00
1.534809623202276763e-01 7.859673497086941296e+00
1.545215112168930593e-01 8.258793462036148725e+00
1.555620601135584424e-01 8.896172972456160011e+00
1.566026090102238255e-01 9.396217588790417352e+00
1.576431579068892086e-01 9.639909489443716950e+00
1.586837068035545917e-01 1.001210540521692849e+01
1.597242557002199748e-01 9.807355068716997692e+00
1.607648045968853578e-01 1.024982067849383327e+01
1.618053534935507409e-01 1.031334981712297605e+01
1.628459023902161240e-01 1.043458277201916218e+01
1.638864512868815071e-01 1.053170942692109691e+01
1.649270001835468902e-01 1.104760877412796916e+01
1.659675490802122733e-01 1.094328175818329640e+01
1.670080979768776563e-01 1.110573043516773950e+01
1.680486468735430672e-01 1.102323506477636528e+01
1.690891957702084503e-01 1.133168520855549843e+01
1.701297446668738333e-01 1.124093881738657430e+01
1.711702935635392164e-01 1.121093561245874426e+01
1.722108424602045995e-01 1.113456625563154390e+01
1.732513913568699826e-01 1.102483692691966866e+01
1.742919402535353657e-01 1.064587208186311429e+01
1.753324891502007488e-01 1.058412634074866432e+01
1.763730380468661318e-01 1.029642328017957098e+01
1.774135869435315149e-01 1.044921775564094091e+01
1.784541358401968980e-01 1.079763414117452669e+01
1.794946847368622811e-01 1.036616905449278647e+01
1.805352336335276642e-01 1.002434517325060881e+01
1.815757825301930473e-01 9.649861641690122838e+00
1.826163314268584303e-01 9.465353423954290690e+00
1.836568803235238134e-01 9.166628955960248959e+00
1.846974292201891965e-01 8.736625349488569725e+00
1.857379781168545796e-01 8.273527528516947172e+00
1.867785270135199627e-01 8.123776692711231817e+00
1.878190759101853458e-01 8.009871054595006257e+00
1.888596248068507288e-01 7.563194398209748925e+00
1.899001737035161119e-01 7.419468708469441509e+00
1.909407226001814950e-01 7.232334851665505937e+00
1.919812714968468781e-01 6.988581950405020393e+00
1.930218203935122612e-01 6.392005963464580276e+00
1.940623692901776443e-01 6.126386116626406420e+00
1.951029181868430273e-01 5.847901016338994395e+00
1.961434670835084104e-01 5.540480152271626935e+00
1.971840159801737935e-01 5.280414270373068319e+00
1.982245648768391766e-01 4.901900941019952995e+00
1.992651137735045597e-01 4.606158959529814467e+00
2.003056626701699428e-01 4.336514448695208301e+00
2.013462115668353813e-01 4.109457688909806450e+00
2.023867604635007644e-01 4.034867124917102643e+00
2.034273093601661475e-01 4.055305900358785465e+00
2.044678582568315306e-01 3.759028551137831187e+00
2.055084071534969137e-01 3.237438439293764958e+00
2.065489560501622968e-01 3.047243091272797244e+00
2.075895049468276798e-01 2.846370075390620258e+00
2.086300538434930629e-01 2.632104354435298887e+00
2.096706027401584460e-01 2.495301216050656024e+00
2.107111516368238291e-01 2.246618646840616407e+00
2.117517005334892122e-01 2.045110924368660932e+00
2.127922494301545953e-01 1.996130734354263581e+00
2.138327983268199783e-01 1.879589124664917676e+00
2.148733472234853614e-01 1.897136965924318019e+00
2.159138961201507445e-01 1.554528494429018082e+00
2.169544450168161276e-01 1.384899391714764505e+00
2.179949939134815107e-01 1.279620375899110485e+00
2.190355428101468938e-01 1.131973126030896282e+00
2.200760917068122768e-01 1.069147395955351243e+00
2.211166406034776599e-01 9.329329277999498515e-01
2.221571895001430430e-01 9.667246264824456148e-01
2.231977383968084261e-01 8.867990130207523691e-01
2.242382872934738092e-01 1.066514359855116112e+00
2.252788361901391923e-01 8.963307204617478874e-01
2.263193850868045753e-01 8.881858000153250998e-01
2.273599339834699584e-01 8.598461255407237047e-01
2.284004828801353415e-01 8.251652944677871915e-01
2.294410317768007246e-01 7.978891665332170646e-01
2.304815806734661077e-01 9.762488308473038501e-01
2.315221295701314908e-01 9.473181849505145635e-01
2.325626784667968738e-01 7.768772117513158548e-01
2.336032273634622569e-01 7.518134591932543742e-01
2.346437762601276400e-01 9.639438297265421340e-01
2.356843251567930231e-01 1.233452934359611675e+00
2.367248740534584062e-01 9.264503754027053617e-01
2.377654229501237892e-01 1.159963574285324484e+00
2.388059718467891723e-01 1.342761181502890366e+00
2.398465207434545554e-01 1.247247211051579541e+00
2.408870696401199385e-01 1.183303802375348823e+00
2.419276185367853216e-01 1.428989148992638292e+00
2.429681674334507047e-01 1.484370062045989869e+00
2.440087163301160877e-01 1.474967990084060432e+00
2.450492652267814708e-01 1.391442210446083294e+00
2.460898141234468539e-01 1.095409981934665211e+00
2.471303630201122370e-01 1.121733108951364244e+00
2.481709119167776201e-01 1.469649395157325955e+00
2.492114608134430032e-01 1.803536451100313798e+00
2.502520097101083585e-01 1.695992317858927123e+00
2.512925586067737416e-01 1.609498908978917342e+00
2.523331075034391247e-01 1.892717258455657969e+00
2.533736564001045077e-01 2.184672287127991552e+00
2.544142052967698908e-01 1.731826833366998386e+00
2.554547541934352739e-01 1.747573114826131757e+00
2.564953030901006570e-01 1.848924291797839459e+00
2.575358519867660401e-01 2.091027199801700931e+00
2.585764008834314231e-01 2.140666300210106954e+00
2.596169497800968062e-01 2.285316753869469864e+00
2.606574986767621893e-01 2.048656684459469801e+00
2.616980475734275724e-01 1.914489354089365492e+00
2.627385964700929555e-01 1.909706946219206003e+00
2.637791453667583386e-01 1.955472215967393623e+00
2.648196942634237216e-01 2.085992741228213987e+00
2.658602431600891047e-01 2.072177517760792398e+00
2.669007920567544878e-01 2.015574411574831970e+00
2.679413409534198709e-01 1.920582246929093628e+00
2.689818898500852540e-01 2.127657407699651060e+00
2.700224387467506371e-01 2.019865556752588276e+00
2.710629876434160201e-01 1.902398427275166171e+00
2.721035365400814032e-01 1.684397034025810314e+00
2.731440854367467863e-01 2.031199172563077582e+00
2.741846343334121694e-01 2.011871341829618132e+00
2.752251832300775525e-01 1.917781420774222312e+00
2.762657321267429356e-01 1.945484310904067371e+00
2.773062810234083186e-01 1.955470775026711294e+00
2.783468299200737017e-01 1.830972223103316310e+00
2.793873788167390848e-01 1.621732077463953203e+00
2.804279277134044679e-01 1.777188673157095167e+00
2.814684766100698510e-01 1.633013376402729477e+00
2.825090255067352341e-01 1.661444862971503511e+00
2.835495744034006171e-01 1.405185857236091351e+00
2.845901233000660002e-01 1.357390738376473394e+00
2.856306721967313833e-01 1.512993460547114921e+00
2.866712210933967664e-01 1.580374051111956391e+00
2.877117699900621495e-01 1.409960604682442664e+00
2.887523188867275326e-01 1.271464304962517389e+00
2.897928677833929156e-01 1.339224383776937088e+00
2.908334166800582987e-01 1.332716151631334611e+00
2.918739655767236818e-01 1.406865950876973415e+00
2.929145144733890649e-01 1.190819832344693907e+00
2.939550633700544480e-01 1.174663078281952266e+00
2.949956122667198311e-01 1.164771328319652355e+00
2.960361611633852141e-01 1.104701096920361891e+00
2.970767100600505972e-01 1.163161470747624548e+00
2.981172589567159803e-01 1.234511854265054609e+00
2.991578078533813634e-01 1.090955463559108551e+00
3.001983567500468020e-01 1.037825959774952622e+00
3.012389056467121851e-01 1.062280488606266005e+00
3.022794545433775681e-01 9.941925222043614951e-01
3.033200034400429512e-01 7.729740191843958996e-01
3.043605523367083343e-01 6.793517697587745374e-01
3.054011012333737174e-01 8.257398466839482865e-01
3.064416501300391005e-01 9.065822940575358757e-01
3.074821990267044836e-01 7.566416887760389898e-01
3.085227479233698666e-01 9.126668124173100693e-01
3.095632968200352497e-01 8.523361603306227607e-01
3.106038457167006328e-01 6.312988111284809634e-01
3.116443946133660159e-01 5.621777631426390087e-01
3.126849435100313990e-01 4.250151838267406390e-01
3.137254924066967821e-01 4.364458007382445714e-01
3.147660413033621651e-01 5.300424398656495839e-01
3.158065902000275482e-01 4.468751693189858543e-01
3.168471390966929313e-01 4.739602359866239567e-01
3.178876879933583144e-01 4.540937411574788030e-01
3.189282368900236975e-01 5.224938882564060805e-01
3.199687857866890806e-01 5.955426380513877405e-01
3.210093346833544636e-01 6.177748197778676342e-01
3.220498835800198467e-01 6.366961334060725619e-01
3.230904324766852298e-01 6.155667951743666322e-01
3.241309813733506129e-01 6.752393436653179037e-01
3.251715302700159960e-01 5.370846300674010365e-01
3.262120791666813790e-01 6.061879190483665525e-01
3.272526280633467621e-01 5.072226997878495069e-01
3.282931769600121452e-01 3.711457863222946685e-01
3.293337258566775283e-01 3.622583931235787702e-01
3.303742747533429114e-01 5.364160947063751905e-01
3.314148236500082945e-01 5.535208631716841410e-01
3.324553725466736775e-01 6.117533019207996858e-01
3.334959214433390606e-01 3.914238034113246556e-01
3.345364703400044437e-01 4.539107653862153313e-01
3.355770192366698268e-01 4.806041812341064201e-01
3.366175681333352099e-01 4.596780593870413156e-01
3.376581170300005930e-01 4.271920499355914558e-01
3.386986659266659760e-01 6.820187987328090173e-01
3.397392148233313591e-01 8.737932270806538781e-01
3.407797637199967422e-01 8.654938339253455126e-01
3.418203126166621253e-01 7.396529576258714656e-01
3.428608615133275084e-01 6.783446697549777582e-01
3.439014104099928915e-01 6.735952584315647584e-01
3.449419593066582745e-01 7.560903573932016286e-01
3.459825082033236576e-01 6.574134053632967323e-01
3.470230570999890407e-01 7.762558672254904479e-01
3.480636059966544238e-01 6.847140870376264843e-01
3.491041548933198069e-01 5.513411330688064993e-01
3.501447037899851900e-01 7.483932533374400009e-01
3.511852526866505730e-01 7.100837440022047531e-01
3.522258015833159561e-01 7.380669959945578285e-01
3.532663504799813392e-01 6.475297585952084489e-01
3.543068993766467223e-01 6.777020060486620423e-01
3.553474482733121054e-01 6.609745038753729318e-01
3.563879971699774885e-01 7.832611858431413054e-01
3.574285460666428715e-01 9.161418382020869444e-01
3.584690949633082546e-01 7.928448297318482219e-01
3.595096438599736377e-01 9.445715158089029728e-01
3.605501927566390208e-01 8.863881365795585054e-01
3.615907416533044039e-01 8.179223763087968280e-01
3.626312905499697870e-01 5.273012110366828153e-01
3.636718394466351700e-01 3.977798045487972445e-01
3.647123883433005531e-01 5.705086350301264986e-01
3.657529372399659362e-01 6.820458375241891247e-01
3.667934861366313193e-01 8.086329592780145958e-01
3.678340350332967024e-01 6.751732369185816651e-01
3.688745839299620854e-01 5.076537065905277757e-01
3.699151328266274685e-01 7.454513546034675642e-01
3.709556817232928516e-01 7.394309960401095339e-01
3.719962306199582347e-01 6.083811588033221085e-01
3.730367795166236178e-01 7.102347234512684793e-01
3.740773284132890009e-01 7.495831263009513634e-01
3.751178773099543839e-01 8.266566755080440032e-01
3.761584262066197670e-01 8.066571279947254425e-01
3.771989751032851501e-01 7.562405427443259498e-01
3.782395239999505332e-01 6.965157842927993670e-01
3.792800728966159163e-01 6.082952808238175635e-01
3.803206217932812994e-01 6.083210229922286771e-01
3.813611706899466824e-01 5.557291485205269055e-01
3.824017195866120655e-01 5.435374184195929104e-01
3.834422684832774486e-01 6.969427491139974506e-01
3.844828173799428317e-01 6.130696677494462676e-01
3.855233662766082148e-01 5.763135859133186045e-01
3.865639151732735979e-01 7.269848212304275137e-01
3.876044640699389809e-01 5.937897344613354278e-01
3.886450129666043640e-01 2.497318829573451637e-01
3.896855618632697471e-01 4.211821755291325076e-01
3.907261107599351302e-01 4.526151633255466322e-01
3.917666596566005133e-01 4.460466704360008805e-01
3.928072085532658964e-01 4.955723180586524279e-01
3.938477574499312794e-01 4.842251234435543950e-01
3.948883063465966625e-01 5.697229653650133230e-01
3.959288552432620456e-01 3.395521507642200731e-01
3.969694041399274287e-01 2.550058723878301237e-01
3.980099530365928118e-01 2.784601913962596598e-01
3.990505019332581949e-01 3.920031286053493602e-01
4.000910508299235779e-01 4.036831162767704484e-01
4.011315997265889610e-01 3.496395537205003734e-01
4.021721486232543441e-01 3.647654250825169697e-01
4.032126975199197272e-01 3.586557200949016533e-01
4.042532464165851103e-01 3.632648833712082137e-01
4.052937953132504934e-01 3.136141489805908122e-01
4.063343442099158764e-01 3.635244199960858680e-01
4.073748931065812595e-01 3.790564930096991247e-01
4.084154420032466426e-01 4.206711513540355440e-01
4.094559908999120257e-01 5.228202149685756694e-01
4.104965397965774088e-01 3.469898510828919314e-01
4.115370886932427918e-01 2.043207092258505497e-01
4.125776375899081749e-01 2.418450748856955101e-01
4.136181864865735580e-01 3.682740904136991844e-01
4.146587353832389411e-01 4.603594909865158513e-01
4.156992842799043242e-01 3.593021124025490565e-01
4.167398331765697073e-01 3.341781032795765327e-01
4.177803820732350903e-01 4.609529935705296566e-01
4.188209309699004734e-01 4.325476855760506112e-01
4.198614798665658565e-01 5.150150880048229851e-01
4.209020287632312396e-01 4.239561978245447449e-01
4.219425776598966227e-01 2.979272385870501694e-01
4.229831265565620058e-01 2.160875487247047033e-01
4.240236754532273888e-01 3.277014047728776802e-01
4.250642243498927719e-01 4.740679826074973846e-01
4.261047732465581550e-01 3.058633987434120627e-01
4.271453221432235381e-01 3.136612414899886403e-01
4.281858710398889212e-01 4.586006798599875367e-01
4.292264199365543043e-01 2.999178488311393664e-01
4.302669688332196873e-01 2.638026684992098581e-01
4.313075177298850704e-01 2.853360858516182930e-01
4.323480666265504535e-01 3.826745222509373434e-01
4.333886155232158366e-01 3.438460739072652927e-01
4.344291644198812197e-01 3.180257277551703510e-01
