# q (1/Angstrom), Intensity (arb)
2.029070354705860696e-02 1.324047969314773354e+03
2.133125244372399004e-02 1.313807526867367415e+03
2.237180134038937659e-02 1.316305578306050393e+03
2.341235023705475968e-02 1.316491321747950678e+03
2.445289913372014276e-02 1.304359973664464178e+03
2.549344803038552584e-02 1.293730772683000396e+03
2.653399692705091240e-02 1.282872848345713237e+03
2.757454582371629548e-02 1.269540063853489528e+03
2.861509472038167856e-02 1.249271174928296659e+03
2.965564361704706164e-02 1.232779646804563754e+03
3.069619251371244473e-02 1.220465980002019251e+03
3.173674141037782781e-02 1.204597427706297594e+03
3.277729030704321089e-02 1.185985066165117360e+03
3.381783920370859398e-02 1.171613421371596132e+03
3.485838810037397706e-02 1.156715000444103907e+03
3.589893699703936014e-02 1.138425674191199050e+03
3.693948589370474322e-02 1.115748578545415739e+03
3.798003479037012631e-02 1.097040212401234157e+03
3.902058368703550939e-02 1.076993498914010161e+03
4.006113258370089247e-02 1.053920436026770176e+03
4.110168148036627556e-02 1.035773392517457296e+03
4.214223037703165864e-02 1.016648898320756075e+03
4.318277927369704866e-02 9.944678972556752115e+02
4.422332817036243174e-02 9.702360032739795770e+02
4.526387706702781483e-02 9.481080349284980002e+02
4.630442596369319791e-02 9.282389192820014614e+02
4.734497486035858099e-02 9.062573212621203993e+02
4.838552375702396408e-02 8.868823226103464776e+02
4.942607265368934716e-02 8.651557887097358162e+02
5.046662155035473024e-02 8.416222820134505582e+02
5.150717044702011332e-02 8.204598756934128687e+02
5.254771934368549641e-02 7.984281679069036954e+02
5.358826824035087949e-02 7.779348095378161361e+02
5.462881713701626257e-02 7.527120638450904835e+02
5.566936603368164566e-02 7.322590619065748569e+02
5.670991493034702874e-02 7.121384742531079155e+02
5.775046382701241182e-02 6.893087965557697316e+02
5.879101272367779490e-02 6.667976612334458650e+02
5.983156162034317799e-02 6.478042873519603972e+02
6.087211051700856107e-02 6.280474081897822316e+02
6.191265941367394415e-02 6.034368992888894354e+02
6.295320831033933417e-02 5.823295617561333302e+02
6.399375720700471726e-02 5.642427198567008872e+02
6.503430610367010034e-02 5.439785239035724089e+02
6.607485500033548342e-02 5.245087781068696131e+02
6.711540389700086651e-02 5.061596309752203524e+02
6.815595279366624959e-02 4.872429206460390674e+02
6.919650169033163267e-02 4.696176959789547709e+02
7.023705058699701576e-02 4.502146326420452738e+02
7.127759948366239884e-02 4.310779368277293884e+02
7.231814838032778192e-02 4.148993030617302793e+02
7.335869727699316500e-02 3.970060723152615765e+02
7.439924617365854809e-02 3.804552129272002503e+02
7.543979507032393117e-02 3.621691926928351108e+02
7.648034396698931425e-02 3.457945856672989180e+02
7.752089286365469734e-02 3.308895095722646147e+02
7.856144176032008042e-02 3.144283764319351917e+02
7.960199065698546350e-02 3.002642561525491374e+02
8.064253955365084658e-02 2.866447731795130380e+02
8.168308845031622967e-02 2.709894159320717790e+02
8.272363734698161275e-02 2.576614021602284197e+02
8.376418624364699583e-02 2.454261994607832094e+02
8.480473514031239279e-02 2.319411001091132505e+02
8.584528403697777588e-02 2.188823606614759001e+02
8.688583293364315896e-02 2.082756613877394898e+02
8.792638183030854204e-02 1.965133194858499053e+02
8.896693072697392513e-02 1.844698654485083011e+02
9.000747962363930821e-02 1.725789827544088837e+02
9.104802852030469129e-02 1.619120896900621460e+02
9.208857741697007437e-02 1.521336387808019026e+02
9.312912631363545746e-02 1.427491112853903985e+02
9.416967521030084054e-02 1.330952750526240322e+02
9.521022410696622362e-02 1.236969617729623678e+02
9.625077300363160671e-02 1.156981326275312369e+02
9.729132190029698979e-02 1.086121952640539519e+02
9.833187079696237287e-02 1.011272994260376521e+02
9.937241969362775595e-02 9.327107073795443171e+01
1.004129685902931390e-01 8.603519232500998726e+01
1.014535174869585221e-01 7.955264356491473166e+01
1.024940663836239052e-01 7.433613680065309381e+01
1.035346152802892883e-01 6.794625585209985275e+01
1.045751641769546714e-01 6.185862166188255884e+01
1.056157130736200545e-01 5.593678291135534408e+01
1.066562619702854375e-01 5.028762051910796060e+01
1.076968108669508206e-01 4.577072368471640118e+01
1.087373597636162037e-01 4.169191674855888152e+01
1.097779086602815868e-01 3.776993414774979385e+01
1.108184575569469699e-01 3.462625325924675224e+01
1.118590064536123529e-01 3.143944936381154420e+01
1.128995553502777360e-01 2.792229571803771293e+01
1.139401042469431191e-01 2.459715330719961557e+01
1.149806531436085022e-01 2.163982482696284393e+01
1.160212020402738853e-01 1.919403461818015444e+01
1.170617509369392684e-01 1.717235801910702975e+01
1.181022998336046514e-01 1.468460712555166481e+01
1.191428487302700345e-01 1.296587934877550552e+01
1.201833976269354176e-01 1.125137528973796819e+01
1.212239465236008007e-01 9.318536712269288813e+00
1.222644954202661838e-01 8.067455429082933449e+00
1.233050443169315669e-01 6.900246775717203462e+00
1.243455932135969499e-01 5.925284232988481392e+00
1.253861421102623330e-01 5.236732385860236150e+00
1.264266910069277161e-01 4.463541628035780917e+00
1.274672399035930992e-01 3.861010886688536203e+00
1.285077888002584823e-01 3.224998779060321397e+00
1.295483376969238654e-01 2.952434684326370018e+00
1.305888865935892484e-01 2.926485195306366194e+00
1.316294354902546315e-01 2.199960686541178490e+00
1.326699843869200146e-01 2.316162801819526607e+00
1.337105332835853977e-01 2.404222895309789720e+00
1.347510821802507808e-01 2.631668229473088871e+00
1.357916310769161639e-01 2.313835967831391116e+00
1.368321799735815469e-01 2.667298131316183429e+00
1.378727288702469300e-01 2.815101531555491476e+00
1.389132777669123131e-01 3.181800082288898324e+00
1.399538266635776962e-01 3.143187292926924670e+00
1.409943755602430793e-01 3.507907467855073236e+00
1.420349244569084624e-01 3.706098744985094839e+00
1.430754733535738454e-01 3.890703800250548738e+00
1.441160222502392285e-01 4.544232903504219934e+00
1.451565711469046116e-01 4.934266155562308853e+00
1.461971200435699947e-01 5.375126585624876441e+00
1.472376689402353778e-01 5.663520041738681954e+00
1.482782178369007609e-01 6.174777098649048668e+00
1.493187667335661439e-01 6.664803552846002788e+00
1.503593156302315270e-01 7.214810776564000605e+00
1.513998645268969101e-01 7.701182807664665120e+00
1.524404134235622932e-01 7.928268934507457288e+00
1.534809623202276763e-01 8.237234650755230092e+00
1.545215112168930593e-01 8.480351135654728978e+00
1.555620601135584424e-01 8.903697839493954547e+00
1.566026090102238255e-01 9.203703467643137515e+00
1.576431579068892086e-01 9.347876871684619005e+00
1.586837068035545917e-01 9.531106032027196306e+00
1.597242557002199748e-01 9.883992457775566010e+00
1.607648045968853578e-01 9.997049977413702493e+00
1.618053534935507409e-01 1.035339285072322824e+01
1.628459023902161240e-01 1.051999271863566676e+01
1.638864512868815071e-01 1.041766771327513297e+01
1.649270001835468902e-01 1.055719932046756071e+01
1.659675490802122733e-01 1.087420356884027228e+01
1.670080979768776563e-01 1.104527208404543970e+01
1.680486468735430672e-01 1.103834110668239887e+01
1.690891957702084503e-01 1.120156979677301479e+01
1.701297446668738333e-01 1.137721267089412436e+01
1.711702935635392164e-01 1.111201151512874219e+01
1.722108424602045995e-01 1.098500964803866964e+01
1.732513913568699826e-01 1.079775131574808711e+01
1.742919402535353657e-01 1.096223801635425943e+01
1.753324891502007488e-01 1.069283414857913783e+01
1.763730380468661318e-01 1.061393280911973136e+01
1.774135869435315149e-01 1.011217835979217838e+01
1.784541358401968980e-01 9.864760223435567354e+00
1.794946847368622811e-01 9.781271231704064206e+00
1.805352336335276642e-01 9.780187980019313443e+00
1.815757825301930473e-01 9.725156947148121844e+00
1.826163314268584303e-01 9.564946106851405006e+00
1.836568803235238134e-01 8.933172231304641997e+00
1.846974292201891965e-01 8.712367280712154383e+00
1.857379781168545796e-01 8.467109556449791796e+00
1.867785270135199627e-01 8.381260945992536904e+00
1.878190759101853458e-01 7.929747171154730268e+00
1.888596248068507288e-01 7.595081136229964613e+00
1.899001737035161119e-01 7.414271639784949741e+00
1.909407226001814950e-01 7.017756618432759552e+00
1.919812714968468781e-01 6.646907043583002661e+00
1.930218203935122612e-01 6.366001053490286665e+00
1.940623692901776443e-01 6.117498804034063653e+00
1.951029181868430273e-01 5.760710387089623907e+00
1.961434670835084104e-01 5.642342935975225515e+00
1.971840159801737935e-01 5.186156183976734724e+00
1.982245648768391766e-01 4.860022018843448421e+00
1.992651137735045597e-01 4.763051350998338762e+00
2.003056626701699428e-01 4.560560688644486049e+00
2.013462115668353813e-01 4.334746410290311047e+00
2.023867604635007644e-01 4.084871520672518130e+00
2.034273093601661475e-01 3.618407892884253130e+00
2.044678582568315306e-01 3.342930557474723230e+00
2.055084071534969137e-01 3.196444448152622186e+00
2.065489560501622968e-01 2.824857483168354833e+00
2.075895049468276798e-01 2.361877066123987845e+00
2.086300538434930629e-01 2.295329750394099477e+00
2.096706027401584460e-01 2.275337547276322425e+00
2.107111516368238291e-01 2.150365570393237391e+00
2.117517005334892122e-01 2.227373588456046605e+00
2.127922494301545953e-01 2.021812022891595007e+00
2.138327983268199783e-01 1.793904950664465758e+00
2.148733472234853614e-01 1.434586386847001904e+00
2.159138961201507445e-01 1.498482660064642147e+00
2.169544450168161276e-01 1.388501026919890080e+00
2.179949939134815107e-01 1.002564371654724340e+00
2.190355428101468938e-01 1.007008988507077873e+00
2.200760917068122768e-01 1.014555587597271824e+00
2.211166406034776599e-01 1.116360702465133414e+00
2.221571895001430430e-01 1.041295093794321502e+00
2.231977383968084261e-01 9.408171522485027083e-01
2.242382872934738092e-01 1.020392451439498416e+00
2.252788361901391923e-01 8.803981236732809634e-01
2.263193850868045753e-01 6.967813908059845573e-01
2.273599339834699584e-01 5.359264683158890819e-01
2.284004828801353415e-01 5.810790771121574494e-01
2.294410317768007246e-01 7.198681279814636014e-01
2.304815806734661077e-01 4.602963128483672506e-01
2.315221295701314908e-01 4.663013677013871927e-01
2.325626784667968738e-01 7.559404839152712441e-01
2.336032273634622569e-01 8.692766497933845926e-01
2.346437762601276400e-01 8.934410623617310421e-01
2.356843251567930231e-01 9.071048844888771612e-01
2.367248740534584062e-01 9.425106996639236456e-01
2.377654229501237892e-01 1.039042353103184269e+00
2.388059718467891723e-01 9.015262132972416964e-01
2.398465207434545554e-01 8.677099476214031881e-01
2.408870696401199385e-01 1.094623585154199219e+00
2.419276185367853216e-01 1.110287961453458649e+00
2.429681674334507047e-01 9.839614067299606859e-01
2.440087163301160877e-01 1.054384191719886843e+00
2.450492652267814708e-01 1.148624329361105367e+00
2.460898141234468539e-01 1.462153614630768317e+00
2.471303630201122370e-01 1.433973960340452436e+00
2.481709119167776201e-01 1.425211864896340330e+00
2.492114608134430032e-01 1.422551353265234297e+00
2.502520097101083585e-01 1.472378887296716954e+00
2.512925586067737416e-01 1.777019678255221891e+00
2.523331075034391247e-01 1.730344995231575922e+00
2.533736564001045077e-01 1.900739998772984052e+00
2.544142052967698908e-01 1.856619528388044671e+00
2.554547541934352739e-01 1.738830891574650650e+00
2.564953030901006570e-01 1.802053564328108592e+00
2.575358519867660401e-01 1.898516733143903679e+00
2.585764008834314231e-01 1.907019369046022206e+00
2.596169497800968062e-01 2.226303652516914866e+00
2.606574986767621893e-01 2.087273761232157909e+00
2.616980475734275724e-01 2.110652299763408735e+00
2.627385964700929555e-01 2.183023709146272751e+00
2.637791453667583386e-01 2.070711700035555936e+00
2.648196942634237216e-01 2.014894319643662612e+00
2.658602431600891047e-01 2.038977071131323981e+00
2.669007920567544878e-01 1.895127951500136021e+00
2.679413409534198709e-01 1.492865397285076057e+00
2.689818898500852540e-01 1.525046511482138101e+00
2.700224387467506371e-01 1.867425084819512193e+00
2.710629876434160201e-01 1.926454145556995456e+00
2.721035365400814032e-01 2.054035509709731144e+00
2.731440854367467863e-01 1.988102434908125105e+00
2.741846343334121694e-01 1.903124700373634681e+00
2.752251832300775525e-01 1.814490796462965960e+00
2.762657321267429356e-01 1.910717474967803753e+00
2.773062810234083186e-01 1.822804630544421656e+00
2.783468299200737017e-01 1.682349034749748284e+00
2.793873788167390848e-01 1.701156487863112687e+00
2.804279277134044679e-01 1.577294007881050675e+00
2.814684766100698510e-01 1.549462989631074095e+00
2.825090255067352341e-01 1.511646213294074670e+00
2.835495744034006171e-01 1.517140816930929503e+00
2.845901233000660002e-01 1.232911440273706916e+00
2.856306721967313833e-01 1.459973644204662691e+00
2.866712210933967664e-01 1.581751070832812189e+00
2.877117699900621495e-01 1.487014812616688886e+00
2.887523188867275326e-01 1.203279985011608488e+00
2.897928677833929156e-01 1.179327908083571685e+00
2.908334166800582987e-01 9.608663418099645526e-01
2.918739655767236818e-01 1.033108707131606963e+00
2.929145144733890649e-01 1.044137019263580157e+00
2.939550633700544480e-01 1.200140262734368690e+00
2.949956122667198311e-01 1.178053396064058234e+00
2.960361611633852141e-01 1.118402824092893155e+00
2.970767100600505972e-01 9.735731580383664152e-01
2.981172589567159803e-01 9.560328482160116437e-01
2.991578078533813634e-01 8.123302777012959552e-01
3.001983567500468020e-01 9.147673088832490862e-01
3.012389056467121851e-01 6.928668787290952480e-01
3.022794545433775681e-01 5.439514175724973200e-01
3.033200034400429512e-01 6.286367153682803632e-01
3.043605523367083343e-01 5.752421456718366244e-01
3.054011012333737174e-01 7.214386663747340833e-01
3.064416501300391005e-01 6.768600502307791089e-01
3.074821990267044836e-01 6.374432872760884550e-01
3.085227479233698666e-01 5.744027192970548867e-01
3.095632968200352497e-01 6.274251570200100048e-01
3.106038457167006328e-01 6.626670882104654936e-01
3.116443946133660159e-01 6.992218600075190693e-01
3.126849435100313990e-01 7.301362421950621240e-01
3.137254924066967821e-01 6.059471481018334771e-01
3.147660413033621651e-01 5.198279892994577267e-01
3.158065902000275482e-01 3.957019860654824583e-01
3.168471390966929313e-01 4.732593905025979097e-01
3.178876879933583144e-01 4.352102005962983355e-01
3.189282368900236975e-01 3.599942606759896080e-01
3.199687857866890806e-01 2.314131544226434301e-01
3.210093346833544636e-01 2.740984236542836072e-01
3.220498835800198467e-01 4.073224526596277428e-01
3.230904324766852298e-01 5.035335930466438015e-01
3.241309813733506129e-01 5.149536995207704138e-01
3.251715302700159960e-01 4.617538360532513764e-01
3.262120791666813790e-01 6.499271964492230325e-01
3.272526280633467621e-01 5.049312352269019755e-01
3.282931769600121452e-01 4.376169614821243670e-01
3.293337258566775283e-01 6.091248241101361316e-01
3.303742747533429114e-01 6.738658049074359724e-01
3.314148236500082945e-01 5.539366530231184527e-01
3.324553725466736775e-01 5.914621779913247224e-01
3.334959214433390606e-01 4.981831776830070169e-01
3.345364703400044437e-01 4.090610976244661856e-01
3.355770192366698268e-01 4.867958715351150545e-01
3.366175681333352099e-01 5.617822804395835590e-01
3.376581170300005930e-01 4.987766243564628610e-01
3.386986659266659760e-01 4.527018968114759900e-01
3.397392148233313591e-01 5.082342758696611895e-01
3.407797637199967422e-01 7.069301654927748757e-01
3.418203126166621253e-01 8.343010004173478933e-01
3.428608615133275084e-01 8.242250903054646471e-01
3.439014104099928915e-01 6.297231688610764877e-01
3.449419593066582745e-01 5.740694602145062220e-01
3.459825082033236576e-01 5.445698103415175240e-01
3.470230570999890407e-01 6.580388634202094522e-01
3.480636059966544238e-01 7.141494218923973847e-01
3.491041548933198069e-01 7.905297431191158353e-01
3.501447037899851900e-01 7.050258318226276799e-01
3.511852526866505730e-01 8.261166027549364799e-01
3.522258015833159561e-01 8.718930218217408878e-01
3.532663504799813392e-01 7.638159274595501813e-01
3.543068993766467223e-01 6.639576011563761426e-01
3.553474482733121054e-01 8.005950544827555859e-01
3.563879971699774885e-01 7.012400442695501113e-01
3.574285460666428715e-01 6.336963539206834639e-01
3.584690949633082546e-01 6.823377692719851950e-01
3.595096438599736377e-01 6.541503356847648831e-01
3.605501927566390208e-01 7.132284474006169717e-01
3.615907416533044039e-01 5.737530943676247830e-01
3.626312905499697870e-01 6.598167430132804157e-01
3.636718394466351700e-01 7.569696708531239437e-01
3.647123883433005531e-01 7.544404088321705615e-01
3.657529372399659362e-01 6.535416156946247668e-01
3.667934861366313193e-01 7.073308508115729865e-01
3.678340350332967024e-01 6.957287366904161274e-01
3.688745839299620854e-01 7.439810725444182538e-01
3.699151328266274685e-01 6.610916818245691218e-01
3.709556817232928516e-01 6.709439318513759076e-01
3.719962306199582347e-01 3.159496594055895002e-01
3.730367795166236178e-01 4.907076882823666608e-01
3.740773284132890009e-01 6.063250913694844257e-01
3.751178773099543839e-01 6.604913908679463930e-01
3.761584262066197670e-01 6.262922369063197436e-01
3.771989751032851501e-01 5.194297225427213505e-01
3.782395239999505332e-01 5.199440856227113272e-01
3.792800728966159163e-01 4.124890752836343211e-01
3.803206217932812994e-01 3.931210715763846508e-01
3.813611706899466824e-01 5.046324709495131344e-01
3.824017195866120655e-01 6.439716679670475230e-01
3.834422684832774486e-01 6.375542563930807205e-01
3.844828173799428317e-01 4.320435545589020876e-01
3.855233662766082148e-01 4.242105792150852039e-01
3.865639151732735979e-01 3.309107615669546476e-01
3.876044640699389809e-01 2.498058783532748350e-01
3.886450129666043640e-01 4.295162889087649205e-01
3.896855618632697471e-01 5.071983237394057653e-01
3.907261107599351302e-01 4.862499091438721166e-01
3.917666596566005133e-01 7.124881514928809167e-01
3.928072085532658964e-01 6.022706762300984451e-01
3.938477574499312794e-01 3.736176576218390721e-01
3.948883063465966625e-01 3.601219267518196432e-01
3.959288552432620456e-01 4.882051289683211337e-01
3.969694041399274287e-01 4.072751299461287999e-01
3.980099530365928118e-01 4.436271387018422274e-01
3.990505019332581949e-01 4.650205566158085446e-01
4.000910508299235779e-01 4.070729879818664187e-01
4.011315997265889610e-01 3.466047196653825324e-01
4.021721486232543441e-01 2.482647713697865299e-01
4.032126975199197272e-01 1.694598723873177448e-01
4.042532464165851103e-01 2.615181849939389735e-01
4.052937953132504934e-01 2.250248886550210159e-01
4.063343442099158764e-01 7.949265854429654610e-02
4.073748931065812595e-01 2.301070211721309988e-01
4.084154420032466426e-01 2.701245913671321830e-01
4.094559908999120257e-01 3.307188322024074978e-01
4.104965397965774088e-01 3.179871178573527857e-01
4.115370886932427918e-01 2.621253525546123342e-01
4.125776375899081749e-01 3.821236404426251454e-01
4.136181864865735580e-01 3.681787418208912754e-01
4.146587353832389411e-01 1.214263831008146610e-01
4.156992842799043242e-01 2.075652310225208907e-01
4.167398331765697073e-01 1.457903008359089370e-01
4.177803820732350903e-01 1.068763367612852733e-01
4.188209309699004734e-01 1.855651293151296954e-01
4.198614798665658565e-01 2.505437086548880643e-01
4.209020287632312396e-01 2.124409878001465302e-01
4.219425776598966227e-01 2.746614112339287317e-01
4.229831265565620058e-01 2.941373705519225723e-01
4.240236754532273888e-01 3.927465028780652290e-01
4.250642243498927719e-01 3.922513864370813508e-01
4.261047732465581550e-01 2.362230305361840976e-01
4.271453221432235381e-01 3.498940372076368988e-01
4.281858710398889212e-01 3.923591835359587776e-01
4.292264199365543043e-01 3.327615846906333275e-01
4.302669688332196873e-01 2.465905489361972514e-01
4.313075177298850704e-01 3.514036982912465135e-01
4.323480666265504535e-01 2.861510704459568899e-01
4.333886155232158366e-01 2.385278983443193113e-01
4.344291644198812197e-01 2.177926475266183104e-01
