# q (1/Angstrom), Intensity (arb)
2.029070354705860696e-02 1.330207113291546875e+03
2.133125244372399004e-02 1.322037652363574125e+03
2.237180134038937659e-02 1.323525735506248111e+03
2.341235023705475968e-02 1.316382942533590949e+03
2.445289913372014276e-02 1.299127279280929088e+03
2.549344803038552584e-02 1.286774143932117568e+03
2.653399692705091240e-02 1.276392288532794737e+03
2.757454582371629548e-02 1.261653316934205805e+03
2.861509472038167856e-02 1.249620536114213110e+03
2.965564361704706164e-02 1.233883557236623801e+03
3.069619251371244473e-02 1.219864237559014782e+03
3.173674141037782781e-02 1.203124733313033175e+03
3.277729030704321089e-02 1.186077052937934695e+03
3.381783920370859398e-02 1.169831196258756790e+03
3.485838810037397706e-02 1.150960121629421110e+03
3.589893699703936014e-02 1.128812068746874502e+03
3.693948589370474322e-02 1.113492217481602211e+03
3.798003479037012631e-02 1.093866517241120846e+03
3.902058368703550939e-02 1.075472995819965945e+03
4.006113258370089247e-02 1.054909305676760141e+03
4.110168148036627556e-02 1.034320988808852007e+03
4.214223037703165864e-02 1.012387181675940269e+03
4.318277927369704866e-02 9.888581838940665421e+02
4.422332817036243174e-02 9.657917710227021644e+02
4.526387706702781483e-02 9.446937956178098830e+02
4.630442596369319791e-02 9.242317850452694756e+02
4.734497486035858099e-02 9.025982548757006043e+02
4.838552375702396408e-02 8.782369906492547216e+02
4.942607265368934716e-02 8.567956602178198864e+02
5.046662155035473024e-02 8.363834771922142863e+02
5.150717044702011332e-02 8.166300754254505136e+02
5.254771934368549641e-02 7.955825143748741084e+02
5.358826824035087949e-02 7.727844391032248268e+02
5.462881713701626257e-02 7.502114493635809822e+02
5.566936603368164566e-02 7.281571807823968356e+02
5.670991493034702874e-02 7.086789411702102370e+02
5.775046382701241182e-02 6.861348393395120411e+02
5.879101272367779490e-02 6.663951441075215598e+02
5.983156162034317799e-02 6.434996580416822098e+02
6.087211051700856107e-02 6.199828873015535464e+02
6.191265941367394415e-02 6.012531386026703331e+02
6.295320831033933417e-02 5.815832590573111247e+02
6.399375720700471726e-02 5.629861890436649219e+02
6.503430610367010034e-02 5.440583502166077778e+02
6.607485500033548342e-02 5.216411054832050240e+02
6.711540389700086651e-02 5.031223041149808068e+02
6.815595279366624959e-02 4.853530927944046311e+02
6.919650169033163267e-02 4.658015632948698794e+02
7.023705058699701576e-02 4.495477248643155690e+02
7.127759948366239884e-02 4.320202899146461277e+02
7.231814838032778192e-02 4.139609994197624587e+02
7.335869727699316500e-02 3.960547303509157473e+02
7.439924617365854809e-02 3.787888301545498280e+02
7.543979507032393117e-02 3.622265821427291144e+02
7.648034396698931425e-02 3.448661705270574203e+02
7.752089286365469734e-02 3.288246783580290753e+02
7.856144176032008042e-02 3.141786159946256021e+02
7.960199065698546350e-02 2.987015830570651929e+02
8.064253955365084658e-02 2.828764161805060553e+02
8.168308845031622967e-02 2.702772269720164218e+02
8.272363734698161275e-02 2.569815798375237819e+02
8.376418624364699583e-02 2.450803990124738903e+02
8.480473514031239279e-02 2.316687525872879121e+02
8.584528403697777588e-02 2.193630460820351402e+02
8.688583293364315896e-02 2.067606067616503935e+02
8.792638183030854204e-02 1.953890219383506235e+02
8.896693072697392513e-02 1.840978474978310260e+02
9.000747962363930821e-02 1.725823645308300911e+02
9.104802852030469129e-02 1.633965834570928450e+02
9.208857741697007437e-02 1.542445649618315429e+02
9.312912631363545746e-02 1.442705262387588618e+02
9.416967521030084054e-02 1.342829744312081743e+02
9.521022410696622362e-02 1.240163559699471563e+02
9.625077300363160671e-02 1.157544556430393214e+02
9.729132190029698979e-02 1.079054660015487741e+02
9.833187079696237287e-02 9.932806799014527144e+01
9.937241969362775595e-02 9.192462031708444670e+01
1.004129685902931390e-01 8.597251152957366571e+01
1.014535174869585221e-01 7.973045395772194865e+01
1.024940663836239052e-01 7.308275960746722433e+01
1.035346152802892883e-01 6.669672333885011994e+01
1.045751641769546714e-01 6.085042265118649141e+01
1.056157130736200545e-01 5.540256347828469075e+01
1.066562619702854375e-01 5.071540730616989379e+01
1.076968108669508206e-01 4.632883029250818652e+01
1.087373597636162037e-01 4.201018955541505306e+01
1.097779086602815868e-01 3.709313579665383998e+01
1.108184575569469699e-01 3.365618206001595070e+01
1.118590064536123529e-01 3.019582269788999795e+01
1.128995553502777360e-01 2.734584345701376762e+01
1.139401042469431191e-01 2.446409550232564456e+01
1.149806531436085022e-01 2.157094529815676864e+01
1.160212020402738853e-01 1.887889113146950137e+01
1.170617509369392684e-01 1.656620084700394457e+01
1.181022998336046514e-01 1.413438878093567297e+01
1.191428487302700345e-01 1.233624683092312679e+01
1.201833976269354176e-01 1.111969992888504777e+01
1.212239465236008007e-01 9.917463955569029821e+00
1.222644954202661838e-01 8.359791530205942678e+00
1.233050443169315669e-01 7.208692236681528698e+00
1.243455932135969499e-01 5.990374900737791108e+00
1.253861421102623330e-01 5.381375399144570082e+00
1.264266910069277161e-01 4.336569437648353897e+00
1.274672399035930992e-01 3.731014502634444341e+00
1.285077888002584823e-01 3.285802442310338023e+00
1.295483376969238654e-01 3.147377749065363162e+00
1.305888865935892484e-01 2.871128111259579896e+00
1.316294354902546315e-01 2.355011968172231462e+00
1.326699843869200146e-01 2.047971555397229082e+00
1.337105332835853977e-01 2.128629599553502061e+00
1.347510821802507808e-01 2.280734764097012146e+00
1.357916310769161639e-01 2.498816394061179835e+00
1.368321799735815469e-01 2.332816964562699269e+00
1.378727288702469300e-01 2.721558593552934724e+00
1.389132777669123131e-01 2.848431811664450919e+00
1.399538266635776962e-01 2.985951022823012835e+00
1.409943755602430793e-01 3.576438707586326871e+00
1.420349244569084624e-01 4.110384198535978584e+00
1.430754733535738454e-01 4.076379855056355694e+00
1.441160222502392285e-01 4.535934610669819733e+00
1.451565711469046116e-01 5.117334287852429497e+00
1.461971200435699947e-01 5.676617251953846477e+00
1.472376689402353778e-01 6.255462005654386815e+00
1.482782178369007609e-01 6.121829757671598315e+00
1.493187667335661439e-01 6.721332261816762355e+00
1.503593156302315270e-01 7.127313472376325620e+00
1.513998645268969101e-01 7.596884257312662925e+00
1.524404134235622932e-01 7.953993315112658280e+00
1.534809623202276763e-01 8.371924489877212494e+00
1.545215112168930593e-01 8.598601527649602616e+00
1.555620601135584424e-01 8.855177331904805271e+00
1.566026090102238255e-01 9.284211476183212852e+00
1.576431579068892086e-01 9.701496098024623649e+00
1.586837068035545917e-01 1.001382327611077017e+01
1.597242557002199748e-01 1.001423970237760841e+01
1.607648045968853578e-01 1.016370008700102900e+01
1.618053534935507409e-01 1.038825070275276019e+01
1.628459023902161240e-01 1.054518422582750858e+01
1.638864512868815071e-01 1.081720477192884289e+01
1.649270001835468902e-01 1.108438720261793975e+01
1.659675490802122733e-01 1.093107953079273287e+01
1.670080979768776563e-01 1.062258512390271648e+01
1.680486468735430672e-01 1.082304634955168154e+01
1.690891957702084503e-01 1.103780324548294089e+01
1.701297446668738333e-01 1.105755920184934737e+01
1.711702935635392164e-01 1.098634881395424401e+01
1.722108424602045995e-01 1.081736905441149332e+01
1.732513913568699826e-01 1.050974220910979540e+01
1.742919402535353657e-01 1.039502619822066620e+01
1.753324891502007488e-01 1.036655622672891397e+01
1.763730380468661318e-01 1.031201773193246041e+01
1.774135869435315149e-01 1.018307470850808372e+01
1.784541358401968980e-01 9.881963459763280611e+00
1.794946847368622811e-01 9.631241062757212035e+00
1.805352336335276642e-01 9.564658345882413926e+00
1.815757825301930473e-01 9.266729763435211709e+00
1.826163314268584303e-01 9.241448372625182373e+00
1.836568803235238134e-01 9.072268257443106165e+00
1.846974292201891965e-01 8.528411950877067937e+00
1.857379781168545796e-01 8.208237212292562646e+00
1.867785270135199627e-01 7.802448536406515700e+00
1.878190759101853458e-01 7.814489720695949160e+00
1.888596248068507288e-01 7.893613986118413806e+00
1.899001737035161119e-01 7.366213373732225733e+00
1.909407226001814950e-01 7.198081129396236122e+00
1.919812714968468781e-01 6.692182588994246117e+00
1.930218203935122612e-01 6.364827761034931086e+00
1.940623692901776443e-01 6.262928311453627828e+00
1.951029181868430273e-01 6.122760951849684830e+00
1.961434670835084104e-01 5.421821001524172345e+00
1.971840159801737935e-01 5.029638008859237175e+00
1.982245648768391766e-01 4.783668329308497391e+00
1.992651137735045597e-01 4.532545191154948583e+00
2.003056626701699428e-01 4.429024448422151039e+00
2.013462115668353813e-01 4.274524687551313207e+00
2.023867604635007644e-01 3.838022013121396014e+00
2.034273093601661475e-01 3.749064189807153724e+00
2.044678582568315306e-01 3.532788618751464327e+00
2.055084071534969137e-01 3.225923340125344652e+00
2.065489560501622968e-01 3.192837650450858433e+00
2.075895049468276798e-01 2.933048880164534467e+00
2.086300538434930629e-01 2.723362661729137102e+00
2.096706027401584460e-01 2.562074096534015410e+00
2.107111516368238291e-01 2.489998243681082357e+00
2.117517005334892122e-01 2.228994863396028592e+00
2.127922494301545953e-01 2.042828373974614919e+00
2.138327983268199783e-01 1.616473707333923926e+00
2.148733472234853614e-01 1.506498287939550096e+00
2.159138961201507445e-01 1.355777037253172779e+00
2.169544450168161276e-01 1.518697323209966754e+00
2.179949939134815107e-01 1.284354395098382895e+00
2.190355428101468938e-01 1.259161632922914720e+00
2.200760917068122768e-01 1.354025955999329511e+00
2.211166406034776599e-01 1.328184331342374236e+00
2.221571895001430430e-01 9.186373573576318563e-01
2.231977383968084261e-01 7.644802148573539569e-01
2.242382872934738092e-01 8.474697752769841941e-01
2.252788361901391923e-01 8.584407081321003830e-01
2.263193850868045753e-01 1.021928564883921808e+00
2.273599339834699584e-01 9.334697374166047723e-01
2.284004828801353415e-01 6.496569700365064648e-01
2.294410317768007246e-01 4.208119783170900519e-01
2.304815806734661077e-01 6.431927263301169262e-01
2.315221295701314908e-01 7.547100175770538044e-01
2.325626784667968738e-01 8.750559552729910706e-01
2.336032273634622569e-01 8.057974460160473029e-01
2.346437762601276400e-01 8.997962815631161959e-01
2.356843251567930231e-01 8.412003382414638963e-01
2.367248740534584062e-01 8.225131256418372061e-01
2.377654229501237892e-01 9.306753854915008617e-01
2.388059718467891723e-01 8.057257770837296107e-01
2.398465207434545554e-01 1.013243518265888099e+00
2.408870696401199385e-01 1.107944120133097954e+00
2.419276185367853216e-01 1.000926347831292418e+00
2.429681674334507047e-01 1.106629145565264594e+00
2.440087163301160877e-01 1.207170233406163362e+00
2.450492652267814708e-01 1.456833469925062019e+00
2.460898141234468539e-01 1.538889863442189920e+00
2.471303630201122370e-01 1.374893520758217136e+00
2.481709119167776201e-01 1.709123067208853541e+00
2.492114608134430032e-01 1.630664932658927313e+00
2.502520097101083585e-01 1.500179614172601816e+00
2.512925586067737416e-01 1.456364145089416695e+00
2.523331075034391247e-01 1.344412165597216102e+00
2.533736564001045077e-01 1.276899550673626038e+00
2.544142052967698908e-01 1.586827697456850927e+00
2.554547541934352739e-01 1.751426132588015605e+00
2.564953030901006570e-01 1.775864508204747949e+00
2.575358519867660401e-01 1.704118687815324051e+00
2.585764008834314231e-01 1.939715086272279621e+00
2.596169497800968062e-01 1.905976149200515835e+00
2.606574986767621893e-01 2.124604035730659035e+00
2.616980475734275724e-01 2.128635600491527669e+00
2.627385964700929555e-01 2.256697568779589602e+00
2.637791453667583386e-01 1.896902886837469993e+00
2.648196942634237216e-01 2.080060434428471439e+00
2.658602431600891047e-01 1.819926984458216879e+00
2.669007920567544878e-01 1.906912628410228905e+00
2.679413409534198709e-01 2.017755329475676263e+00
2.689818898500852540e-01 1.875459187762139379e+00
2.700224387467506371e-01 1.875106655349011220e+00
2.710629876434160201e-01 1.878512327536462578e+00
2.721035365400814032e-01 1.994028663331135931e+00
2.731440854367467863e-01 1.767164962411936102e+00
2.741846343334121694e-01 1.659475418612430531e+00
2.752251832300775525e-01 1.786695330626681510e+00
2.762657321267429356e-01 1.604397551131281574e+00
2.773062810234083186e-01 1.699602314363772848e+00
2.783468299200737017e-01 1.631537003467766311e+00
2.793873788167390848e-01 1.685382052558711763e+00
2.804279277134044679e-01 1.534354643593943024e+00
2.814684766100698510e-01 1.497556009661966669e+00
2.825090255067352341e-01 1.486798971987685292e+00
2.835495744034006171e-01 1.434694892078500317e+00
2.845901233000660002e-01 1.560306017834701464e+00
2.856306721967313833e-01 1.464169330097767840e+00
2.866712210933967664e-01 1.434327327164830024e+00
2.877117699900621495e-01 1.608055021878236346e+00
2.887523188867275326e-01 1.191275450253058921e+00
2.897928677833929156e-01 1.147956695975647534e+00
2.908334166800582987e-01 1.012497957354362654e+00
2.918739655767236818e-01 1.135594239296707997e+00
2.929145144733890649e-01 1.013771023569667307e+00
2.939550633700544480e-01 1.078745651477476031e+00
2.949956122667198311e-01 1.111139984008907788e+00
2.960361611633852141e-01 1.020721365516308765e+00
2.970767100600505972e-01 1.052119533158833775e+00
2.981172589567159803e-01 1.024221995541065411e+00
2.991578078533813634e-01 1.044790777783564550e+00
3.001983567500468020e-01 8.864657849996895322e-01
3.012389056467121851e-01 8.415735452572228326e-01
3.022794545433775681e-01 5.857870164851810557e-01
3.033200034400429512e-01 5.472140551416870835e-01
3.043605523367083343e-01 4.346332581979268639e-01
3.054011012333737174e-01 6.573190221615341500e-01
3.064416501300391005e-01 6.598923151718238955e-01
3.074821990267044836e-01 5.257276476036878421e-01
3.085227479233698666e-01 2.585635030629624964e-01
3.095632968200352497e-01 2.927139439988017955e-01
3.106038457167006328e-01 4.519965803192000919e-01
3.116443946133660159e-01 4.168070788609092858e-01
3.126849435100313990e-01 4.393543225700291543e-01
3.137254924066967821e-01 4.632096774490293001e-01
3.147660413033621651e-01 3.038047412092730326e-01
3.158065902000275482e-01 3.605328505455140942e-01
3.168471390966929313e-01 3.389053670979009780e-01
3.178876879933583144e-01 4.329102988389905704e-01
3.189282368900236975e-01 3.210994569455714043e-01
3.199687857866890806e-01 3.332438612098052033e-01
3.210093346833544636e-01 2.768067752196117226e-01
3.220498835800198467e-01 2.988967725832232247e-01
3.230904324766852298e-01 3.929573387855498368e-01
3.241309813733506129e-01 3.274673488475947636e-01
3.251715302700159960e-01 3.919951200832159088e-01
3.262120791666813790e-01 4.306224336622577198e-01
3.272526280633467621e-01 3.880084800350793728e-01
3.282931769600121452e-01 4.303693387304718954e-01
3.293337258566775283e-01 5.891765271442004348e-01
3.303742747533429114e-01 4.871374968637738334e-01
3.314148236500082945e-01 4.087720780074306504e-01
3.324553725466736775e-01 4.792549949095175066e-01
3.334959214433390606e-01 4.865712177103098668e-01
3.345364703400044437e-01 5.068421145110804105e-01
3.355770192366698268e-01 3.163750576150086147e-01
3.366175681333352099e-01 3.247801421931200139e-01
3.376581170300005930e-01 4.990842927523004846e-01
3.386986659266659760e-01 6.120162125603769709e-01
3.397392148233313591e-01 7.810665818672681837e-01
3.407797637199967422e-01 7.911802157120604306e-01
3.418203126166621253e-01 5.940720612537475631e-01
3.428608615133275084e-01 6.163245135699000343e-01
3.439014104099928915e-01 4.697175521194054681e-01
3.449419593066582745e-01 5.201823653623378618e-01
3.459825082033236576e-01 6.101631518731949200e-01
3.470230570999890407e-01 6.785927607161390540e-01
3.480636059966544238e-01 7.488683104175990479e-01
3.491041548933198069e-01 5.522340256476994114e-01
3.501447037899851900e-01 3.721122359976618554e-01
3.511852526866505730e-01 3.862227838207950015e-01
3.522258015833159561e-01 3.627058217678325036e-01
3.532663504799813392e-01 6.531107987419701999e-01
3.543068993766467223e-01 7.970549263544022267e-01
3.553474482733121054e-01 5.470550896666708240e-01
3.563879971699774885e-01 6.049767811442592347e-01
3.574285460666428715e-01 7.529343826954288943e-01
3.584690949633082546e-01 6.291536989000867663e-01
3.595096438599736377e-01 5.729461302869829353e-01
3.605501927566390208e-01 6.165641401069805738e-01
3.615907416533044039e-01 5.672010890348353485e-01
3.626312905499697870e-01 5.149226349327520325e-01
3.636718394466351700e-01 4.711057629412209735e-01
3.647123883433005531e-01 5.609540085998467873e-01
3.657529372399659362e-01 6.957732965060579033e-01
3.667934861366313193e-01 7.333791068615838071e-01
3.678340350332967024e-01 6.843148930697680044e-01
3.688745839299620854e-01 7.232297291195735056e-01
3.699151328266274685e-01 7.362803817401655238e-01
3.709556817232928516e-01 5.362536765554537510e-01
3.719962306199582347e-01 4.896905005135856470e-01
3.730367795166236178e-01 6.529753308968153647e-01
3.740773284132890009e-01 7.126405496860037658e-01
3.751178773099543839e-01 4.813210840500872223e-01
3.761584262066197670e-01 4.465674524419824820e-01
3.771989751032851501e-01 5.104262015848739509e-01
3.782395239999505332e-01 3.657175496795694869e-01
3.792800728966159163e-01 3.255109233519917211e-01
3.803206217932812994e-01 4.358596581737685938e-01
3.813611706899466824e-01 4.827424015915013911e-01
3.824017195866120655e-01 3.195907906678954191e-01
3.834422684832774486e-01 3.441467864232521379e-01
3.844828173799428317e-01 3.135138389181122420e-01
3.855233662766082148e-01 5.010277860986391829e-01
3.865639151732735979e-01 3.812672446934257664e-01
3.876044640699389809e-01 3.069471767974008003e-01
3.886450129666043640e-01 3.802379669418236574e-01
3.896855618632697471e-01 4.340710809942436299e-01
3.907261107599351302e-01 3.183421553588772213e-01
3.917666596566005133e-01 2.899223404991175812e-01
3.928072085532658964e-01 2.210183024180309985e-01
3.938477574499312794e-01 3.548184068684570036e-01
3.948883063465966625e-01 3.958846630605208361e-01
3.959288552432620456e-01 4.591158336341472079e-01
3.969694041399274287e-01 3.901366262086582992e-01
3.980099530365928118e-01 3.340246095935199833e-01
3.990505019332581949e-01 2.385847417672870563e-01
4.000910508299235779e-01 1.459606825672636887e-01
4.011315997265889610e-01 3.636983190977005620e-01
4.021721486232543441e-01 1.718531315290334760e-01
4.032126975199197272e-01 1.671436588729378059e-01
4.042532464165851103e-01 4.664732784689356038e-01
4.052937953132504934e-01 3.249729177004034852e-01
4.063343442099158764e-01 1.877836711199307729e-01
4.073748931065812595e-01 4.616981313830983424e-01
4.084154420032466426e-01 1.939745733003555017e-01
4.094559908999120257e-01 0.000000000000000000e+00
4.104965397965774088e-01 4.834117285763284144e-02
4.115370886932427918e-01 2.680171547758938289e-01
4.125776375899081749e-01 3.353634552863127283e-01
4.136181864865735580e-01 2.936022595716458738e-01
4.146587353832389411e-01 3.421302312102447729e-01
4.156992842799043242e-01 2.570048463738565658e-01
4.167398331765697073e-01 3.016450759122619729e-01
4.177803820732350903e-01 3.139318708079592568e-01
4.188209309699004734e-01 2.743615406459021244e-01
4.198614798665658565e-01 1.800848787652853389e-01
4.209020287632312396e-01 2.187486152437898568e-01
4.219425776598966227e-01 1.028483837414810864e-01
4.229831265565620058e-01 8.343697050984033581e-02
4.240236754532273888e-01 1.362224503127968944e-01
4.250642243498927719e-01 1.958709714230302268e-01
4.261047732465581550e-01 1.557608845528797303e-01
4.271453221432235381e-01 1.970207944685640200e-01
4.281858710398889212e-01 2.350605835186669879e-01
4.292264199365543043e-01 2.684701971992211611e-01
4.302669688332196873e-01 2.842942907468852809e-01
4.313075177298850704e-01 2.668671616257540791e-01
4.323480666265504535e-01 3.392938650002257361e-01
4.333886155232158366e-01 4.438501323744006299e-01
4.344291644198812197e-01 4.297524619859487416e-01
