# q (1/Angstrom), Intensity (arb)
2.029070354705860696e-02 1.363325919192328911e+03
2.133125244372399004e-02 1.350909894114734698e+03
2.237180134038937659e-02 1.352854235000343806e+03
2.341235023705475968e-02 1.346919799958660633e+03
2.445289913372014276e-02 1.328670709936739740e+03
2.549344803038552584e-02 1.313947996900006274e+03
2.653399692705091240e-02 1.300722570043160886e+03
2.757454582371629548e-02 1.292172638894963711e+03
2.861509472038167856e-02 1.280355201215994384e+03
2.965564361704706164e-02 1.263943201721817331e+03
3.069619251371244473e-02 1.245727164716117159e+03
3.173674141037782781e-02 1.226873104853621953e+03
3.277729030704321089e-02 1.210829655228354795e+03
3.381783920370859398e-02 1.196168503840466428e+03
3.485838810037397706e-02 1.177614269196415762e+03
3.589893699703936014e-02 1.154976830157408131e+03
3.693948589370474322e-02 1.133043470632867866e+03
3.798003479037012631e-02 1.116706528151240036e+03
3.902058368703550939e-02 1.097184160754344248e+03
4.006113258370089247e-02 1.073664904930272314e+03
4.110168148036627556e-02 1.050163794383010554e+03
4.214223037703165864e-02 1.032868470783107341e+03
4.318277927369704866e-02 1.013089040439931750e+03
4.422332817036243174e-02 9.894719539926418292e+02
4.526387706702781483e-02 9.658605134281261826e+02
4.630442596369319791e-02 9.433100924203235991e+02
4.734497486035858099e-02 9.226399670970004081e+02
4.838552375702396408e-02 8.990798528456803069e+02
4.942607265368934716e-02 8.742616391211314522e+02
5.046662155035473024e-02 8.524141018386816313e+02
5.150717044702011332e-02 8.336232817756989562e+02
5.254771934368549641e-02 8.103784202079988290e+02
5.358826824035087949e-02 7.882769896474661664e+02
5.462881713701626257e-02 7.652970430207759591e+02
5.566936603368164566e-02 7.441218084875130216e+02
5.670991493034702874e-02 7.244261927261020446e+02
5.775046382701241182e-02 7.034010373287928815e+02
5.879101272367779490e-02 6.815619067489139979e+02
5.983156162034317799e-02 6.580911017775557639e+02
6.087211051700856107e-02 6.386493283514688528e+02
6.191265941367394415e-02 6.163423760618125016e+02
6.295320831033933417e-02 5.954354882495783841e+02
6.399375720700471726e-02 5.738293603907535498e+02
6.503430610367010034e-02 5.534604288443249516e+02
6.607485500033548342e-02 5.363185000417266792e+02
6.711540389700086651e-02 5.162840218160979475e+02
6.815595279366624959e-02 4.957629433622971646e+02
6.919650169033163267e-02 4.768498531425714759e+02
7.023705058699701576e-02 4.580854439462462437e+02
7.127759948366239884e-02 4.402190888758411802e+02
7.231814838032778192e-02 4.227195990574132338e+02
7.335869727699316500e-02 4.047094988532339812e+02
7.439924617365854809e-02 3.871046479189664637e+02
7.543979507032393117e-02 3.693331929055163982e+02
7.648034396698931425e-02 3.534604241646163132e+02
7.752089286365469734e-02 3.386933292913561218e+02
7.856144176032008042e-02 3.230297753358718751e+02
7.960199065698546350e-02 3.066790224770472832e+02
8.064253955365084658e-02 2.916153963528237227e+02
8.168308845031622967e-02 2.776548130003334336e+02
8.272363734698161275e-02 2.633221112528788126e+02
8.376418624364699583e-02 2.498903063927606922e+02
8.480473514031239279e-02 2.378332096210577049e+02
8.584528403697777588e-02 2.245139557555403655e+02
8.688583293364315896e-02 2.122539623535251962e+02
8.792638183030854204e-02 2.011893389332870470e+02
8.896693072697392513e-02 1.891748961321682430e+02
9.000747962363930821e-02 1.774831794627150998e+02
9.104802852030469129e-02 1.667826799141954268e+02
9.208857741697007437e-02 1.561298839217388092e+02
9.312912631363545746e-02 1.460930317865509096e+02
9.416967521030084054e-02 1.370295610124607890e+02
9.521022410696622362e-02 1.280704396403055512e+02
9.625077300363160671e-02 1.194972770769396959e+02
9.729132190029698979e-02 1.111011665118997627e+02
9.833187079696237287e-02 1.034709619268238896e+02
9.937241969362775595e-02 9.589835465796136305e+01
1.004129685902931390e-01 8.885146883396667761e+01
1.014535174869585221e-01 8.217610697545853782e+01
1.024940663836239052e-01 7.606960141735345360e+01
1.035346152802892883e-01 6.920722540415466995e+01
1.045751641769546714e-01 6.320582745398486679e+01
1.056157130736200545e-01 5.818847026018310942e+01
1.066562619702854375e-01 5.284389100915855408e+01
1.076968108669508206e-01 4.843820643003235205e+01
1.087373597636162037e-01 4.351915949739590417e+01
1.097779086602815868e-01 3.879236220707678484e+01
1.108184575569469699e-01 3.535760656462178986e+01
1.118590064536123529e-01 3.189723745578863756e+01
1.128995553502777360e-01 2.892275916938460156e+01
1.139401042469431191e-01 2.517557390116889238e+01
1.149806531436085022e-01 2.221415282817935477e+01
1.160212020402738853e-01 1.996067400976880535e+01
1.170617509369392684e-01 1.739840268640216436e+01
1.181022998336046514e-01 1.499714891288736140e+01
1.191428487302700345e-01 1.292627664432159662e+01
1.201833976269354176e-01 1.136875744727484161e+01
1.212239465236008007e-01 1.032508204168311394e+01
1.222644954202661838e-01 8.672788323816060796e+00
1.233050443169315669e-01 7.428462554899358139e+00
1.243455932135969499e-01 6.392747437477293460e+00
1.253861421102623330e-01 5.149173291451738521e+00
1.264266910069277161e-01 4.468512219464816582e+00
1.274672399035930992e-01 3.546459951169211422e+00
1.285077888002584823e-01 2.921944202123931689e+00
1.295483376969238654e-01 2.807019072220580114e+00
1.305888865935892484e-01 2.371091929488997607e+00
1.316294354902546315e-01 2.324852354646811392e+00
1.326699843869200146e-01 2.166487369817875930e+00
1.337105332835853977e-01 2.147975843345047764e+00
1.347510821802507808e-01 2.287045389672034190e+00
1.357916310769161639e-01 2.342678744186947881e+00
1.368321799735815469e-01 2.652284566266342125e+00
1.378727288702469300e-01 2.994606481344828097e+00
1.389132777669123131e-01 3.103210457637672448e+00
1.399538266635776962e-01 3.559573708855129581e+00
1.409943755602430793e-01 3.730843804740587188e+00
1.420349244569084624e-01 3.934062946219135881e+00
1.430754733535738454e-01 3.935377484134917836e+00
1.441160222502392285e-01 4.310420763754478912e+00
1.451565711469046116e-01 4.990101756291206669e+00
1.461971200435699947e-01 5.243166633143363953e+00
1.472376689402353778e-01 5.553158385372988448e+00
1.482782178369007609e-01 6.140507071098127767e+00
1.493187667335661439e-01 7.039322956339439941e+00
1.503593156302315270e-01 7.232898705156262764e+00
1.513998645268969101e-01 7.310495089794223134e+00
1.524404134235622932e-01 8.029827363444240973e+00
1.534809623202276763e-01 8.172006135809937177e+00
1.545215112168930593e-01 8.506164697451573886e+00
1.555620601135584424e-01 8.882869186412225559e+00
1.566026090102238255e-01 9.087033279420154486e+00
1.576431579068892086e-01 9.524914503741026550e+00
1.586837068035545917e-01 9.940461861975126823e+00
1.597242557002199748e-01 1.020507984202551555e+01
1.607648045968853578e-01 1.036687011536903569e+01
1.618053534935507409e-01 1.065012865040563028e+01
1.628459023902161240e-01 1.093501236639844620e+01
1.638864512868815071e-01 1.104200822513827518e+01
1.649270001835468902e-01 1.120424596474386547e+01
1.659675490802122733e-01 1.084768612702075075e+01
1.670080979768776563e-01 1.076287287788502667e+01
1.680486468735430672e-01 1.091428674909987961e+01
1.690891957702084503e-01 1.143837512389729838e+01
1.701297446668738333e-01 1.136306541075528287e+01
1.711702935635392164e-01 1.122004459058294756e+01
1.722108424602045995e-01 1.111584723407095510e+01
1.732513913568699826e-01 1.116921292229104523e+01
1.742919402535353657e-01 1.117093815576407678e+01
1.753324891502007488e-01 1.098160288869960510e+01
1.763730380468661318e-01 1.086812130202841331e+01
1.774135869435315149e-01 1.071035756051407972e+01
1.784541358401968980e-01 1.040773061627243479e+01
1.794946847368622811e-01 1.056018483659521223e+01
1.805352336335276642e-01 9.866750925292681274e+00
1.815757825301930473e-01 9.825513300144962159e+00
1.826163314268584303e-01 9.666959202728619971e+00
1.836568803235238134e-01 9.235868900720358710e+00
1.846974292201891965e-01 8.820729987095212721e+00
1.857379781168545796e-01 8.495687111495904276e+00
1.867785270135199627e-01 8.274262955708024947e+00
1.878190759101853458e-01 7.893740819266326980e+00
1.888596248068507288e-01 7.728934182502694483e+00
1.899001737035161119e-01 7.614187191641700991e+00
1.909407226001814950e-01 7.412660749872067356e+00
1.919812714968468781e-01 6.809125523475451303e+00
1.930218203935122612e-01 6.691120486619734464e+00
1.940623692901776443e-01 6.608644966602827964e+00
1.951029181868430273e-01 6.259634879642767658e+00
1.961434670835084104e-01 5.727116543809295024e+00
1.971840159801737935e-01 5.377644694154305682e+00
1.982245648768391766e-01 5.026810353136436760e+00
1.992651137735045597e-01 4.653288117650536293e+00
2.003056626701699428e-01 4.468316670430432680e+00
2.013462115668353813e-01 4.060693489609089823e+00
2.023867604635007644e-01 3.808866777342132082e+00
2.034273093601661475e-01 3.883982826691038781e+00
2.044678582568315306e-01 3.464358750752968064e+00
2.055084071534969137e-01 2.911521417056473382e+00
2.065489560501622968e-01 2.850324071142722460e+00
2.075895049468276798e-01 3.048894203894466415e+00
2.086300538434930629e-01 2.666749135172498342e+00
2.096706027401584460e-01 2.356430199701609496e+00
2.107111516368238291e-01 2.259285174663443030e+00
2.117517005334892122e-01 2.052287889320112413e+00
2.127922494301545953e-01 1.612558359183900336e+00
2.138327983268199783e-01 1.680697385399948729e+00
2.148733472234853614e-01 1.647772334789948445e+00
2.159138961201507445e-01 1.443177478871863428e+00
2.169544450168161276e-01 1.396889159477666453e+00
2.179949939134815107e-01 1.180224201810222695e+00
2.190355428101468938e-01 1.109223469252086147e+00
2.200760917068122768e-01 1.072282276862924988e+00
2.211166406034776599e-01 9.180633323219815622e-01
2.221571895001430430e-01 7.986941619814906801e-01
2.231977383968084261e-01 8.114274342938081475e-01
2.242382872934738092e-01 7.834927121954287088e-01
2.252788361901391923e-01 7.077794956036811413e-01
2.263193850868045753e-01 8.965224939687566064e-01
2.273599339834699584e-01 8.146059067050543945e-01
2.284004828801353415e-01 6.685954602872499208e-01
2.294410317768007246e-01 5.565188960811262575e-01
2.304815806734661077e-01 5.919072049914007039e-01
2.315221295701314908e-01 6.987418525545194825e-01
2.325626784667968738e-01 6.629669061463090429e-01
2.336032273634622569e-01 7.136876275451804474e-01
2.346437762601276400e-01 6.955903083804493292e-01
2.356843251567930231e-01 8.078755541697795195e-01
2.367248740534584062e-01 1.014696978224787216e+00
2.377654229501237892e-01 9.114922461950811794e-01
2.388059718467891723e-01 7.757641795710057409e-01
2.398465207434545554e-01 9.125421153162598387e-01
2.408870696401199385e-01 1.056722190331804256e+00
2.419276185367853216e-01 1.175560071877107760e+00
2.429681674334507047e-01 1.467969664664575902e+00
2.440087163301160877e-01 1.499249394796482449e+00
2.450492652267814708e-01 1.495831070525888151e+00
2.460898141234468539e-01 1.524279367972312116e+00
2.471303630201122370e-01 1.646347126760144164e+00
2.481709119167776201e-01 1.671863571822598260e+00
2.492114608134430032e-01 1.688071384954795917e+00
2.502520097101083585e-01 1.622367691565859360e+00
2.512925586067737416e-01 1.650726509123998653e+00
2.523331075034391247e-01 1.552788686368636206e+00
2.533736564001045077e-01 1.430641921587756826e+00
2.544142052967698908e-01 1.473633514530916955e+00
2.554547541934352739e-01 1.747514265556493029e+00
2.564953030901006570e-01 1.928549378769112366e+00
2.575358519867660401e-01 1.894108522431672270e+00
2.585764008834314231e-01 1.734037230274982022e+00
2.596169497800968062e-01 1.960471624811681579e+00
2.606574986767621893e-01 1.728664999664317747e+00
2.616980475734275724e-01 1.845160855959896651e+00
2.627385964700929555e-01 1.935283482335155014e+00
2.637791453667583386e-01 2.079387231873308650e+00
2.648196942634237216e-01 2.061655138301585311e+00
2.658602431600891047e-01 1.853634428365001696e+00
2.669007920567544878e-01 1.806490199000027275e+00
2.679413409534198709e-01 1.734151879718261569e+00
2.689818898500852540e-01 1.804980804233583314e+00
2.700224387467506371e-01 1.813239446595360960e+00
2.710629876434160201e-01 1.832764784716605533e+00
2.721035365400814032e-01 1.847588797411212624e+00
2.731440854367467863e-01 1.966963599383038996e+00
2.741846343334121694e-01 1.927609824387051418e+00
2.752251832300775525e-01 1.907735634954278225e+00
2.762657321267429356e-01 1.681949168506047698e+00
2.773062810234083186e-01 1.690699797271022931e+00
2.783468299200737017e-01 1.737712851309137108e+00
2.793873788167390848e-01 1.825508671639319402e+00
2.804279277134044679e-01 1.735327491593338323e+00
2.814684766100698510e-01 1.407390712234317220e+00
2.825090255067352341e-01 1.537827502949358660e+00
2.835495744034006171e-01 1.612766599894239761e+00
2.845901233000660002e-01 1.570596293068568627e+00
2.856306721967313833e-01 1.266281612760984387e+00
2.866712210933967664e-01 1.222602977879599706e+00
2.877117699900621495e-01 1.234791358527111527e+00
2.887523188867275326e-01 1.351801984512370325e+00
2.897928677833929156e-01 1.440509846936755878e+00
2.908334166800582987e-01 1.183317181220054692e+00
2.918739655767236818e-01 1.162540698952938101e+00
2.929145144733890649e-01 1.124659648876438212e+00
2.939550633700544480e-01 1.065567225332316070e+00
2.949956122667198311e-01 1.069868226082988372e+00
2.960361611633852141e-01 8.944423241861514384e-01
2.970767100600505972e-01 1.038538486143121276e+00
2.981172589567159803e-01 7.824553634349875608e-01
2.991578078533813634e-01 9.748112806531139540e-01
3.001983567500468020e-01 1.067107822368999592e+00
3.012389056467121851e-01 8.485120425982444203e-01
3.022794545433775681e-01 8.711533020950597006e-01
3.033200034400429512e-01 8.919516911676872439e-01
3.043605523367083343e-01 7.288530367177301628e-01
3.054011012333737174e-01 5.839132713249775009e-01
3.064416501300391005e-01 6.247867648516418626e-01
3.074821990267044836e-01 6.878216848772353842e-01
3.085227479233698666e-01 5.224988490720328116e-01
3.095632968200352497e-01 4.287431250668625182e-01
3.106038457167006328e-01 5.411267942527580033e-01
3.116443946133660159e-01 3.503265764177854180e-01
3.126849435100313990e-01 4.860569676911588033e-01
3.137254924066967821e-01 7.388323219428869493e-01
3.147660413033621651e-01 5.223748133558245854e-01
3.158065902000275482e-01 4.369907457325012956e-01
3.168471390966929313e-01 1.604188495364446965e-01
3.178876879933583144e-01 2.917006395097629934e-01
3.189282368900236975e-01 3.957587222758398582e-01
3.199687857866890806e-01 4.753841360512716108e-01
3.210093346833544636e-01 5.091162365341794782e-01
3.220498835800198467e-01 3.149377675434443802e-01
3.230904324766852298e-01 3.532243173998388386e-01
3.241309813733506129e-01 3.264901935658492960e-01
3.251715302700159960e-01 4.247099041276705123e-01
3.262120791666813790e-01 3.926930720348593695e-01
3.272526280633467621e-01 2.423268768347952573e-01
3.282931769600121452e-01 1.488254996159099619e-01
3.293337258566775283e-01 4.387026782842688988e-01
3.303742747533429114e-01 6.695717905092699596e-01
3.314148236500082945e-01 5.161634726850685695e-01
3.324553725466736775e-01 4.364221687111005110e-01
3.334959214433390606e-01 5.828054420658652646e-01
3.345364703400044437e-01 6.823497343549114191e-01
3.355770192366698268e-01 5.753734155295333608e-01
3.366175681333352099e-01 5.615874651535754936e-01
3.376581170300005930e-01 6.859168115922855691e-01
3.386986659266659760e-01 5.062985546171177020e-01
3.397392148233313591e-01 3.257432476064501259e-01
3.407797637199967422e-01 5.338275288127967144e-01
3.418203126166621253e-01 6.914910711759745254e-01
3.428608615133275084e-01 6.906706076954733931e-01
3.439014104099928915e-01 6.933776458725589009e-01
3.449419593066582745e-01 5.483065949271512807e-01
3.459825082033236576e-01 5.854810675957544674e-01
3.470230570999890407e-01 6.737458603433950088e-01
3.480636059966544238e-01 6.213024630576029494e-01
3.491041548933198069e-01 5.876553082850932697e-01
3.501447037899851900e-01 5.444777390810813245e-01
3.511852526866505730e-01 4.615374539004513110e-01
3.522258015833159561e-01 5.143928360021519097e-01
3.532663504799813392e-01 7.595592941541262633e-01
3.543068993766467223e-01 7.498556407459346929e-01
3.553474482733121054e-01 6.909010112951925464e-01
3.563879971699774885e-01 7.262168444291070557e-01
3.574285460666428715e-01 6.891830425401472837e-01
3.584690949633082546e-01 6.362803042176174984e-01
3.595096438599736377e-01 6.309409984945055783e-01
3.605501927566390208e-01 6.771934655391405045e-01
3.615907416533044039e-01 5.066008334887968090e-01
3.626312905499697870e-01 5.346890791968412771e-01
3.636718394466351700e-01 6.708472757116901164e-01
3.647123883433005531e-01 7.067857355284559162e-01
3.657529372399659362e-01 5.115513858183220464e-01
3.667934861366313193e-01 4.980904347430055168e-01
3.678340350332967024e-01 6.695164362292516103e-01
3.688745839299620854e-01 5.668996830927106600e-01
3.699151328266274685e-01 5.645002749015581855e-01
3.709556817232928516e-01 7.335274910489388844e-01
3.719962306199582347e-01 7.035677711325938333e-01
3.730367795166236178e-01 5.481373049556097499e-01
3.740773284132890009e-01 5.634444696738576397e-01
3.751178773099543839e-01 5.356545035861053350e-01
3.761584262066197670e-01 5.694438879346463978e-01
3.771989751032851501e-01 5.955654320677403746e-01
3.782395239999505332e-01 5.993989916979778343e-01
3.792800728966159163e-01 4.053088159354807374e-01
3.803206217932812994e-01 3.066877691444531706e-01
3.813611706899466824e-01 2.856465453114189756e-01
3.824017195866120655e-01 3.678680383141106347e-01
3.834422684832774486e-01 4.492841497495589920e-01
3.844828173799428317e-01 3.954185711370676870e-01
3.855233662766082148e-01 4.680813447052543097e-01
3.865639151732735979e-01 5.315243570212366819e-01
3.876044640699389809e-01 4.961344754441867622e-01
3.886450129666043640e-01 5.525367532925571368e-01
3.896855618632697471e-01 6.955292329699460652e-01
3.907261107599351302e-01 7.713248176844622606e-01
3.917666596566005133e-01 5.567074900369810564e-01
3.928072085532658964e-01 4.398340208712205879e-01
3.938477574499312794e-01 3.937602782569342708e-01
3.948883063465966625e-01 3.038199058984751844e-01
3.959288552432620456e-01 2.565472892375311176e-01
3.969694041399274287e-01 1.352951072815287148e-01
3.980099530365928118e-01 3.340981884903868604e-01
3.990505019332581949e-01 3.873129992150623480e-01
4.000910508299235779e-01 4.278136040312361388e-01
4.011315997265889610e-01 3.789936548001797689e-01
4.021721486232543441e-01 2.340259186046402817e-01
4.032126975199197272e-01 1.768215606672676188e-01
4.042532464165851103e-01 3.934822887744289233e-01
4.052937953132504934e-01 3.390643043440135784e-01
4.063343442099158764e-01 2.096727749604596625e-01
4.073748931065812595e-01 3.297310053496538274e-01
4.084154420032466426e-01 4.462310848297121879e-01
4.094559908999120257e-01 3.801197262821922607e-01
4.104965397965774088e-01 3.087185362906694763e-01
4.115370886932427918e-01 3.838584190819851472e-01
4.125776375899081749e-01 4.422334546339818928e-01
4.136181864865735580e-01 3.926152740668307217e-01
4.146587353832389411e-01 3.408995232606635284e-01
4.156992842799043242e-01 2.724862679325639192e-01
4.167398331765697073e-01 3.075673982925870575e-01
4.177803820732350903e-01 3.552829826851571227e-01
4.188209309699004734e-01 4.519935491203597167e-01
4.198614798665658565e-01 3.843668059471667675e-01
4.209020287632312396e-01 2.488738370215131113e-01
4.219425776598966227e-01 2.692300521681936232e-01
4.229831265565620058e-01 3.502111656805411144e-01
4.240236754532273888e-01 2.995913432163739287e-01
4.250642243498927719e-01 2.173964372127272782e-01
4.261047732465581550e-01 1.505458645684321084e-01
4.271453221432235381e-01 2.655631437060961275e-01
4.281858710398889212e-01 4.156877803483531864e-01
4.292264199365543043e-01 2.697573123294674247e-01
4.302669688332196873e-01 2.153237661058895469e-01
4.313075177298850704e-01 2.863505794917706737e-01
4.323480666265504535e-01 3.610181840154496058e-01
4.333886155232158366e-01 2.795503375398880053e-01
4.344291644198812197e-01 2.332866583954249506e-01
