# q (1/Angstrom), Intensity (arb)
2.029070354705860696e-02 1.299172875574550289e+03
2.133125244372399004e-02 1.297741568107858484e+03
2.237180134038937659e-02 1.292092959202864222e+03
2.341235023705475968e-02 1.280236049738466590e+03
2.445289913372014276e-02 1.270356263739396582e+03
2.549344803038552584e-02 1.257910253269669283e+03
2.653399692705091240e-02 1.249981752509432908e+03
2.757454582371629548e-02 1.234296107842996889e+03
2.861509472038167856e-02 1.221941006347973598e+03
2.965564361704706164e-02 1.203497556156446535e+03
3.069619251371244473e-02 1.187703498073420178e+03
3.173674141037782781e-02 1.176487963606808080e+03
3.277729030704321089e-02 1.164872246553623654e+03
3.381783920370859398e-02 1.145702798419323926e+03
3.485838810037397706e-02 1.126950216464809500e+03
3.589893699703936014e-02 1.110656509699918843e+03
3.693948589370474322e-02 1.091360675548113250e+03
3.798003479037012631e-02 1.065858061917637542e+03
3.902058368703550939e-02 1.044886488984951484e+03
4.006113258370089247e-02 1.024248767873275483e+03
4.110168148036627556e-02 1.007189659717268796e+03
4.214223037703165864e-02 9.845531682168145835e+02
4.318277927369704866e-02 9.638878664978047937e+02
4.422332817036243174e-02 9.440429822614745490e+02
4.526387706702781483e-02 9.252466896369232927e+02
4.630442596369319791e-02 9.028621304844423321e+02
4.734497486035858099e-02 8.831725442007946185e+02
4.838552375702396408e-02 8.650179683418906507e+02
4.942607265368934716e-02 8.415338717988544204e+02
5.046662155035473024e-02 8.198936982984847646e+02
5.150717044702011332e-02 7.962591644183263497e+02
5.254771934368549641e-02 7.730793192524591859e+02
5.358826824035087949e-02 7.541048212428131592e+02
5.462881713701626257e-02 7.341739255217604523e+02
5.566936603368164566e-02 7.106762923747668310e+02
5.670991493034702874e-02 6.907966401947654731e+02
5.775046382701241182e-02 6.687892950574230326e+02
5.879101272367779490e-02 6.475238791057767003e+02
5.983156162034317799e-02 6.295141133048983875e+02
6.087211051700856107e-02 6.089363602176397308e+02
6.191265941367394415e-02 5.874688412232932251e+02
6.295320831033933417e-02 5.701002673967993815e+02
6.399375720700471726e-02 5.502854883072932353e+02
6.503430610367010034e-02 5.311418529416123420e+02
6.607485500033548342e-02 5.117187682487573852e+02
6.711540389700086651e-02 4.925940536936616354e+02
6.815595279366624959e-02 4.745450953543132755e+02
6.919650169033163267e-02 4.559061591983596600e+02
7.023705058699701576e-02 4.365184710967175761e+02
7.127759948366239884e-02 4.210161729133800463e+02
7.231814838032778192e-02 4.033819534432448677e+02
7.335869727699316500e-02 3.866134405671152763e+02
7.439924617365854809e-02 3.701878835140804540e+02
7.543979507032393117e-02 3.550579521648276682e+02
7.648034396698931425e-02 3.381036526824134398e+02
7.752089286365469734e-02 3.189544489941745837e+02
7.856144176032008042e-02 3.047166390969338181e+02
7.960199065698546350e-02 2.915204511300518675e+02
8.064253955365084658e-02 2.759200441336910785e+02
8.168308845031622967e-02 2.633519523155476350e+02
8.272363734698161275e-02 2.499933250687898862e+02
8.376418624364699583e-02 2.364209523624982978e+02
8.480473514031239279e-02 2.246283468958150991e+02
8.584528403697777588e-02 2.129854476671596331e+02
8.688583293364315896e-02 1.997288647275636606e+02
8.792638183030854204e-02 1.891628167309994524e+02
8.896693072697392513e-02 1.778793184643830614e+02
9.000747962363930821e-02 1.679450282137885324e+02
9.104802852030469129e-02 1.580510149346210937e+02
9.208857741697007437e-02 1.473806442824730709e+02
9.312912631363545746e-02 1.375725524842202674e+02
9.416967521030084054e-02 1.291932203850487042e+02
9.521022410696622362e-02 1.209141853518251111e+02
9.625077300363160671e-02 1.129106760424720903e+02
9.729132190029698979e-02 1.043764866662518074e+02
9.833187079696237287e-02 9.654845024922732932e+01
9.937241969362775595e-02 9.007180888179266276e+01
1.004129685902931390e-01 8.325229822193469431e+01
1.014535174869585221e-01 7.704772470290032516e+01
1.024940663836239052e-01 7.142867594419871580e+01
1.035346152802892883e-01 6.571268269724063771e+01
1.045751641769546714e-01 5.978462444234610729e+01
1.056157130736200545e-01 5.485342055060505828e+01
1.066562619702854375e-01 4.922803875481990588e+01
1.076968108669508206e-01 4.466264894577170708e+01
1.087373597636162037e-01 4.039640507866114660e+01
1.097779086602815868e-01 3.727153022699172880e+01
1.108184575569469699e-01 3.350223445390826527e+01
1.118590064536123529e-01 2.963115566127309819e+01
1.128995553502777360e-01 2.645616816457806308e+01
1.139401042469431191e-01 2.381941982983776995e+01
1.149806531436085022e-01 2.091905377616582840e+01
1.160212020402738853e-01 1.880987906483287730e+01
1.170617509369392684e-01 1.673873666392769621e+01
1.181022998336046514e-01 1.455688815384345247e+01
1.191428487302700345e-01 1.265806954379328175e+01
1.201833976269354176e-01 1.087163471902249157e+01
1.212239465236008007e-01 9.406668484976467681e+00
1.222644954202661838e-01 8.098665756253133452e+00
1.233050443169315669e-01 6.979105020214266375e+00
1.243455932135969499e-01 6.112004237600984879e+00
1.253861421102623330e-01 5.219520669113890676e+00
1.264266910069277161e-01 4.245935089809478313e+00
1.274672399035930992e-01 3.666700232941529691e+00
1.285077888002584823e-01 3.262242619811164701e+00
1.295483376969238654e-01 2.878409847211901962e+00
1.305888865935892484e-01 2.621253465140910066e+00
1.316294354902546315e-01 2.416980352045840164e+00
1.326699843869200146e-01 2.160700851400498834e+00
1.337105332835853977e-01 1.927206214652933625e+00
1.347510821802507808e-01 2.179650407466574791e+00
1.357916310769161639e-01 2.478492670423197097e+00
1.368321799735815469e-01 2.765025918155782136e+00
1.378727288702469300e-01 2.813351018065755937e+00
1.389132777669123131e-01 2.923935634505948400e+00
1.399538266635776962e-01 3.023450278938774716e+00
1.409943755602430793e-01 3.711571328651526613e+00
1.420349244569084624e-01 4.141772998046945986e+00
1.430754733535738454e-01 4.126484691566613350e+00
1.441160222502392285e-01 4.316145026034291732e+00
1.451565711469046116e-01 4.914071369521316512e+00
1.461971200435699947e-01 5.038335987419284123e+00
1.472376689402353778e-01 5.634740958574404601e+00
1.482782178369007609e-01 6.138060276546344340e+00
1.493187667335661439e-01 6.620462810655464381e+00
1.503593156302315270e-01 6.839177482400149444e+00
1.513998645268969101e-01 7.348665518036426647e+00
1.524404134235622932e-01 7.839265346895167852e+00
1.534809623202276763e-01 8.043076733069813855e+00
1.545215112168930593e-01 8.332709575654192236e+00
1.555620601135584424e-01 9.047824613992382581e+00
1.566026090102238255e-01 9.244434716625868020e+00
1.576431579068892086e-01 9.416625229657576313e+00
1.586837068035545917e-01 9.874422469483011611e+00
1.597242557002199748e-01 9.755510913772507564e+00
1.607648045968853578e-01 9.853405524560969297e+00
1.618053534935507409e-01 1.004569835516176113e+01
1.628459023902161240e-01 1.026010653123043426e+01
1.638864512868815071e-01 1.048983518765268386e+01
1.649270001835468902e-01 1.078412755800764344e+01
1.659675490802122733e-01 1.074462303838685173e+01
1.670080979768776563e-01 1.100726179397895166e+01
1.680486468735430672e-01 1.124356783556100225e+01
1.690891957702084503e-01 1.099646265784037169e+01
1.701297446668738333e-01 1.082438199185356709e+01
1.711702935635392164e-01 1.093105448854897688e+01
1.722108424602045995e-01 1.074754817987439637e+01
1.732513913568699826e-01 1.065619905368420817e+01
1.742919402535353657e-01 1.038485756606221244e+01
1.753324891502007488e-01 1.026186968252164888e+01
1.763730380468661318e-01 1.014163318596708052e+01
1.774135869435315149e-01 1.020374233785204510e+01
1.784541358401968980e-01 1.004561848044722794e+01
1.794946847368622811e-01 9.523491604949860800e+00
1.805352336335276642e-01 9.557688610351178227e+00
1.815757825301930473e-01 9.536362528104138647e+00
1.826163314268584303e-01 9.409536007857568052e+00
1.836568803235238134e-01 8.934133853869798969e+00
1.846974292201891965e-01 8.583524505462467147e+00
1.857379781168545796e-01 8.568789872908606498e+00
1.867785270135199627e-01 8.363193975670473179e+00
1.878190759101853458e-01 7.789252767805166400e+00
1.888596248068507288e-01 7.862730709129312601e+00
1.899001737035161119e-01 7.581004854240397606e+00
1.909407226001814950e-01 7.062705837631924055e+00
1.919812714968468781e-01 6.666424991406795897e+00
1.930218203935122612e-01 6.424278233401246041e+00
1.940623692901776443e-01 6.066405799694805978e+00
1.951029181868430273e-01 5.806250285675126577e+00
1.961434670835084104e-01 5.592348807994465432e+00
1.971840159801737935e-01 5.376334361439226939e+00
1.982245648768391766e-01 4.733382369400697343e+00
1.992651137735045597e-01 4.417327790681099486e+00
2.003056626701699428e-01 4.293558581747621616e+00
2.013462115668353813e-01 4.311424382789702747e+00
2.023867604635007644e-01 4.054915036951054930e+00
2.034273093601661475e-01 3.780373970740626532e+00
2.044678582568315306e-01 3.596924087092386202e+00
2.055084071534969137e-01 3.398763447856254061e+00
2.065489560501622968e-01 3.040821591636987620e+00
2.075895049468276798e-01 2.854501627197020497e+00
2.086300538434930629e-01 2.850062432060422424e+00
2.096706027401584460e-01 2.606889639327469865e+00
2.107111516368238291e-01 2.416823724613880842e+00
2.117517005334892122e-01 2.217771896688297772e+00
2.127922494301545953e-01 2.044521638063052649e+00
2.138327983268199783e-01 1.856677221105226039e+00
2.148733472234853614e-01 1.771764741717323233e+00
2.159138961201507445e-01 1.598319363234985246e+00
2.169544450168161276e-01 1.224747459129616800e+00
2.179949939134815107e-01 1.301839457662936184e+00
2.190355428101468938e-01 1.057543837578734269e+00
2.200760917068122768e-01 9.267699576532493211e-01
2.211166406034776599e-01 1.205576484306469354e+00
2.221571895001430430e-01 1.199540574705714846e+00
2.231977383968084261e-01 1.016100362373364874e+00
2.242382872934738092e-01 1.093787766368190972e+00
2.252788361901391923e-01 1.039492138251759457e+00
2.263193850868045753e-01 8.848707400209967489e-01
2.273599339834699584e-01 9.354156649374907317e-01
2.284004828801353415e-01 8.863537906870639915e-01
2.294410317768007246e-01 8.581239351069065435e-01
2.304815806734661077e-01 6.772246603676528309e-01
2.315221295701314908e-01 8.457119469652880639e-01
2.325626784667968738e-01 9.120170954583670664e-01
2.336032273634622569e-01 9.367814054907839250e-01
2.346437762601276400e-01 1.012630714478081728e+00
2.356843251567930231e-01 1.118232144078604051e+00
2.367248740534584062e-01 1.112733637340273418e+00
2.377654229501237892e-01 1.122767051439961250e+00
2.388059718467891723e-01 9.909149890348309953e-01
2.398465207434545554e-01 9.170075349629058792e-01
2.408870696401199385e-01 9.441426751545378693e-01
2.419276185367853216e-01 9.895025317064209958e-01
2.429681674334507047e-01 1.220954089283740274e+00
2.440087163301160877e-01 1.472916455064538610e+00
2.450492652267814708e-01 1.594655485443954746e+00
2.460898141234468539e-01 1.519444049810605435e+00
2.471303630201122370e-01 1.535315601295710763e+00
2.481709119167776201e-01 1.601612733273039879e+00
2.492114608134430032e-01 1.518181421080281979e+00
2.502520097101083585e-01 1.639525800242466858e+00
2.512925586067737416e-01 1.589839004379527410e+00
2.523331075034391247e-01 1.459161288979704096e+00
2.533736564001045077e-01 1.800546978910666951e+00
2.544142052967698908e-01 2.026462102809681198e+00
2.554547541934352739e-01 1.457959435610938215e+00
2.564953030901006570e-01 1.725100337281684659e+00
2.575358519867660401e-01 2.132595999956404142e+00
2.585764008834314231e-01 1.935017221588889669e+00
2.596169497800968062e-01 2.076271448832368804e+00
2.606574986767621893e-01 1.988716435315126319e+00
2.616980475734275724e-01 2.300032981899256868e+00
2.627385964700929555e-01 2.455517587639985067e+00
2.637791453667583386e-01 2.353790785009792330e+00
2.648196942634237216e-01 2.094714840774820175e+00
2.658602431600891047e-01 2.125937957031471370e+00
2.669007920567544878e-01 1.800362930958186780e+00
2.679413409534198709e-01 1.655119297912158061e+00
2.689818898500852540e-01 1.729662711457979896e+00
2.700224387467506371e-01 1.826715584433010520e+00
2.710629876434160201e-01 2.043782398926769162e+00
2.721035365400814032e-01 1.806940044341011742e+00
2.731440854367467863e-01 1.831890325985817469e+00
2.741846343334121694e-01 1.890627063864556590e+00
2.752251832300775525e-01 1.994710546229988779e+00
2.762657321267429356e-01 1.746267628548764606e+00
2.773062810234083186e-01 1.641347080425838101e+00
2.783468299200737017e-01 1.847972744307302406e+00
2.793873788167390848e-01 1.589795141083424568e+00
2.804279277134044679e-01 1.468785031228609483e+00
2.814684766100698510e-01 1.409654893511280704e+00
2.825090255067352341e-01 1.390500523125503207e+00
2.835495744034006171e-01 1.528277595081462437e+00
2.845901233000660002e-01 1.618726449311019167e+00
2.856306721967313833e-01 1.702159117590738902e+00
2.866712210933967664e-01 1.640553923496007371e+00
2.877117699900621495e-01 1.762802634761225562e+00
2.887523188867275326e-01 1.601501030256464730e+00
2.897928677833929156e-01 1.361586312505959739e+00
2.908334166800582987e-01 1.363255549643035636e+00
2.918739655767236818e-01 1.357950398833818184e+00
2.929145144733890649e-01 1.150750052433195947e+00
2.939550633700544480e-01 1.082218898813586350e+00
2.949956122667198311e-01 1.235719947385376827e+00
2.960361611633852141e-01 1.313948124335713175e+00
2.970767100600505972e-01 1.191444971590861712e+00
2.981172589567159803e-01 1.235580059440692935e+00
2.991578078533813634e-01 1.162476820460145888e+00
3.001983567500468020e-01 8.913482524489708680e-01
3.012389056467121851e-01 8.249430332031160162e-01
3.022794545433775681e-01 6.538815576844640987e-01
3.033200034400429512e-01 5.316576245941853074e-01
3.043605523367083343e-01 6.824408722731298838e-01
3.054011012333737174e-01 6.737276283503561558e-01
3.064416501300391005e-01 6.957708228312071697e-01
3.074821990267044836e-01 6.774725691306855424e-01
3.085227479233698666e-01 6.371481610236457982e-01
3.095632968200352497e-01 7.029588958262635856e-01
3.106038457167006328e-01 6.523156118629422906e-01
3.116443946133660159e-01 5.066173691995388140e-01
3.126849435100313990e-01 5.908788506177451438e-01
3.137254924066967821e-01 6.806861873575478228e-01
3.147660413033621651e-01 5.325181388583573039e-01
3.158065902000275482e-01 5.349196310189299197e-01
3.168471390966929313e-01 4.873054007122448184e-01
3.178876879933583144e-01 5.666560186979161529e-01
3.189282368900236975e-01 5.719758357921982395e-01
3.199687857866890806e-01 5.523677308723371482e-01
3.210093346833544636e-01 6.680543539543144504e-01
3.220498835800198467e-01 4.048873852076440016e-01
3.230904324766852298e-01 5.417960655732017017e-01
3.241309813733506129e-01 4.640038557814065712e-01
3.251715302700159960e-01 4.707448350444778384e-01
3.262120791666813790e-01 5.623834587509968230e-01
3.272526280633467621e-01 5.134815708962960912e-01
3.282931769600121452e-01 5.109188904723360736e-01
3.293337258566775283e-01 6.975659766142392471e-01
3.303742747533429114e-01 7.922661514388948945e-01
3.314148236500082945e-01 5.613636761299574118e-01
3.324553725466736775e-01 5.960180355940138952e-01
3.334959214433390606e-01 6.380348867535623469e-01
3.345364703400044437e-01 5.368847808260461818e-01
3.355770192366698268e-01 8.027973812586743918e-01
3.366175681333352099e-01 7.497702635996326137e-01
3.376581170300005930e-01 5.924090084123676547e-01
3.386986659266659760e-01 6.598280792039368237e-01
3.397392148233313591e-01 8.062451130380345887e-01
3.407797637199967422e-01 7.186227613464026831e-01
3.418203126166621253e-01 7.716251215937326435e-01
3.428608615133275084e-01 6.862981838198187745e-01
3.439014104099928915e-01 6.241441134710612459e-01
3.449419593066582745e-01 7.267161011807381499e-01
3.459825082033236576e-01 8.901597102720053556e-01
3.470230570999890407e-01 8.619485330415521673e-01
3.480636059966544238e-01 7.042076401745873682e-01
3.491041548933198069e-01 5.266407336406295769e-01
3.501447037899851900e-01 5.648555202574421230e-01
3.511852526866505730e-01 7.276787688600840909e-01
3.522258015833159561e-01 7.418850842731643525e-01
3.532663504799813392e-01 8.742621918270216952e-01
3.543068993766467223e-01 7.161212314428198056e-01
3.553474482733121054e-01 6.680867422644247711e-01
3.563879971699774885e-01 7.472527211038801909e-01
3.574285460666428715e-01 7.074135374571852708e-01
3.584690949633082546e-01 6.618527379333052352e-01
3.595096438599736377e-01 6.104208679130103121e-01
3.605501927566390208e-01 5.931286293231856632e-01
3.615907416533044039e-01 7.708217282977223306e-01
3.626312905499697870e-01 9.154248358089454030e-01
3.636718394466351700e-01 9.136830253911938371e-01
3.647123883433005531e-01 6.928468510701719651e-01
3.657529372399659362e-01 3.850837208828323810e-01
3.667934861366313193e-01 5.027713389814358891e-01
3.678340350332967024e-01 6.590430093246553156e-01
3.688745839299620854e-01 6.285004720518152510e-01
3.699151328266274685e-01 5.965560658016322293e-01
3.709556817232928516e-01 7.544143636936162522e-01
3.719962306199582347e-01 9.306432353270714941e-01
3.730367795166236178e-01 9.299440965464746967e-01
3.740773284132890009e-01 7.206525507542096420e-01
3.751178773099543839e-01 6.727028489124968758e-01
3.761584262066197670e-01 8.995919864690655743e-01
3.771989751032851501e-01 5.927068372789676687e-01
3.782395239999505332e-01 3.627696946884668705e-01
3.792800728966159163e-01 4.686259181716003752e-01
3.803206217932812994e-01 4.736227812162461248e-01
3.813611706899466824e-01 4.444324872918983260e-01
3.824017195866120655e-01 4.874268030054906831e-01
3.834422684832774486e-01 5.299621550418578408e-01
3.844828173799428317e-01 6.536992334474298616e-01
3.855233662766082148e-01 5.053085696278678540e-01
3.865639151732735979e-01 6.783089967171171963e-01
3.876044640699389809e-01 6.486890742230038143e-01
3.886450129666043640e-01 5.935960472451320413e-01
3.896855618632697471e-01 5.697560982743397062e-01
3.907261107599351302e-01 5.379181258388996412e-01
3.917666596566005133e-01 3.708638019062568958e-01
3.928072085532658964e-01 4.359296071518912186e-01
3.938477574499312794e-01 4.781769213343380898e-01
3.948883063465966625e-01 4.418472522732699304e-01
3.959288552432620456e-01 6.042129797047515183e-01
3.969694041399274287e-01 6.361338737614410377e-01
3.980099530365928118e-01 5.222078958199993792e-01
3.990505019332581949e-01 3.657210375741009045e-01
4.000910508299235779e-01 2.872346385534072510e-01
4.011315997265889610e-01 2.745007158723424823e-01
4.021721486232543441e-01 1.587433664471582517e-01
4.032126975199197272e-01 1.574550395063170072e-01
4.042532464165851103e-01 2.993276851516704085e-01
4.052937953132504934e-01 4.606634801055626838e-01
4.063343442099158764e-01 4.085907381268434335e-01
4.073748931065812595e-01 4.946155443944633134e-01
4.084154420032466426e-01 6.437055663957274021e-01
4.094559908999120257e-01 4.933129666267710434e-01
4.104965397965774088e-01 2.460759688902705022e-01
4.115370886932427918e-01 1.592614577582729396e-01
4.125776375899081749e-01 2.686067291358043008e-01
4.136181864865735580e-01 4.047778673593604992e-01
4.146587353832389411e-01 5.425416192939245263e-01
4.156992842799043242e-01 4.278305334159995255e-01
4.167398331765697073e-01 5.046205638417262662e-01
4.177803820732350903e-01 3.746603897414821915e-01
4.188209309699004734e-01 3.261840041842027915e-01
4.198614798665658565e-01 4.187650338074249134e-01
4.209020287632312396e-01 4.432549108471270927e-01
4.219425776598966227e-01 3.109260710199386324e-01
4.229831265565620058e-01 2.349891486581086042e-01
4.240236754532273888e-01 2.970560119025087431e-01
4.250642243498927719e-01 2.904976083988373148e-01
4.261047732465581550e-01 4.363969999617332007e-01
4.271453221432235381e-01 4.116416073353583727e-01
4.281858710398889212e-01 2.622456205537595508e-01
4.292264199365543043e-01 2.615284366177306197e-01
4.302669688332196873e-01 2.139455622291812631e-01
4.313075177298850704e-01 2.246940274452704500e-01
4.323480666265504535e-01 4.029955347192526460e-01
4.333886155232158366e-01 3.833938929874349810e-01
4.344291644198812197e-01 3.968429736595489032e-01
