# q (1/Angstrom), Intensity (arb)
2.029070354705860696e-02 1.307802775868350636e+03
2.133125244372399004e-02 1.303597903290597287e+03
2.237180134038937659e-02 1.307489236207074100e+03
2.341235023705475968e-02 1.294978279167351957e+03
2.445289913372014276e-02 1.284527487747298665e+03
2.549344803038552584e-02 1.272030746366734775e+03
2.653399692705091240e-02 1.260082607240429070e+03
2.757454582371629548e-02 1.251546507938810691e+03
2.861509472038167856e-02 1.233946787145527878e+03
2.965564361704706164e-02 1.215793340277571815e+03
3.069619251371244473e-02 1.201412289566761729e+03
3.173674141037782781e-02 1.186128953260188609e+03
3.277729030704321089e-02 1.169099074816298071e+03
3.381783920370859398e-02 1.155823587742880136e+03
3.485838810037397706e-02 1.135740849392831706e+03
3.589893699703936014e-02 1.116648409082021089e+03
3.693948589370474322e-02 1.097175065729674316e+03
3.798003479037012631e-02 1.074770558571981610e+03
3.902058368703550939e-02 1.055486906627450253e+03
4.006113258370089247e-02 1.036188484788627875e+03
4.110168148036627556e-02 1.013415174137814006e+03
4.214223037703165864e-02 9.938142321457145272e+02
4.318277927369704866e-02 9.753864957908847373e+02
4.422332817036243174e-02 9.533418870721318399e+02
4.526387706702781483e-02 9.300463719664772952e+02
4.630442596369319791e-02 9.115239717426504740e+02
4.734497486035858099e-02 8.944837883402433363e+02
4.838552375702396408e-02 8.738928044565018354e+02
4.942607265368934716e-02 8.513333530898329400e+02
5.046662155035473024e-02 8.284808577540595707e+02
5.150717044702011332e-02 8.044060410086268575e+02
5.254771934368549641e-02 7.831200831635683244e+02
5.358826824035087949e-02 7.603741771176587463e+02
5.462881713701626257e-02 7.386095448569519704e+02
5.566936603368164566e-02 7.175899572600031888e+02
5.670991493034702874e-02 6.970495919717044444e+02
5.775046382701241182e-02 6.774238745184156869e+02
5.879101272367779490e-02 6.574610748186187266e+02
5.983156162034317799e-02 6.346074081746239699e+02
6.087211051700856107e-02 6.143487612425390125e+02
6.191265941367394415e-02 5.944679524464846736e+02
6.295320831033933417e-02 5.729092145529643858e+02
6.399375720700471726e-02 5.533426689417073021e+02
6.503430610367010034e-02 5.356628880471569119e+02
6.607485500033548342e-02 5.162525299346212933e+02
6.711540389700086651e-02 4.961687713231457906e+02
6.815595279366624959e-02 4.783902073365405272e+02
6.919650169033163267e-02 4.594840881944767261e+02
7.023705058699701576e-02 4.414348557207417230e+02
7.127759948366239884e-02 4.245454823648415754e+02
7.231814838032778192e-02 4.074011599521750782e+02
7.335869727699316500e-02 3.889439524006326110e+02
7.439924617365854809e-02 3.740545634037971467e+02
7.543979507032393117e-02 3.562632836098347866e+02
7.648034396698931425e-02 3.397953692391369032e+02
7.752089286365469734e-02 3.248290904418078640e+02
7.856144176032008042e-02 3.103916229463985701e+02
7.960199065698546350e-02 2.967264788750158004e+02
8.064253955365084658e-02 2.805378901549308921e+02
8.168308845031622967e-02 2.670806522537594105e+02
8.272363734698161275e-02 2.528074221205255867e+02
8.376418624364699583e-02 2.395294365812382011e+02
8.480473514031239279e-02 2.272801024697614878e+02
8.584528403697777588e-02 2.146687222758358189e+02
8.688583293364315896e-02 2.020049261392301219e+02
8.792638183030854204e-02 1.908117099230355507e+02
8.896693072697392513e-02 1.809050546518762133e+02
9.000747962363930821e-02 1.704773506569504775e+02
9.104802852030469129e-02 1.598461270039375108e+02
9.208857741697007437e-02 1.496311211667884891e+02
9.312912631363545746e-02 1.408768969127952460e+02
9.416967521030084054e-02 1.319243774322489742e+02
9.521022410696622362e-02 1.228430305898091319e+02
9.625077300363160671e-02 1.139900228295918794e+02
9.729132190029698979e-02 1.050570241463650376e+02
9.833187079696237287e-02 9.844904048995294943e+01
9.937241969362775595e-02 9.229289750716105800e+01
1.004129685902931390e-01 8.473855877672991710e+01
1.014535174869585221e-01 7.767424346404125401e+01
1.024940663836239052e-01 7.207319276514388662e+01
1.035346152802892883e-01 6.596930878950728072e+01
1.045751641769546714e-01 6.033897717555090878e+01
1.056157130736200545e-01 5.557680719039245787e+01
1.066562619702854375e-01 5.070916755486234706e+01
1.076968108669508206e-01 4.606317378011831210e+01
1.087373597636162037e-01 4.128742799863491086e+01
1.097779086602815868e-01 3.736708687970696019e+01
1.108184575569469699e-01 3.408449238980588802e+01
1.118590064536123529e-01 3.032695419062295272e+01
1.128995553502777360e-01 2.676132437647737561e+01
1.139401042469431191e-01 2.402271483702657662e+01
1.149806531436085022e-01 2.181882874476457346e+01
1.160212020402738853e-01 1.922520038059267833e+01
1.170617509369392684e-01 1.714575511211364756e+01
1.181022998336046514e-01 1.522191849211920101e+01
1.191428487302700345e-01 1.313306180131147016e+01
1.201833976269354176e-01 1.108745467395023354e+01
1.212239465236008007e-01 9.641051787987265698e+00
1.222644954202661838e-01 8.493085530291509144e+00
1.233050443169315669e-01 7.226465553601755687e+00
1.243455932135969499e-01 6.373655901238489463e+00
1.253861421102623330e-01 5.410923146241167103e+00
1.264266910069277161e-01 4.443332944850649113e+00
1.274672399035930992e-01 3.859989538485404381e+00
1.285077888002584823e-01 3.445276103102521859e+00
1.295483376969238654e-01 3.527246759308962254e+00
1.305888865935892484e-01 3.450052255251360833e+00
1.316294354902546315e-01 2.493085173827246592e+00
1.326699843869200146e-01 2.012618479294808083e+00
1.337105332835853977e-01 2.279752982703382003e+00
1.347510821802507808e-01 2.555321654896729910e+00
1.357916310769161639e-01 2.939026056132540532e+00
1.368321799735815469e-01 3.071721571982017451e+00
1.378727288702469300e-01 3.170835117167083439e+00
1.389132777669123131e-01 3.120030365482957535e+00
1.399538266635776962e-01 3.678142947795421946e+00
1.409943755602430793e-01 4.342385260885954779e+00
1.420349244569084624e-01 4.728540205286552833e+00
1.430754733535738454e-01 4.599496118960434643e+00
1.441160222502392285e-01 4.837988194189705382e+00
1.451565711469046116e-01 5.122797915645268318e+00
1.461971200435699947e-01 5.462141251280872467e+00
1.472376689402353778e-01 6.496566775973111163e+00
1.482782178369007609e-01 6.696519578107050563e+00
1.493187667335661439e-01 7.153509478032077595e+00
1.503593156302315270e-01 7.556667595179451524e+00
1.513998645268969101e-01 7.772118481595729378e+00
1.524404134235622932e-01 8.132509568062271654e+00
1.534809623202276763e-01 8.418640602588116195e+00
1.545215112168930593e-01 9.070460456531012738e+00
1.555620601135584424e-01 9.238954964530641689e+00
1.566026090102238255e-01 9.428491357911422455e+00
1.576431579068892086e-01 9.970694731442470982e+00
1.586837068035545917e-01 1.017177517224429906e+01
1.597242557002199748e-01 1.011916959256594239e+01
1.607648045968853578e-01 1.039356207271923793e+01
1.618053534935507409e-01 1.056179345498093269e+01
1.628459023902161240e-01 1.087333891348833603e+01
1.638864512868815071e-01 1.108144490140207594e+01
1.649270001835468902e-01 1.102345170913692129e+01
1.659675490802122733e-01 1.106779147983337808e+01
1.670080979768776563e-01 1.091172811720397107e+01
1.680486468735430672e-01 1.098704438143396089e+01
1.690891957702084503e-01 1.109630875167077235e+01
1.701297446668738333e-01 1.127014300014888093e+01
1.711702935635392164e-01 1.148257231160369329e+01
1.722108424602045995e-01 1.139998543581250345e+01
1.732513913568699826e-01 1.126555893292274035e+01
1.742919402535353657e-01 1.107157286645276884e+01
1.753324891502007488e-01 1.071919630048840233e+01
1.763730380468661318e-01 1.066122968607540855e+01
1.774135869435315149e-01 1.027884888072902214e+01
1.784541358401968980e-01 1.002283558485622095e+01
1.794946847368622811e-01 9.594598957010180840e+00
1.805352336335276642e-01 9.457210457582984731e+00
1.815757825301930473e-01 9.512253608445124797e+00
1.826163314268584303e-01 9.380479572160119517e+00
1.836568803235238134e-01 9.345524284796709935e+00
1.846974292201891965e-01 9.336810963652695250e+00
1.857379781168545796e-01 8.766663163850598295e+00
1.867785270135199627e-01 8.554992242090502685e+00
1.878190759101853458e-01 8.269056085858590421e+00
1.888596248068507288e-01 8.187224877075266249e+00
1.899001737035161119e-01 7.884851399411026307e+00
1.909407226001814950e-01 7.423350938207601502e+00
1.919812714968468781e-01 6.711890665501794473e+00
1.930218203935122612e-01 6.598257316103023129e+00
1.940623692901776443e-01 6.123118257063755010e+00
1.951029181868430273e-01 5.703295387257096394e+00
1.961434670835084104e-01 5.636777680421808157e+00
1.971840159801737935e-01 5.645326490650511175e+00
1.982245648768391766e-01 5.542347354255372949e+00
1.992651137735045597e-01 5.183996282562301161e+00
2.003056626701699428e-01 5.187238836547489740e+00
2.013462115668353813e-01 4.726572749670310714e+00
2.023867604635007644e-01 4.124711627405201142e+00
2.034273093601661475e-01 4.025801552565209107e+00
2.044678582568315306e-01 3.759489408819263190e+00
2.055084071534969137e-01 3.234592877757901164e+00
2.065489560501622968e-01 3.146649184761461271e+00
2.075895049468276798e-01 3.034296702877039564e+00
2.086300538434930629e-01 2.844167829260516811e+00
2.096706027401584460e-01 2.669790051247769469e+00
2.107111516368238291e-01 2.433357609169501501e+00
2.117517005334892122e-01 2.472368568449123671e+00
2.127922494301545953e-01 2.351221942011509469e+00
2.138327983268199783e-01 2.177486934061665380e+00
2.148733472234853614e-01 1.834689905224109907e+00
2.159138961201507445e-01 1.554764833840803107e+00
2.169544450168161276e-01 1.539564290812645453e+00
2.179949939134815107e-01 1.603461647553146463e+00
2.190355428101468938e-01 1.334679643927387360e+00
2.200760917068122768e-01 1.276631787328465606e+00
2.211166406034776599e-01 1.378010406491934958e+00
2.221571895001430430e-01 1.164512276103152999e+00
2.231977383968084261e-01 1.271432768713992800e+00
2.242382872934738092e-01 1.090296614178683399e+00
2.252788361901391923e-01 1.085868609403849661e+00
2.263193850868045753e-01 1.349022775039848909e+00
2.273599339834699584e-01 1.315517000591661656e+00
2.284004828801353415e-01 1.109585863327190225e+00
2.294410317768007246e-01 1.082876662419593572e+00
2.304815806734661077e-01 1.102476875149640989e+00
2.315221295701314908e-01 1.125602498002006513e+00
2.325626784667968738e-01 1.291589143335666989e+00
2.336032273634622569e-01 1.258073423928884438e+00
2.346437762601276400e-01 1.287501976575239127e+00
2.356843251567930231e-01 1.071363406250640082e+00
2.367248740534584062e-01 1.074146443039982302e+00
2.377654229501237892e-01 1.015292573773628249e+00
2.388059718467891723e-01 1.145798053422339535e+00
2.398465207434545554e-01 1.180624587118295210e+00
2.408870696401199385e-01 1.132647560971534517e+00
2.419276185367853216e-01 1.367999101985134303e+00
2.429681674334507047e-01 1.503759951705440301e+00
2.440087163301160877e-01 1.708404523355550708e+00
2.450492652267814708e-01 1.733970992304119108e+00
2.460898141234468539e-01 1.759529347812016198e+00
2.471303630201122370e-01 1.833583953820330237e+00
2.481709119167776201e-01 1.668620072333748539e+00
2.492114608134430032e-01 1.831425900874990020e+00
2.502520097101083585e-01 1.840050661860455961e+00
2.512925586067737416e-01 1.799987055692000126e+00
2.523331075034391247e-01 1.909913981227116864e+00
2.533736564001045077e-01 2.101559013632407158e+00
2.544142052967698908e-01 2.047571372752980068e+00
2.554547541934352739e-01 1.988011472067491070e+00
2.564953030901006570e-01 2.108321066963938506e+00
2.575358519867660401e-01 2.262386543056937427e+00
2.585764008834314231e-01 2.258023224995227451e+00
2.596169497800968062e-01 2.317951382892672996e+00
2.606574986767621893e-01 2.131824683620855865e+00
2.616980475734275724e-01 2.150288693450939093e+00
2.627385964700929555e-01 2.257043485803791327e+00
2.637791453667583386e-01 2.557878164191404124e+00
2.648196942634237216e-01 2.325859147502640667e+00
2.658602431600891047e-01 2.244998166284656094e+00
2.669007920567544878e-01 2.085720258193532572e+00
2.679413409534198709e-01 2.313524372122213180e+00
2.689818898500852540e-01 2.215690731256145796e+00
2.700224387467506371e-01 2.224051714602097718e+00
2.710629876434160201e-01 2.313177467203388460e+00
2.721035365400814032e-01 2.185060128032493054e+00
2.731440854367467863e-01 2.232831983187093527e+00
2.741846343334121694e-01 2.327143196127231306e+00
2.752251832300775525e-01 2.223881459278167938e+00
2.762657321267429356e-01 2.126889003716513571e+00
2.773062810234083186e-01 2.138581644641007529e+00
2.783468299200737017e-01 2.272744011932015695e+00
2.793873788167390848e-01 2.106472477140059141e+00
2.804279277134044679e-01 2.039823880938147482e+00
2.814684766100698510e-01 1.973732658925744232e+00
2.825090255067352341e-01 1.759915691240919955e+00
2.835495744034006171e-01 1.700488931514680502e+00
2.845901233000660002e-01 1.823031081229324002e+00
2.856306721967313833e-01 1.995766629611111398e+00
2.866712210933967664e-01 1.738364533422917191e+00
2.877117699900621495e-01 1.559011047486571044e+00
2.887523188867275326e-01 1.533681903961685578e+00
2.897928677833929156e-01 1.543741009986110413e+00
2.908334166800582987e-01 1.641880341038032043e+00
2.918739655767236818e-01 1.492567589588393417e+00
2.929145144733890649e-01 1.208092138929622195e+00
2.939550633700544480e-01 1.349654177759322948e+00
2.949956122667198311e-01 1.423611820248062543e+00
2.960361611633852141e-01 1.595955898321726352e+00
2.970767100600505972e-01 1.517933871444515859e+00
2.981172589567159803e-01 1.315894239249953301e+00
2.991578078533813634e-01 1.008158763479357845e+00
3.001983567500468020e-01 1.037922739138661399e+00
3.012389056467121851e-01 1.139308649371972848e+00
3.022794545433775681e-01 1.266344285401913794e+00
3.033200034400429512e-01 1.182894705384033074e+00
3.043605523367083343e-01 1.085523499287027960e+00
3.054011012333737174e-01 1.124767504820852082e+00
3.064416501300391005e-01 1.029661252226016899e+00
3.074821990267044836e-01 9.775050176620538878e-01
3.085227479233698666e-01 8.242938453902368678e-01
3.095632968200352497e-01 1.080358778487585880e+00
3.106038457167006328e-01 1.099841242428752253e+00
3.116443946133660159e-01 9.052652416286548487e-01
3.126849435100313990e-01 7.910973988014191605e-01
3.137254924066967821e-01 8.371220034121655829e-01
3.147660413033621651e-01 7.389402090846921567e-01
3.158065902000275482e-01 6.572977146273011329e-01
3.168471390966929313e-01 8.198782579389067848e-01
3.178876879933583144e-01 8.029867453270220778e-01
3.189282368900236975e-01 6.697437173488616224e-01
3.199687857866890806e-01 8.422458924543647640e-01
3.210093346833544636e-01 9.019606035598322080e-01
3.220498835800198467e-01 7.901067018612231152e-01
3.230904324766852298e-01 7.546064678900030742e-01
3.241309813733506129e-01 8.453206769243450935e-01
3.251715302700159960e-01 7.211286264762861720e-01
3.262120791666813790e-01 6.081835772751631453e-01
3.272526280633467621e-01 4.044832313222990194e-01
3.282931769600121452e-01 5.474425162238958364e-01
3.293337258566775283e-01 8.727257033968207622e-01
3.303742747533429114e-01 9.366364281341539311e-01
3.314148236500082945e-01 8.068732529514335283e-01
3.324553725466736775e-01 9.497881378128418817e-01
3.334959214433390606e-01 5.943765207802584882e-01
3.345364703400044437e-01 7.200580214373850652e-01
3.355770192366698268e-01 8.740980011080239365e-01
3.366175681333352099e-01 9.319755538036886833e-01
3.376581170300005930e-01 1.097643567645864238e+00
3.386986659266659760e-01 1.024396758206705726e+00
3.397392148233313591e-01 9.205671472971346248e-01
3.407797637199967422e-01 9.526887402179120556e-01
3.418203126166621253e-01 8.345970146726351402e-01
3.428608615133275084e-01 8.970317262865634689e-01
3.439014104099928915e-01 6.817903734339907373e-01
3.449419593066582745e-01 8.093486136942580345e-01
3.459825082033236576e-01 9.199302523634997897e-01
3.470230570999890407e-01 9.678545589823457362e-01
3.480636059966544238e-01 1.086384437003385273e+00
3.491041548933198069e-01 1.090277393463527034e+00
3.501447037899851900e-01 1.021008678284108129e+00
3.511852526866505730e-01 9.813589634552073449e-01
3.522258015833159561e-01 8.522493689352366175e-01
3.532663504799813392e-01 1.015363299997869007e+00
3.543068993766467223e-01 1.031700031302726472e+00
3.553474482733121054e-01 1.131431410018958417e+00
3.563879971699774885e-01 1.152588606154932194e+00
3.574285460666428715e-01 9.836316358096865997e-01
3.584690949633082546e-01 1.018791964818337448e+00
3.595096438599736377e-01 9.054486310102767277e-01
3.605501927566390208e-01 1.125435827349328122e+00
3.615907416533044039e-01 1.057283619117256990e+00
3.626312905499697870e-01 8.526093508048298020e-01
3.636718394466351700e-01 7.345721485400709128e-01
3.647123883433005531e-01 7.558852177648383019e-01
3.657529372399659362e-01 8.988099503462727569e-01
3.667934861366313193e-01 9.878450738831503486e-01
3.678340350332967024e-01 9.472791964259528186e-01
3.688745839299620854e-01 1.064893769585456340e+00
3.699151328266274685e-01 9.962680232959932880e-01
3.709556817232928516e-01 9.208368265580908485e-01
3.719962306199582347e-01 9.424596518559695824e-01
3.730367795166236178e-01 9.727122416336300148e-01
3.740773284132890009e-01 1.004085799986153660e+00
3.751178773099543839e-01 9.444414338859701274e-01
3.761584262066197670e-01 9.701807152537043066e-01
3.771989751032851501e-01 9.744048918936982773e-01
3.782395239999505332e-01 1.053839005696989517e+00
3.792800728966159163e-01 9.192916764035494737e-01
3.803206217932812994e-01 7.115170711900162814e-01
3.813611706899466824e-01 6.771466616987318332e-01
3.824017195866120655e-01 7.537228823362589480e-01
3.834422684832774486e-01 8.270169717827968725e-01
3.844828173799428317e-01 8.684253547083251590e-01
3.855233662766082148e-01 7.889849173143232974e-01
3.865639151732735979e-01 7.930312684426432668e-01
3.876044640699389809e-01 6.875519713674229649e-01
3.886450129666043640e-01 8.126978945607419291e-01
3.896855618632697471e-01 7.190004286930147259e-01
3.907261107599351302e-01 7.005159408199403970e-01
3.917666596566005133e-01 6.885607476476529598e-01
3.928072085532658964e-01 7.372124345905994858e-01
3.938477574499312794e-01 6.336570661924376680e-01
3.948883063465966625e-01 3.742203331718414461e-01
3.959288552432620456e-01 6.438714285175457519e-01
3.969694041399274287e-01 6.409303261860515022e-01
3.980099530365928118e-01 7.368197841949069016e-01
3.990505019332581949e-01 5.907210074381268328e-01
4.000910508299235779e-01 4.366499262922260982e-01
4.011315997265889610e-01 5.567405008472618988e-01
4.021721486232543441e-01 5.009761686942617587e-01
4.032126975199197272e-01 5.240345848055483202e-01
4.042532464165851103e-01 6.586151775492687932e-01
4.052937953132504934e-01 7.042775122491811146e-01
4.063343442099158764e-01 6.485261563940305507e-01
4.073748931065812595e-01 0.000000000000000000e+00
4.084154420032466426e-01 1.380689881966539190e-01
4.094559908999120257e-01 6.952041471586980492e-01
4.104965397965774088e-01 6.188586510825722087e-01
4.115370886932427918e-01 5.732923685930835234e-01
4.125776375899081749e-01 5.623487658669716893e-01
4.136181864865735580e-01 5.622909535826252636e-01
4.146587353832389411e-01 6.087888620815107288e-01
4.156992842799043242e-01 5.525121928687433126e-01
4.167398331765697073e-01 6.183587260181084844e-01
4.177803820732350903e-01 5.729680426046961372e-01
4.188209309699004734e-01 5.297794366305161873e-01
4.198614798665658565e-01 3.747202265647366914e-01
4.209020287632312396e-01 5.326036648407637131e-01
4.219425776598966227e-01 5.910409178912807704e-01
4.229831265565620058e-01 6.593115682117201004e-01
4.240236754532273888e-01 6.419044992313125420e-01
4.250642243498927719e-01 6.140920570640950871e-01
4.261047732465581550e-01 7.842811014753721111e-01
4.271453221432235381e-01 7.370473932860974742e-01
4.281858710398889212e-01 5.743878311129435588e-01
4.292264199365543043e-01 5.313621622007254075e-01
4.302669688332196873e-01 5.375704313077527274e-01
4.313075177298850704e-01 4.599113943011410299e-01
4.323480666265504535e-01 4.388460538544833867e-01
4.333886155232158366e-01 5.722941341811278448e-01
4.344291644198812197e-01 5.085551813680986299e-01
