# q (1/Angstrom), Intensity (arb)
2.029070354705860696e-02 1.287062684920253787e+03
2.133125244372399004e-02 1.286790736344492643e+03
2.237180134038937659e-02 1.280612693828913280e+03
2.341235023705475968e-02 1.273864493365687395e+03
2.445289913372014276e-02 1.265290071191336892e+03
2.549344803038552584e-02 1.249005012216914110e+03
2.653399692705091240e-02 1.239379158865417367e+03
2.757454582371629548e-02 1.224632907540597898e+03
2.861509472038167856e-02 1.210527212628649977e+03
2.965564361704706164e-02 1.198660487361569722e+03
3.069619251371244473e-02 1.183042773470535849e+03
3.173674141037782781e-02 1.168394777891366630e+03
3.277729030704321089e-02 1.150615075878067955e+03
3.381783920370859398e-02 1.132544528481623274e+03
3.485838810037397706e-02 1.116300534924073645e+03
3.589893699703936014e-02 1.096239647898283238e+03
3.693948589370474322e-02 1.079237216228078978e+03
3.798003479037012631e-02 1.058561958940411387e+03
3.902058368703550939e-02 1.039047510239173334e+03
4.006113258370089247e-02 1.015589130337154643e+03
4.110168148036627556e-02 1.000595175152040611e+03
4.214223037703165864e-02 9.804822184454128546e+02
4.318277927369704866e-02 9.590820429885274052e+02
4.422332817036243174e-02 9.394272623753918197e+02
4.526387706702781483e-02 9.186134895759989831e+02
4.630442596369319791e-02 8.975365158267755987e+02
4.734497486035858099e-02 8.760688027840237737e+02
4.838552375702396408e-02 8.546900879547885097e+02
4.942607265368934716e-02 8.335539697742624412e+02
5.046662155035473024e-02 8.126551649909071102e+02
5.150717044702011332e-02 7.926004608346914893e+02
5.254771934368549641e-02 7.686714127804802956e+02
5.358826824035087949e-02 7.479725181654645212e+02
5.462881713701626257e-02 7.284750269785212140e+02
5.566936603368164566e-02 7.080356202539811648e+02
5.670991493034702874e-02 6.874302582763676810e+02
5.775046382701241182e-02 6.662438020338730666e+02
5.879101272367779490e-02 6.457421400008812498e+02
5.983156162034317799e-02 6.221140772886669765e+02
6.087211051700856107e-02 6.015982994965822854e+02
6.191265941367394415e-02 5.832240380414713172e+02
6.295320831033933417e-02 5.655647188671209733e+02
6.399375720700471726e-02 5.448880962169653230e+02
6.503430610367010034e-02 5.255022973424379416e+02
6.607485500033548342e-02 5.058948063824378778e+02
6.711540389700086651e-02 4.887813682268472917e+02
6.815595279366624959e-02 4.685121096803943601e+02
6.919650169033163267e-02 4.510225750682575381e+02
7.023705058699701576e-02 4.339416035128963358e+02
7.127759948366239884e-02 4.154711212982629149e+02
7.231814838032778192e-02 3.996731261680374132e+02
7.335869727699316500e-02 3.835770020701005478e+02
7.439924617365854809e-02 3.655488266619953492e+02
7.543979507032393117e-02 3.484548563071563763e+02
7.648034396698931425e-02 3.334273330875402053e+02
7.752089286365469734e-02 3.182205429898275497e+02
7.856144176032008042e-02 3.022124331668027821e+02
7.960199065698546350e-02 2.888838048070347782e+02
8.064253955365084658e-02 2.753496345847224802e+02
8.168308845031622967e-02 2.607375083633863255e+02
8.272363734698161275e-02 2.481557099882138857e+02
8.376418624364699583e-02 2.357618968350864463e+02
8.480473514031239279e-02 2.244107034447766011e+02
8.584528403697777588e-02 2.116905772307854932e+02
8.688583293364315896e-02 2.002263796782855536e+02
8.792638183030854204e-02 1.885052521660062723e+02
8.896693072697392513e-02 1.769202734547291982e+02
9.000747962363930821e-02 1.663529065935760229e+02
9.104802852030469129e-02 1.553288922845640059e+02
9.208857741697007437e-02 1.462222284103276024e+02
9.312912631363545746e-02 1.371777098127619183e+02
9.416967521030084054e-02 1.278121638133573867e+02
9.521022410696622362e-02 1.195037391558200284e+02
9.625077300363160671e-02 1.117515726148698150e+02
9.729132190029698979e-02 1.041822727167911751e+02
9.833187079696237287e-02 9.645738550917388920e+01
9.937241969362775595e-02 8.898506180384327990e+01
1.004129685902931390e-01 8.193714350822646963e+01
1.014535174869585221e-01 7.528773184375347682e+01
1.024940663836239052e-01 6.928296344194276912e+01
1.035346152802892883e-01 6.361271725363948804e+01
1.045751641769546714e-01 5.900596685169039546e+01
1.056157130736200545e-01 5.358325269626600118e+01
1.066562619702854375e-01 4.868743828718550049e+01
1.076968108669508206e-01 4.464078165653939578e+01
1.087373597636162037e-01 3.968724092312746166e+01
1.097779086602815868e-01 3.664565222961741142e+01
1.108184575569469699e-01 3.312757930510304050e+01
1.118590064536123529e-01 2.998126507891885240e+01
1.128995553502777360e-01 2.650622306450377863e+01
1.139401042469431191e-01 2.344956843325417140e+01
1.149806531436085022e-01 2.088660155675413677e+01
1.160212020402738853e-01 1.862025042337539915e+01
1.170617509369392684e-01 1.614655161923757021e+01
1.181022998336046514e-01 1.418896977231544554e+01
1.191428487302700345e-01 1.268466264143200917e+01
1.201833976269354176e-01 1.076962595506326537e+01
1.212239465236008007e-01 9.200699049611817060e+00
1.222644954202661838e-01 8.025901134292446670e+00
1.233050443169315669e-01 6.683156646807116630e+00
1.243455932135969499e-01 5.608682090529963915e+00
1.253861421102623330e-01 4.594370264798818937e+00
1.264266910069277161e-01 4.022189482286496087e+00
1.274672399035930992e-01 3.651530180569142914e+00
1.285077888002584823e-01 3.192335695570641008e+00
1.295483376969238654e-01 2.755390580752298035e+00
1.305888865935892484e-01 2.641893786268504130e+00
1.316294354902546315e-01 2.400600391308124415e+00
1.326699843869200146e-01 2.204948000225190441e+00
1.337105332835853977e-01 2.114417386898018947e+00
1.347510821802507808e-01 2.081445986258085412e+00
1.357916310769161639e-01 2.131617416600722237e+00
1.368321799735815469e-01 2.406891368863572467e+00
1.378727288702469300e-01 2.599232830461115640e+00
1.389132777669123131e-01 2.944756055511181358e+00
1.399538266635776962e-01 3.298711240660257005e+00
1.409943755602430793e-01 3.863464622896206180e+00
1.420349244569084624e-01 3.950797383423278575e+00
1.430754733535738454e-01 4.009820556008712344e+00
1.441160222502392285e-01 4.330317445997280856e+00
1.451565711469046116e-01 4.970178006319613928e+00
1.461971200435699947e-01 5.547230732874247394e+00
1.472376689402353778e-01 5.628454700027120339e+00
1.482782178369007609e-01 6.178944399921732611e+00
1.493187667335661439e-01 6.807903284150910395e+00
1.503593156302315270e-01 7.291231075393408645e+00
1.513998645268969101e-01 7.622057521690667414e+00
1.524404134235622932e-01 7.674668717725456446e+00
1.534809623202276763e-01 8.305683398897372172e+00
1.545215112168930593e-01 8.505646818752474303e+00
1.555620601135584424e-01 8.790228242147900772e+00
1.566026090102238255e-01 8.823042023769833264e+00
1.576431579068892086e-01 9.387404235442730283e+00
1.586837068035545917e-01 9.873365089398614458e+00
1.597242557002199748e-01 9.871294974335128813e+00
1.607648045968853578e-01 9.873562156824899461e+00
1.618053534935507409e-01 9.955011595262650559e+00
1.628459023902161240e-01 1.047383142500502373e+01
1.638864512868815071e-01 1.049530437858466669e+01
1.649270001835468902e-01 1.060536062436515081e+01
1.659675490802122733e-01 1.084361159506332939e+01
1.670080979768776563e-01 1.092427355840020553e+01
1.680486468735430672e-01 1.067633420895167262e+01
1.690891957702084503e-01 1.077040713496269930e+01
1.701297446668738333e-01 1.090431378316686306e+01
1.711702935635392164e-01 1.090895497846308260e+01
1.722108424602045995e-01 1.084113620376790266e+01
1.732513913568699826e-01 1.092102135287666087e+01
1.742919402535353657e-01 1.083875736875782536e+01
1.753324891502007488e-01 1.058734289788958804e+01
1.763730380468661318e-01 1.012041149684965902e+01
1.774135869435315149e-01 9.991766638430320313e+00
1.784541358401968980e-01 1.006994338111296727e+01
1.794946847368622811e-01 9.828772482256951548e+00
1.805352336335276642e-01 9.640517454841699418e+00
1.815757825301930473e-01 9.398196177537688101e+00
1.826163314268584303e-01 8.980403003932206474e+00
1.836568803235238134e-01 8.813353072976710223e+00
1.846974292201891965e-01 8.723161614433305289e+00
1.857379781168545796e-01 8.228946548147053619e+00
1.867785270135199627e-01 7.983504334666996272e+00
1.878190759101853458e-01 7.840541690394744023e+00
1.888596248068507288e-01 7.743928986249187574e+00
1.899001737035161119e-01 7.465352998421451503e+00
1.909407226001814950e-01 7.142372954328514822e+00
1.919812714968468781e-01 6.861871341350770592e+00
1.930218203935122612e-01 6.650847434139901537e+00
1.940623692901776443e-01 6.366019986505964567e+00
1.951029181868430273e-01 5.765787603475299505e+00
1.961434670835084104e-01 5.450444228709052652e+00
1.971840159801737935e-01 5.307680561388874452e+00
1.982245648768391766e-01 4.932839026810530214e+00
1.992651137735045597e-01 4.511964834970573435e+00
2.003056626701699428e-01 4.404611229020826357e+00
2.013462115668353813e-01 4.533288695265653701e+00
2.023867604635007644e-01 4.239743792063968897e+00
2.034273093601661475e-01 3.789908413978999135e+00
2.044678582568315306e-01 3.345502511243104493e+00
2.055084071534969137e-01 3.323228935528504735e+00
2.065489560501622968e-01 3.188211520915423591e+00
2.075895049468276798e-01 2.715146194925168288e+00
2.086300538434930629e-01 2.551708141133854468e+00
2.096706027401584460e-01 2.461396835176056896e+00
2.107111516368238291e-01 2.006642906580854202e+00
2.117517005334892122e-01 1.911804278205703866e+00
2.127922494301545953e-01 1.799070912414606482e+00
2.138327983268199783e-01 1.688172613633355468e+00
2.148733472234853614e-01 1.674605474022889950e+00
2.159138961201507445e-01 1.510062277112101725e+00
2.169544450168161276e-01 1.451022207794832042e+00
2.179949939134815107e-01 1.126048574103513999e+00
2.190355428101468938e-01 1.116873772860884628e+00
2.200760917068122768e-01 1.341554963303710934e+00
2.211166406034776599e-01 1.165560061967397587e+00
2.221571895001430430e-01 8.722815809982051860e-01
2.231977383968084261e-01 8.483323305003480641e-01
2.242382872934738092e-01 8.590300359872387048e-01
2.252788361901391923e-01 9.438117374552561500e-01
2.263193850868045753e-01 9.511828204805077291e-01
2.273599339834699584e-01 8.329213143648921402e-01
2.284004828801353415e-01 1.029150602981331986e+00
2.294410317768007246e-01 9.046242082331765744e-01
2.304815806734661077e-01 9.020735018216612389e-01
2.315221295701314908e-01 6.724153174108451481e-01
2.325626784667968738e-01 7.164218900807419743e-01
2.336032273634622569e-01 5.883418494745988880e-01
2.346437762601276400e-01 7.628546873597095157e-01
2.356843251567930231e-01 1.071987337287527708e+00
2.367248740534584062e-01 1.138256533622566735e+00
2.377654229501237892e-01 1.099780125974664458e+00
2.388059718467891723e-01 1.324775617688832341e+00
2.398465207434545554e-01 1.354154475048140682e+00
2.408870696401199385e-01 9.235612414163867356e-01
2.419276185367853216e-01 1.080100189100736685e+00
2.429681674334507047e-01 1.338531358824315731e+00
2.440087163301160877e-01 1.100664562933857837e+00
2.450492652267814708e-01 1.126190195043079711e+00
2.460898141234468539e-01 1.466152382268319343e+00
2.471303630201122370e-01 1.431988114810447854e+00
2.481709119167776201e-01 1.274717466573559221e+00
2.492114608134430032e-01 1.590041749361091661e+00
2.502520097101083585e-01 1.666797662725251428e+00
2.512925586067737416e-01 1.804066084769232248e+00
2.523331075034391247e-01 1.667347012613326740e+00
2.533736564001045077e-01 1.829340817523181784e+00
2.544142052967698908e-01 2.140950130779422977e+00
2.554547541934352739e-01 1.803687492750096766e+00
2.564953030901006570e-01 1.656740288142813711e+00
2.575358519867660401e-01 1.787413303596707692e+00
2.585764008834314231e-01 1.809797728268634387e+00
2.596169497800968062e-01 1.930728444534150157e+00
2.606574986767621893e-01 1.887930991139558756e+00
2.616980475734275724e-01 1.939944048946578903e+00
2.627385964700929555e-01 2.083214900516207280e+00
2.637791453667583386e-01 1.961777340111751755e+00
2.648196942634237216e-01 1.823100082037708347e+00
2.658602431600891047e-01 2.017369995219066681e+00
2.669007920567544878e-01 2.180836855526436580e+00
2.679413409534198709e-01 1.922950764898011755e+00
2.689818898500852540e-01 1.738589093776933936e+00
2.700224387467506371e-01 1.977837700923490871e+00
2.710629876434160201e-01 2.018018262209395175e+00
2.721035365400814032e-01 2.601135909491127052e+00
2.731440854367467863e-01 3.006246604558246105e+00
2.741846343334121694e-01 2.207183383233768836e+00
2.752251832300775525e-01 1.866142447977690466e+00
2.762657321267429356e-01 1.817390577072657720e+00
2.773062810234083186e-01 1.700737492579698085e+00
2.783468299200737017e-01 1.464717818595978827e+00
2.793873788167390848e-01 1.473226416166475872e+00
2.804279277134044679e-01 1.587785568317674034e+00
2.814684766100698510e-01 1.856005934986708183e+00
2.825090255067352341e-01 1.726534648415796624e+00
2.835495744034006171e-01 1.554404500150894819e+00
2.845901233000660002e-01 1.335999140055502465e+00
2.856306721967313833e-01 1.333433227955332256e+00
2.866712210933967664e-01 1.231207532564642548e+00
2.877117699900621495e-01 1.132850281700534367e+00
2.887523188867275326e-01 1.244551036195421290e+00
2.897928677833929156e-01 1.255928474513662962e+00
2.908334166800582987e-01 1.026775448015730063e+00
2.918739655767236818e-01 8.662536926856247987e-01
2.929145144733890649e-01 1.037394156340425866e+00
2.939550633700544480e-01 1.081045894187639078e+00
2.949956122667198311e-01 1.028798383029162267e+00
2.960361611633852141e-01 9.525433754277017329e-01
2.970767100600505972e-01 1.004201991009782802e+00
2.981172589567159803e-01 1.143396770999441259e+00
2.991578078533813634e-01 1.130724894528281510e+00
3.001983567500468020e-01 8.204375569983497485e-01
3.012389056467121851e-01 8.472731984337222855e-01
3.022794545433775681e-01 8.845884541913946464e-01
3.033200034400429512e-01 7.694665662540209894e-01
3.043605523367083343e-01 7.168833136906549441e-01
3.054011012333737174e-01 7.125176071488041885e-01
3.064416501300391005e-01 7.209247080927774221e-01
3.074821990267044836e-01 5.899926560818791188e-01
3.085227479233698666e-01 5.660631210424860171e-01
3.095632968200352497e-01 7.048245864385052073e-01
3.106038457167006328e-01 6.071973222496467315e-01
3.116443946133660159e-01 5.797074366108283527e-01
3.126849435100313990e-01 7.290907455461486109e-01
3.137254924066967821e-01 7.565298566467539843e-01
3.147660413033621651e-01 6.973054475511375472e-01
3.158065902000275482e-01 6.131324077659812133e-01
3.168471390966929313e-01 5.635480834254238403e-01
3.178876879933583144e-01 4.452199343661646935e-01
3.189282368900236975e-01 4.793614670235264441e-01
3.199687857866890806e-01 5.065158847921580332e-01
3.210093346833544636e-01 4.827162272285221434e-01
3.220498835800198467e-01 1.976382072997608930e-01
3.230904324766852298e-01 1.769199314907545784e-01
3.241309813733506129e-01 5.245171185322945462e-01
3.251715302700159960e-01 4.847285126797480359e-01
3.262120791666813790e-01 4.916949791367102307e-01
3.272526280633467621e-01 5.556409757528228965e-01
3.282931769600121452e-01 4.215347832453453236e-01
3.293337258566775283e-01 3.830140321407817794e-01
3.303742747533429114e-01 4.288672161951367912e-01
3.314148236500082945e-01 3.719052897766701449e-01
3.324553725466736775e-01 4.333880509772320977e-01
3.334959214433390606e-01 5.168997612935584129e-01
3.345364703400044437e-01 4.984371032682339830e-01
3.355770192366698268e-01 3.586857450017610915e-01
3.366175681333352099e-01 4.700827322402858499e-01
3.376581170300005930e-01 5.247421732717043596e-01
3.386986659266659760e-01 5.864045996368183467e-01
3.397392148233313591e-01 6.428861929525027108e-01
3.407797637199967422e-01 8.118952512451045322e-01
3.418203126166621253e-01 6.096447121940151703e-01
3.428608615133275084e-01 4.970160347226411091e-01
3.439014104099928915e-01 5.593071091112200577e-01
3.449419593066582745e-01 6.823540221724009314e-01
3.459825082033236576e-01 7.212837166788546028e-01
3.470230570999890407e-01 6.252056407671737759e-01
3.480636059966544238e-01 7.883796173401442786e-01
3.491041548933198069e-01 8.861900630950749758e-01
3.501447037899851900e-01 7.082652695446611801e-01
3.511852526866505730e-01 7.013687654582980713e-01
3.522258015833159561e-01 5.748687308676210250e-01
3.532663504799813392e-01 4.985519921615200190e-01
3.543068993766467223e-01 5.323806838466325075e-01
3.553474482733121054e-01 5.894030504062897080e-01
3.563879971699774885e-01 6.959597883734254253e-01
3.574285460666428715e-01 6.378239698545868919e-01
3.584690949633082546e-01 6.591636186916076667e-01
3.595096438599736377e-01 8.721709987571095724e-01
3.605501927566390208e-01 8.392096451198121088e-01
3.615907416533044039e-01 8.080928040115580302e-01
3.626312905499697870e-01 6.505493040994423382e-01
3.636718394466351700e-01 4.448230722361188327e-01
3.647123883433005531e-01 4.896560397636022799e-01
3.657529372399659362e-01 8.546655776684382033e-01
3.667934861366313193e-01 8.502334606787229632e-01
3.678340350332967024e-01 6.755696413908722775e-01
3.688745839299620854e-01 5.420513959340809151e-01
3.699151328266274685e-01 6.261226797462953186e-01
3.709556817232928516e-01 7.104195205247485490e-01
3.719962306199582347e-01 7.933055367475319031e-01
3.730367795166236178e-01 6.626233000251247063e-01
3.740773284132890009e-01 5.190794172723087740e-01
3.751178773099543839e-01 3.990903563605456839e-01
3.761584262066197670e-01 8.112996588222927130e-01
3.771989751032851501e-01 9.410063870205718217e-01
3.782395239999505332e-01 7.475081289308107557e-01
3.792800728966159163e-01 6.299158565520599495e-01
3.803206217932812994e-01 7.358686725244751869e-01
3.813611706899466824e-01 6.234708633377756826e-01
3.824017195866120655e-01 6.047410803374440036e-01
3.834422684832774486e-01 6.371137515382052641e-01
3.844828173799428317e-01 5.130393452405073162e-01
3.855233662766082148e-01 5.589801738307009771e-01
3.865639151732735979e-01 4.730692862631471485e-01
3.876044640699389809e-01 2.480544341777388695e-01
3.886450129666043640e-01 4.535857617561056543e-01
3.896855618632697471e-01 4.513466235707994656e-01
3.907261107599351302e-01 3.225966577712000571e-01
3.917666596566005133e-01 5.122124535612151419e-01
3.928072085532658964e-01 5.448395583858172131e-01
3.938477574499312794e-01 2.846220205695857430e-01
3.948883063465966625e-01 3.393525212511114830e-01
3.959288552432620456e-01 4.054256062425345419e-01
3.969694041399274287e-01 5.278441628070318359e-01
3.980099530365928118e-01 5.364464388680332263e-01
3.990505019332581949e-01 5.053777660607039479e-01
4.000910508299235779e-01 5.515207373465500496e-01
4.011315997265889610e-01 4.075715341445516060e-01
4.021721486232543441e-01 3.276687145191559125e-01
4.032126975199197272e-01 3.875161194838092626e-01
4.042532464165851103e-01 3.430056298043346885e-01
4.052937953132504934e-01 3.826623359734071528e-01
4.063343442099158764e-01 4.330494247706333510e-01
4.073748931065812595e-01 4.509367174298759551e-01
4.084154420032466426e-01 5.251040924965231227e-01
4.094559908999120257e-01 4.065825622611676238e-01
4.104965397965774088e-01 3.021626752144328520e-01
4.115370886932427918e-01 1.718396511091881962e-01
4.125776375899081749e-01 3.510959345577866486e-01
4.136181864865735580e-01 5.061478102100984700e-01
4.146587353832389411e-01 3.915252396772537224e-01
4.156992842799043242e-01 3.906099110721967804e-01
4.167398331765697073e-01 3.007524316477834248e-01
4.177803820732350903e-01 2.641509685631753257e-01
4.188209309699004734e-01 2.997457168915715897e-01
4.198614798665658565e-01 2.717602436273871547e-01
4.209020287632312396e-01 2.865939017295779934e-01
4.219425776598966227e-01 1.058234516836655814e-01
4.229831265565620058e-01 7.604067260342972645e-02
4.240236754532273888e-01 1.899368592447778781e-01
4.250642243498927719e-01 2.679075751184427645e-01
4.261047732465581550e-01 3.023997383438832287e-01
4.271453221432235381e-01 3.859048617055407249e-01
4.281858710398889212e-01 2.089113272995497539e-01
4.292264199365543043e-01 2.344481505478483996e-01
4.302669688332196873e-01 3.485699940378097494e-01
4.313075177298850704e-01 2.528860070353786682e-01
4.323480666265504535e-01 3.184286303241243843e-01
4.333886155232158366e-01 3.854289096377954138e-01
4.344291644198812197e-01 3.878794043303130934e-01
