# q (1/Angstrom), Intensity (arb)
2.029070354705860696e-02 1.328207108180655268e+03
2.133125244372399004e-02 1.323708005012580770e+03
2.237180134038937659e-02 1.325868684235570299e+03
2.341235023705475968e-02 1.320520958693428838e+03
2.445289913372014276e-02 1.307969393977334676e+03
2.549344803038552584e-02 1.293258642691895830e+03
2.653399692705091240e-02 1.278329629564823335e+03
2.757454582371629548e-02 1.268251001690773592e+03
2.861509472038167856e-02 1.255017557939297831e+03
2.965564361704706164e-02 1.239599807545248950e+03
3.069619251371244473e-02 1.222621427346866994e+03
3.173674141037782781e-02 1.205793886749684361e+03
3.277729030704321089e-02 1.190412195550745309e+03
3.381783920370859398e-02 1.172786818734984763e+03
3.485838810037397706e-02 1.153689836564981988e+03
3.589893699703936014e-02 1.136243819031745943e+03
3.693948589370474322e-02 1.115022768099006953e+03
3.798003479037012631e-02 1.095724801305498886e+03
3.902058368703550939e-02 1.075461816088186424e+03
4.006113258370089247e-02 1.057123779461014237e+03
4.110168148036627556e-02 1.038820413885032167e+03
4.214223037703165864e-02 1.016636892487714249e+03
4.318277927369704866e-02 9.916938099806990294e+02
4.422332817036243174e-02 9.702303159571742981e+02
4.526387706702781483e-02 9.507475527736107779e+02
4.630442596369319791e-02 9.265623387131228128e+02
4.734497486035858099e-02 9.042740658256393544e+02
4.838552375702396408e-02 8.852372798282252688e+02
4.942607265368934716e-02 8.614058881627115625e+02
5.046662155035473024e-02 8.372152384231325186e+02
5.150717044702011332e-02 8.166696414584075683e+02
5.254771934368549641e-02 7.967183503436099272e+02
5.358826824035087949e-02 7.758957765615922426e+02
5.462881713701626257e-02 7.547681644976394182e+02
5.566936603368164566e-02 7.325442292259360784e+02
5.670991493034702874e-02 7.109233290181742859e+02
5.775046382701241182e-02 6.895967005160098324e+02
5.879101272367779490e-02 6.667697827663106409e+02
5.983156162034317799e-02 6.433733425673375450e+02
6.087211051700856107e-02 6.235259887927996942e+02
6.191265941367394415e-02 6.027187808267982518e+02
6.295320831033933417e-02 5.821314529618834968e+02
6.399375720700471726e-02 5.634329072803150211e+02
6.503430610367010034e-02 5.429057478229269691e+02
6.607485500033548342e-02 5.245911699283791449e+02
6.711540389700086651e-02 5.063702441472385090e+02
6.815595279366624959e-02 4.870093780817438756e+02
6.919650169033163267e-02 4.679562458182152227e+02
7.023705058699701576e-02 4.485213291635612904e+02
7.127759948366239884e-02 4.313932684781257194e+02
7.231814838032778192e-02 4.133860384281607594e+02
7.335869727699316500e-02 3.948754624799204862e+02
7.439924617365854809e-02 3.784943658187698361e+02
7.543979507032393117e-02 3.608767887731662540e+02
7.648034396698931425e-02 3.452905134686565134e+02
7.752089286365469734e-02 3.297260335497462620e+02
7.856144176032008042e-02 3.137978962955070301e+02
7.960199065698546350e-02 2.998833359301659129e+02
8.064253955365084658e-02 2.861057478338485112e+02
8.168308845031622967e-02 2.716115116975241222e+02
8.272363734698161275e-02 2.568383845235773038e+02
8.376418624364699583e-02 2.438773074948734347e+02
8.480473514031239279e-02 2.311238912920706525e+02
8.584528403697777588e-02 2.177793015922827635e+02
8.688583293364315896e-02 2.065705471612315876e+02
8.792638183030854204e-02 1.955179650290887992e+02
8.896693072697392513e-02 1.845989429004189333e+02
9.000747962363930821e-02 1.732937733579370843e+02
9.104802852030469129e-02 1.628664270570250778e+02
9.208857741697007437e-02 1.520212671905286186e+02
9.312912631363545746e-02 1.419681161924545449e+02
9.416967521030084054e-02 1.334566272811181022e+02
9.521022410696622362e-02 1.246933871211548563e+02
9.625077300363160671e-02 1.161242802038838562e+02
9.729132190029698979e-02 1.079618690617450483e+02
9.833187079696237287e-02 9.999995201039621406e+01
9.937241969362775595e-02 9.245192283159330771e+01
1.004129685902931390e-01 8.538045942030559843e+01
1.014535174869585221e-01 7.978554059027472078e+01
1.024940663836239052e-01 7.413889371264599504e+01
1.035346152802892883e-01 6.769256055283307205e+01
1.045751641769546714e-01 6.167260536357751732e+01
1.056157130736200545e-01 5.608871105153974668e+01
1.066562619702854375e-01 5.087476686271903503e+01
1.076968108669508206e-01 4.645768440555640666e+01
1.087373597636162037e-01 4.147957600979553661e+01
1.097779086602815868e-01 3.729482913477767170e+01
1.108184575569469699e-01 3.398589255162366385e+01
1.118590064536123529e-01 3.071522695976308626e+01
1.128995553502777360e-01 2.731263803528614886e+01
1.139401042469431191e-01 2.432713612651321711e+01
1.149806531436085022e-01 2.169410688522084030e+01
1.160212020402738853e-01 1.912787847951518216e+01
1.170617509369392684e-01 1.709275614046928737e+01
1.181022998336046514e-01 1.496109528466962857e+01
1.191428487302700345e-01 1.326263010293419953e+01
1.201833976269354176e-01 1.161457747382665318e+01
1.212239465236008007e-01 9.417427834195017056e+00
1.222644954202661838e-01 7.696509605487300121e+00
1.233050443169315669e-01 6.815626301343439053e+00
1.243455932135969499e-01 5.955699512063759471e+00
1.253861421102623330e-01 5.463222043130105732e+00
1.264266910069277161e-01 4.625492434277109766e+00
1.274672399035930992e-01 4.239087236260981939e+00
1.285077888002584823e-01 3.297604564295230745e+00
1.295483376969238654e-01 3.028319900590329183e+00
1.305888865935892484e-01 2.898720469198181604e+00
1.316294354902546315e-01 2.360526869065893152e+00
1.326699843869200146e-01 2.380469720651003485e+00
1.337105332835853977e-01 2.110872097047945317e+00
1.347510821802507808e-01 2.253664540977290187e+00
1.357916310769161639e-01 2.133259865987799486e+00
1.368321799735815469e-01 2.485527527437692896e+00
1.378727288702469300e-01 2.793325399341295423e+00
1.389132777669123131e-01 3.072135644537457466e+00
1.399538266635776962e-01 3.350274706727788043e+00
1.409943755602430793e-01 3.645246295736047415e+00
1.420349244569084624e-01 4.033034423215962505e+00
1.430754733535738454e-01 4.181676490966669490e+00
1.441160222502392285e-01 4.639544775896172979e+00
1.451565711469046116e-01 5.091255664549279913e+00
1.461971200435699947e-01 5.396243123809068010e+00
1.472376689402353778e-01 5.703263509635259965e+00
1.482782178369007609e-01 6.407431014088800225e+00
1.493187667335661439e-01 6.462085515463449781e+00
1.503593156302315270e-01 6.798561840424618197e+00
1.513998645268969101e-01 7.195052439788110377e+00
1.524404134235622932e-01 7.596305359121874545e+00
1.534809623202276763e-01 8.245980679349628417e+00
1.545215112168930593e-01 8.727009046286692495e+00
1.555620601135584424e-01 9.082932429541159536e+00
1.566026090102238255e-01 8.989732781776204718e+00
1.576431579068892086e-01 9.133115989302670101e+00
1.586837068035545917e-01 9.532872458093923029e+00
1.597242557002199748e-01 9.875321631482940177e+00
1.607648045968853578e-01 9.877601927490665901e+00
1.618053534935507409e-01 1.008764349837262841e+01
1.628459023902161240e-01 1.050822953786937575e+01
1.638864512868815071e-01 1.076101243136525909e+01
1.649270001835468902e-01 1.064617187319998948e+01
1.659675490802122733e-01 1.088780580110062601e+01
1.670080979768776563e-01 1.073260145598039372e+01
1.680486468735430672e-01 1.105677371080754767e+01
1.690891957702084503e-01 1.134574178941569045e+01
1.701297446668738333e-01 1.131858019683384953e+01
1.711702935635392164e-01 1.100672900853504999e+01
1.722108424602045995e-01 1.080447302969352918e+01
1.732513913568699826e-01 1.084001275745787041e+01
1.742919402535353657e-01 1.073645998821927705e+01
1.753324891502007488e-01 1.063210513507505084e+01
1.763730380468661318e-01 1.048350382488190746e+01
1.774135869435315149e-01 1.029422119041097972e+01
1.784541358401968980e-01 1.017284511902395039e+01
1.794946847368622811e-01 9.787404744882575613e+00
1.805352336335276642e-01 9.700180167851591762e+00
1.815757825301930473e-01 9.552695432813671061e+00
1.826163314268584303e-01 9.538613337075091181e+00
1.836568803235238134e-01 8.842834621335761369e+00
1.846974292201891965e-01 8.499006845925283216e+00
1.857379781168545796e-01 8.483624721408659752e+00
1.867785270135199627e-01 8.581029262935459201e+00
1.878190759101853458e-01 8.077129126101382894e+00
1.888596248068507288e-01 7.695364467011813758e+00
1.899001737035161119e-01 7.342689673896487079e+00
1.909407226001814950e-01 7.387527732842279704e+00
1.919812714968468781e-01 6.866888257676080798e+00
1.930218203935122612e-01 6.421937166608003622e+00
1.940623692901776443e-01 6.050732981359022489e+00
1.951029181868430273e-01 5.972860301670841920e+00
1.961434670835084104e-01 5.756391499668644940e+00
1.971840159801737935e-01 5.172374536545401469e+00
1.982245648768391766e-01 4.735654829015821576e+00
1.992651137735045597e-01 4.708268446749965364e+00
2.003056626701699428e-01 4.459618226422804810e+00
2.013462115668353813e-01 3.992857800215034558e+00
2.023867604635007644e-01 4.046156250855652559e+00
2.034273093601661475e-01 3.674623387189161150e+00
2.044678582568315306e-01 3.353434547086301620e+00
2.055084071534969137e-01 3.283484083034512224e+00
2.065489560501622968e-01 3.198616452292267098e+00
2.075895049468276798e-01 2.623324441604054869e+00
2.086300538434930629e-01 2.248203380285232811e+00
2.096706027401584460e-01 2.056894011798878097e+00
2.107111516368238291e-01 2.180245359926200166e+00
2.117517005334892122e-01 2.126178920108653614e+00
2.127922494301545953e-01 1.835043023083375857e+00
2.138327983268199783e-01 1.848498276180642108e+00
2.148733472234853614e-01 1.740016206207787519e+00
2.159138961201507445e-01 1.679394155753673346e+00
2.169544450168161276e-01 1.483862720805241509e+00
2.179949939134815107e-01 1.379955905662757942e+00
2.190355428101468938e-01 1.025784061891648946e+00
2.200760917068122768e-01 1.130371704311624370e+00
2.211166406034776599e-01 9.773611423773829188e-01
2.221571895001430430e-01 7.491827086330822283e-01
2.231977383968084261e-01 1.143282050961129670e+00
2.242382872934738092e-01 1.025396280091285917e+00
2.252788361901391923e-01 8.216613615205794474e-01
2.263193850868045753e-01 8.959248598358300342e-01
2.273599339834699584e-01 7.075641374952823526e-01
2.284004828801353415e-01 4.954428704800193373e-01
2.294410317768007246e-01 5.969035612018664949e-01
2.304815806734661077e-01 5.790864893161575822e-01
2.315221295701314908e-01 8.648285859235507189e-01
2.325626784667968738e-01 8.605007701397262565e-01
2.336032273634622569e-01 6.387547860609821271e-01
2.346437762601276400e-01 5.756694811150779856e-01
2.356843251567930231e-01 8.109462671962539559e-01
2.367248740534584062e-01 1.020725738042148834e+00
2.377654229501237892e-01 8.723031958919129636e-01
2.388059718467891723e-01 7.703154649103218787e-01
2.398465207434545554e-01 7.964177786947068682e-01
2.408870696401199385e-01 1.097442720690629869e+00
2.419276185367853216e-01 1.184061191970553040e+00
2.429681674334507047e-01 1.112919593234941829e+00
2.440087163301160877e-01 1.111252704070878394e+00
2.450492652267814708e-01 1.080544100975533439e+00
2.460898141234468539e-01 1.297917869631557863e+00
2.471303630201122370e-01 1.420027714463305557e+00
2.481709119167776201e-01 1.500872987360828859e+00
2.492114608134430032e-01 1.507335153987778398e+00
2.502520097101083585e-01 1.657856969806619674e+00
2.512925586067737416e-01 1.701389409132250563e+00
2.523331075034391247e-01 1.844883425066267790e+00
2.533736564001045077e-01 1.861899733158697501e+00
2.544142052967698908e-01 1.763989003753181350e+00
2.554547541934352739e-01 1.822334292760235286e+00
2.564953030901006570e-01 1.756184246758245138e+00
2.575358519867660401e-01 2.057041247801631556e+00
2.585764008834314231e-01 2.139595070450212688e+00
2.596169497800968062e-01 2.047348483267139585e+00
2.606574986767621893e-01 2.068871481691115122e+00
2.616980475734275724e-01 1.969649929715611592e+00
2.627385964700929555e-01 1.886756137749799223e+00
2.637791453667583386e-01 1.820226152241925632e+00
2.648196942634237216e-01 1.741215503925300112e+00
2.658602431600891047e-01 1.773805451013195977e+00
2.669007920567544878e-01 1.893225064967335669e+00
2.679413409534198709e-01 1.651037882961926329e+00
2.689818898500852540e-01 1.635981941262055983e+00
2.700224387467506371e-01 1.957847544046362742e+00
2.710629876434160201e-01 1.975136737004355325e+00
2.721035365400814032e-01 1.834455027457202902e+00
2.731440854367467863e-01 1.793456922068461523e+00
2.741846343334121694e-01 1.644190440654234919e+00
2.752251832300775525e-01 1.807214214481486891e+00
2.762657321267429356e-01 1.808876162533987753e+00
2.773062810234083186e-01 1.740004469240805207e+00
2.783468299200737017e-01 1.622900218305201037e+00
2.793873788167390848e-01 1.549036539576473359e+00
2.804279277134044679e-01 1.514121303852682843e+00
2.814684766100698510e-01 1.675816766762803667e+00
2.825090255067352341e-01 1.650861343328070774e+00
2.835495744034006171e-01 1.640021064054749900e+00
2.845901233000660002e-01 1.466191386508899797e+00
2.856306721967313833e-01 1.547970579993922513e+00
2.866712210933967664e-01 1.689442594861269242e+00
2.877117699900621495e-01 1.328960770412013659e+00
2.887523188867275326e-01 1.148911694606702838e+00
2.897928677833929156e-01 1.013763922687719088e+00
2.908334166800582987e-01 1.015257368563926121e+00
2.918739655767236818e-01 1.082097266914814782e+00
2.929145144733890649e-01 1.074006756437107413e+00
2.939550633700544480e-01 1.011975524993765418e+00
2.949956122667198311e-01 9.185898608417026878e-01
2.960361611633852141e-01 9.682132724242897837e-01
2.970767100600505972e-01 9.998503572375447845e-01
2.981172589567159803e-01 1.030965076079120024e+00
2.991578078533813634e-01 1.135132377358740285e+00
3.001983567500468020e-01 1.063675608951133000e+00
3.012389056467121851e-01 8.456296168434640492e-01
3.022794545433775681e-01 6.606830898685736031e-01
3.033200034400429512e-01 5.137857971169879079e-01
3.043605523367083343e-01 2.780833013466228465e-01
3.054011012333737174e-01 5.466765873783892005e-01
3.064416501300391005e-01 7.026413504429278589e-01
3.074821990267044836e-01 6.355702826405646988e-01
3.085227479233698666e-01 6.312670737858177006e-01
3.095632968200352497e-01 6.704342462687797877e-01
3.106038457167006328e-01 6.162576570265549947e-01
3.116443946133660159e-01 6.545963494962698803e-01
3.126849435100313990e-01 4.751838716134813012e-01
3.137254924066967821e-01 4.840731012369623443e-01
3.147660413033621651e-01 5.674010903130444206e-01
3.158065902000275482e-01 4.051062767009838694e-01
3.168471390966929313e-01 4.992782700030353737e-01
3.178876879933583144e-01 4.138078276589602922e-01
3.189282368900236975e-01 4.842833244027708872e-01
3.199687857866890806e-01 3.843841830303915685e-01
3.210093346833544636e-01 4.514029705138753457e-01
3.220498835800198467e-01 5.222375706126207717e-01
3.230904324766852298e-01 5.255985057962924145e-01
3.241309813733506129e-01 4.124992069710557985e-01
3.251715302700159960e-01 4.631674456316261512e-01
3.262120791666813790e-01 5.614721372165796254e-01
3.272526280633467621e-01 3.284045582289571996e-01
3.282931769600121452e-01 3.510122972905698191e-01
3.293337258566775283e-01 6.785209302455292857e-01
3.303742747533429114e-01 6.992116454728147801e-01
3.314148236500082945e-01 6.037415561610757209e-01
3.324553725466736775e-01 4.154919069049789471e-01
3.334959214433390606e-01 2.649156314297052006e-01
3.345364703400044437e-01 5.015851781729345760e-01
3.355770192366698268e-01 3.480269191971103737e-01
3.366175681333352099e-01 6.123157484000891770e-01
3.376581170300005930e-01 5.874045216930454671e-01
3.386986659266659760e-01 5.149353371525826617e-01
3.397392148233313591e-01 4.485299076658471051e-01
3.407797637199967422e-01 7.216490954933298951e-01
3.418203126166621253e-01 8.674449905272929584e-01
3.428608615133275084e-01 6.931747660386200494e-01
3.439014104099928915e-01 5.385663758522767353e-01
3.449419593066582745e-01 5.600115679150299286e-01
3.459825082033236576e-01 5.115203306278246487e-01
3.470230570999890407e-01 5.405081131857834009e-01
3.480636059966544238e-01 5.451424543881095985e-01
3.491041548933198069e-01 7.156166260620153707e-01
3.501447037899851900e-01 6.422549862221771377e-01
3.511852526866505730e-01 8.104724739986366444e-01
3.522258015833159561e-01 7.689038002650434578e-01
3.532663504799813392e-01 7.148505882938707146e-01
3.543068993766467223e-01 5.517185541157481055e-01
3.553474482733121054e-01 5.831610780452720633e-01
3.563879971699774885e-01 6.677783555139278349e-01
3.574285460666428715e-01 6.213222383264458415e-01
3.584690949633082546e-01 4.705274243004815560e-01
3.595096438599736377e-01 5.664647293227140779e-01
3.605501927566390208e-01 6.530578724288176318e-01
3.615907416533044039e-01 7.473793741505971866e-01
3.626312905499697870e-01 6.976035305853542923e-01
3.636718394466351700e-01 5.261785190923262689e-01
3.647123883433005531e-01 6.721320946440059174e-01
3.657529372399659362e-01 5.705306374288632298e-01
3.667934861366313193e-01 6.037779014803703603e-01
3.678340350332967024e-01 6.561746138813226992e-01
3.688745839299620854e-01 6.289982561188764976e-01
3.699151328266274685e-01 5.174429745230675337e-01
3.709556817232928516e-01 6.525588809058255890e-01
3.719962306199582347e-01 5.395566075966620190e-01
3.730367795166236178e-01 6.019642990577978026e-01
3.740773284132890009e-01 5.853891044201162686e-01
3.751178773099543839e-01 5.829965826008134400e-01
3.761584262066197670e-01 4.508407785492209996e-01
3.771989751032851501e-01 2.234042338962041185e-01
3.782395239999505332e-01 5.043629863955345627e-01
3.792800728966159163e-01 5.754773054440818214e-01
3.803206217932812994e-01 4.841148009876654612e-01
3.813611706899466824e-01 5.694648867690439431e-01
3.824017195866120655e-01 5.633895546309091173e-01
3.834422684832774486e-01 5.961913240759351140e-01
3.844828173799428317e-01 4.531351153852050118e-01
3.855233662766082148e-01 3.973773851407891300e-01
3.865639151732735979e-01 5.508814851200583007e-01
3.876044640699389809e-01 5.542264606469657906e-01
3.886450129666043640e-01 4.999875628469006017e-01
3.896855618632697471e-01 5.632548422171801406e-01
3.907261107599351302e-01 4.775833170866690125e-01
3.917666596566005133e-01 5.162661731013571398e-01
3.928072085532658964e-01 3.657528421104352390e-01
3.938477574499312794e-01 3.620687241723565819e-01
3.948883063465966625e-01 4.713031327889147803e-01
3.959288552432620456e-01 2.804316333924923299e-01
3.969694041399274287e-01 2.967231159854506473e-01
3.980099530365928118e-01 2.141475388456477447e-01
3.990505019332581949e-01 3.420788129942415878e-01
4.000910508299235779e-01 3.836759911053704286e-01
4.011315997265889610e-01 4.121100119893590374e-01
4.021721486232543441e-01 2.727893171822621809e-01
4.032126975199197272e-01 2.504321586492537222e-01
4.042532464165851103e-01 3.054494607207729473e-01
4.052937953132504934e-01 2.321044265339047286e-01
4.063343442099158764e-01 1.053687085048800043e-01
4.073748931065812595e-01 1.685747854668662171e-01
4.084154420032466426e-01 2.130807400597802825e-01
4.094559908999120257e-01 2.464023455719051015e-01
4.104965397965774088e-01 2.703648494258388268e-01
4.115370886932427918e-01 1.792174699263924254e-01
4.125776375899081749e-01 3.492863394496410478e-01
4.136181864865735580e-01 3.292389037551863851e-01
4.146587353832389411e-01 1.113039915608702302e-01
4.156992842799043242e-01 2.892311931062359065e-01
4.167398331765697073e-01 3.085934208963578840e-01
4.177803820732350903e-01 1.478840223876218829e-01
4.188209309699004734e-01 1.808974690565996468e-01
4.198614798665658565e-01 2.593587073652656727e-01
4.209020287632312396e-01 3.681134977563225164e-01
4.219425776598966227e-01 3.388866942732171594e-01
4.229831265565620058e-01 2.885577849922071891e-01
4.240236754532273888e-01 3.553631733411926064e-01
4.250642243498927719e-01 3.838768477884357821e-01
4.261047732465581550e-01 1.783073906941048392e-01
4.271453221432235381e-01 2.184313691408625857e-01
4.281858710398889212e-01 3.819975665380326291e-01
4.292264199365543043e-01 3.882874213314906342e-01
4.302669688332196873e-01 3.982561523464305253e-01
4.313075177298850704e-01 3.035464670391547770e-01
4.323480666265504535e-01 2.606060627693267406e-01
4.333886155232158366e-01 3.491215832480527581e-01
4.344291644198812197e-01 4.659423561889077803e-01
