# q (1/Angstrom), Intensity (arb)
2.029070354705860696e-02 1.278952214572708726e+03
2.133125244372399004e-02 1.273040606719358266e+03
2.237180134038937659e-02 1.271647393928303472e+03
2.341235023705475968e-02 1.264918028565581153e+03
2.445289913372014276e-02 1.250197179022690079e+03
2.549344803038552584e-02 1.241732349121343304e+03
2.653399692705091240e-02 1.230676611107392773e+03
2.757454582371629548e-02 1.217950543846098299e+03
2.861509472038167856e-02 1.204556624921943239e+03
2.965564361704706164e-02 1.196001778774702871e+03
3.069619251371244473e-02 1.180146634677171278e+03
3.173674141037782781e-02 1.161011250391924477e+03
3.277729030704321089e-02 1.145790431100480191e+03
3.381783920370859398e-02 1.129232288191837824e+03
3.485838810037397706e-02 1.110901698278581534e+03
3.589893699703936014e-02 1.093877691199386391e+03
3.693948589370474322e-02 1.077089506819005692e+03
3.798003479037012631e-02 1.053152415550729984e+03
3.902058368703550939e-02 1.034405255194705205e+03
4.006113258370089247e-02 1.014711646944776930e+03
4.110168148036627556e-02 9.942468574468050519e+02
4.214223037703165864e-02 9.765863162203251022e+02
4.318277927369704866e-02 9.559026636706475983e+02
4.422332817036243174e-02 9.313038734693024026e+02
4.526387706702781483e-02 9.120830949395826792e+02
4.630442596369319791e-02 8.928090075565647794e+02
4.734497486035858099e-02 8.697938412656609444e+02
4.838552375702396408e-02 8.512726439838540955e+02
4.942607265368934716e-02 8.316773671028144008e+02
5.046662155035473024e-02 8.068211778928371132e+02
5.150717044702011332e-02 7.843469142248316075e+02
5.254771934368549641e-02 7.644136832567521651e+02
5.358826824035087949e-02 7.438982396126519916e+02
5.462881713701626257e-02 7.241544053999701873e+02
5.566936603368164566e-02 7.023650799058741541e+02
5.670991493034702874e-02 6.837965660183907630e+02
5.775046382701241182e-02 6.612467233675073430e+02
5.879101272367779490e-02 6.429476769488051104e+02
5.983156162034317799e-02 6.232747283220228383e+02
6.087211051700856107e-02 6.010819918925346883e+02
6.191265941367394415e-02 5.814016875934978543e+02
6.295320831033933417e-02 5.617460884019230889e+02
6.399375720700471726e-02 5.417675152971864918e+02
6.503430610367010034e-02 5.241653988780751661e+02
6.607485500033548342e-02 5.034516976607172296e+02
6.711540389700086651e-02 4.851192881562596995e+02
6.815595279366624959e-02 4.660331628420887569e+02
6.919650169033163267e-02 4.501173346407723557e+02
7.023705058699701576e-02 4.321541740977513655e+02
7.127759948366239884e-02 4.138773246368671153e+02
7.231814838032778192e-02 3.962978764133221716e+02
7.335869727699316500e-02 3.795565348078873740e+02
7.439924617365854809e-02 3.654410481449898498e+02
7.543979507032393117e-02 3.476015571849240473e+02
7.648034396698931425e-02 3.323497069338227448e+02
7.752089286365469734e-02 3.150983078849451431e+02
7.856144176032008042e-02 3.000014078797199204e+02
7.960199065698546350e-02 2.882969677252197584e+02
8.064253955365084658e-02 2.743446539026037385e+02
8.168308845031622967e-02 2.613503724112898681e+02
8.272363734698161275e-02 2.463753625420481512e+02
8.376418624364699583e-02 2.336024079789084169e+02
8.480473514031239279e-02 2.213037971265093518e+02
8.584528403697777588e-02 2.091081928810347961e+02
8.688583293364315896e-02 1.975710553037867783e+02
8.792638183030854204e-02 1.867690733072174964e+02
8.896693072697392513e-02 1.758613757879067521e+02
9.000747962363930821e-02 1.647377543970723934e+02
9.104802852030469129e-02 1.557153616808733432e+02
9.208857741697007437e-02 1.460753957883141538e+02
9.312912631363545746e-02 1.374110336835907162e+02
9.416967521030084054e-02 1.270765011606600865e+02
9.521022410696622362e-02 1.178875058230209731e+02
9.625077300363160671e-02 1.092418323097316346e+02
9.729132190029698979e-02 1.029602044791149353e+02
9.833187079696237287e-02 9.580268829679178566e+01
9.937241969362775595e-02 8.819466968118044292e+01
1.004129685902931390e-01 8.182468435443780663e+01
1.014535174869585221e-01 7.556942730491789462e+01
1.024940663836239052e-01 6.996958389048167248e+01
1.035346152802892883e-01 6.379854918562058685e+01
1.045751641769546714e-01 5.848939536690886598e+01
1.056157130736200545e-01 5.318286835580069294e+01
1.066562619702854375e-01 4.902207529941635755e+01
1.076968108669508206e-01 4.481252903640926633e+01
1.087373597636162037e-01 4.032676324713206384e+01
1.097779086602815868e-01 3.676356453558373971e+01
1.108184575569469699e-01 3.309790275199745224e+01
1.118590064536123529e-01 2.980643284195781462e+01
1.128995553502777360e-01 2.618448776308438042e+01
1.139401042469431191e-01 2.323298924055431414e+01
1.149806531436085022e-01 2.122136987304218536e+01
1.160212020402738853e-01 1.878309168663756168e+01
1.170617509369392684e-01 1.640468341866655422e+01
1.181022998336046514e-01 1.447552561260607362e+01
1.191428487302700345e-01 1.237690680991554970e+01
1.201833976269354176e-01 1.045488149930821464e+01
1.212239465236008007e-01 9.148120269215777256e+00
1.222644954202661838e-01 8.013792421581285907e+00
1.233050443169315669e-01 7.086592643608955910e+00
1.243455932135969499e-01 6.159493376704880063e+00
1.253861421102623330e-01 5.147979178698530944e+00
1.264266910069277161e-01 4.408762100785018845e+00
1.274672399035930992e-01 3.503553017905954192e+00
1.285077888002584823e-01 3.486462539947769557e+00
1.295483376969238654e-01 3.357078166351687543e+00
1.305888865935892484e-01 2.758937784151495265e+00
1.316294354902546315e-01 2.300676641156236713e+00
1.326699843869200146e-01 2.256208869627197799e+00
1.337105332835853977e-01 2.567798329061805163e+00
1.347510821802507808e-01 2.543936759152302329e+00
1.357916310769161639e-01 2.596337110121627489e+00
1.368321799735815469e-01 2.840413787588421002e+00
1.378727288702469300e-01 3.072714643180741945e+00
1.389132777669123131e-01 3.061406743683907195e+00
1.399538266635776962e-01 3.585443611465709779e+00
1.409943755602430793e-01 3.995722826163373043e+00
1.420349244569084624e-01 4.348714689406921963e+00
1.430754733535738454e-01 4.501849808403413533e+00
1.441160222502392285e-01 4.940923120054996787e+00
1.451565711469046116e-01 5.307207264496199173e+00
1.461971200435699947e-01 5.535958263614318753e+00
1.472376689402353778e-01 5.886545883618417463e+00
1.482782178369007609e-01 6.438657075233766847e+00
1.493187667335661439e-01 6.967974915306584194e+00
1.503593156302315270e-01 7.292857101645122242e+00
1.513998645268969101e-01 7.621775864682582835e+00
1.524404134235622932e-01 8.145777067347228950e+00
1.534809623202276763e-01 8.385551488199077141e+00
1.545215112168930593e-01 8.786125822012362363e+00
1.555620601135584424e-01 8.868399040551633306e+00
1.566026090102238255e-01 8.746712752532577184e+00
1.576431579068892086e-01 9.182449106832841323e+00
1.586837068035545917e-01 9.482471686301337854e+00
1.597242557002199748e-01 1.005635658571272373e+01
1.607648045968853578e-01 1.021413569336034399e+01
1.618053534935507409e-01 1.041299177573843693e+01
1.628459023902161240e-01 1.043348090015197016e+01
1.638864512868815071e-01 1.050121076841140777e+01
1.649270001835468902e-01 1.077176174517091667e+01
1.659675490802122733e-01 1.079656110425701954e+01
1.670080979768776563e-01 1.074381202733917817e+01
1.680486468735430672e-01 1.095439282133188996e+01
1.690891957702084503e-01 1.103169148405602940e+01
1.701297446668738333e-01 1.092823290526811419e+01
1.711702935635392164e-01 1.075953713395371381e+01
1.722108424602045995e-01 1.064437802828945578e+01
1.732513913568699826e-01 1.071089564835132180e+01
1.742919402535353657e-01 1.056049332964903442e+01
1.753324891502007488e-01 1.045812910981990385e+01
1.763730380468661318e-01 1.035947729395424588e+01
1.774135869435315149e-01 1.029362747912106713e+01
1.784541358401968980e-01 1.005998976079179386e+01
1.794946847368622811e-01 9.836901062833863563e+00
1.805352336335276642e-01 9.536957437301609275e+00
1.815757825301930473e-01 9.251270983430423200e+00
1.826163314268584303e-01 9.215034669557034874e+00
1.836568803235238134e-01 9.017239331477675535e+00
1.846974292201891965e-01 8.911736705089186472e+00
1.857379781168545796e-01 8.658913515526421634e+00
1.867785270135199627e-01 8.409984844592123920e+00
1.878190759101853458e-01 8.144641999753272188e+00
1.888596248068507288e-01 7.755236481884249855e+00
1.899001737035161119e-01 7.530151908954280771e+00
1.909407226001814950e-01 7.350394649848162487e+00
1.919812714968468781e-01 6.747177433787602041e+00
1.930218203935122612e-01 6.459094166375837887e+00
1.940623692901776443e-01 6.106176412174566082e+00
1.951029181868430273e-01 5.911637875864389713e+00
1.961434670835084104e-01 5.723939849311978634e+00
1.971840159801737935e-01 5.213621827468490011e+00
1.982245648768391766e-01 4.765736355459711859e+00
1.992651137735045597e-01 4.711160541758349751e+00
2.003056626701699428e-01 4.389083760035141779e+00
2.013462115668353813e-01 4.411523527684767743e+00
2.023867604635007644e-01 4.063096520174180881e+00
2.034273093601661475e-01 3.720026820893497899e+00
2.044678582568315306e-01 3.540667074575065243e+00
2.055084071534969137e-01 3.275822998871021241e+00
2.065489560501622968e-01 3.117629867375352859e+00
2.075895049468276798e-01 2.927809150951564021e+00
2.086300538434930629e-01 2.595759881378718603e+00
2.096706027401584460e-01 2.208220956684208147e+00
2.107111516368238291e-01 2.323748614411719871e+00
2.117517005334892122e-01 2.416528424707948375e+00
2.127922494301545953e-01 2.216346437394786761e+00
2.138327983268199783e-01 1.895205120414374278e+00
2.148733472234853614e-01 1.753507772748140070e+00
2.159138961201507445e-01 1.728896675415409590e+00
2.169544450168161276e-01 1.620432481922481571e+00
2.179949939134815107e-01 1.324836912947613854e+00
2.190355428101468938e-01 1.285635099604530041e+00
2.200760917068122768e-01 1.214574159625822602e+00
2.211166406034776599e-01 1.094833806146290556e+00
2.221571895001430430e-01 1.023723263526459704e+00
2.231977383968084261e-01 9.128884919241286866e-01
2.242382872934738092e-01 1.159674113046282429e+00
2.252788361901391923e-01 1.162972368266203205e+00
2.263193850868045753e-01 9.821766693289220029e-01
2.273599339834699584e-01 9.862256934077144876e-01
2.284004828801353415e-01 9.500861546855929873e-01
2.294410317768007246e-01 1.008740156655004938e+00
2.304815806734661077e-01 1.114683624923078042e+00
2.315221295701314908e-01 1.219265422304410151e+00
2.325626784667968738e-01 1.200923563792738236e+00
2.336032273634622569e-01 1.124761218708140831e+00
2.346437762601276400e-01 1.203038444627026138e+00
2.356843251567930231e-01 1.376900434275153629e+00
2.367248740534584062e-01 1.340181834630413960e+00
2.377654229501237892e-01 1.327683352912718107e+00
2.388059718467891723e-01 1.307703511250615236e+00
2.398465207434545554e-01 1.551047666865603247e+00
2.408870696401199385e-01 1.402042820184096428e+00
2.419276185367853216e-01 1.381460509719797614e+00
2.429681674334507047e-01 1.620663547801072468e+00
2.440087163301160877e-01 1.622483039538085592e+00
2.450492652267814708e-01 1.451383643471931606e+00
2.460898141234468539e-01 1.599176018246485143e+00
2.471303630201122370e-01 1.821195085488266585e+00
2.481709119167776201e-01 1.540549748030681343e+00
2.492114608134430032e-01 1.615901668190399931e+00
2.502520097101083585e-01 1.689448610686739016e+00
2.512925586067737416e-01 1.871575659902688926e+00
2.523331075034391247e-01 1.966029995091059135e+00
2.533736564001045077e-01 1.934503915507175265e+00
2.544142052967698908e-01 2.171164822813544504e+00
2.554547541934352739e-01 2.078821135949898036e+00
2.564953030901006570e-01 1.942654419891837847e+00
2.575358519867660401e-01 1.985355068576538429e+00
2.585764008834314231e-01 1.965659786608000559e+00
2.596169497800968062e-01 1.875354200596024867e+00
2.606574986767621893e-01 2.001275693057063876e+00
2.616980475734275724e-01 1.880380965753349898e+00
2.627385964700929555e-01 1.685146512642536010e+00
2.637791453667583386e-01 1.898174338767837810e+00
2.648196942634237216e-01 2.009071042068139690e+00
2.658602431600891047e-01 2.066976810399076214e+00
2.669007920567544878e-01 2.065370739729086580e+00
2.679413409534198709e-01 1.900192952470302288e+00
2.689818898500852540e-01 1.934358423737283061e+00
2.700224387467506371e-01 2.092530500802421756e+00
2.710629876434160201e-01 2.133935312785311567e+00
2.721035365400814032e-01 1.999329542274395521e+00
2.731440854367467863e-01 2.079695426061217489e+00
2.741846343334121694e-01 1.967222964300283650e+00
2.752251832300775525e-01 1.974567939534722427e+00
2.762657321267429356e-01 1.804580825617655648e+00
2.773062810234083186e-01 1.708759294586062794e+00
2.783468299200737017e-01 1.672790500165955763e+00
2.793873788167390848e-01 1.844504505908346914e+00
2.804279277134044679e-01 1.755218547020341191e+00
2.814684766100698510e-01 1.863861345457529239e+00
2.825090255067352341e-01 1.889309774504898343e+00
2.835495744034006171e-01 2.036595217434655325e+00
2.845901233000660002e-01 1.577873497690173821e+00
2.856306721967313833e-01 1.389929518292156274e+00
2.866712210933967664e-01 1.431484374588215758e+00
2.877117699900621495e-01 1.436344175804915579e+00
2.887523188867275326e-01 1.406416178722199817e+00
2.897928677833929156e-01 1.199164465745841568e+00
2.908334166800582987e-01 1.293291138200800106e+00
2.918739655767236818e-01 1.329680160577641601e+00
2.929145144733890649e-01 1.347477298432774973e+00
2.939550633700544480e-01 1.255935124480703990e+00
2.949956122667198311e-01 1.293828064996784377e+00
2.960361611633852141e-01 1.179130183620745953e+00
2.970767100600505972e-01 1.071625332314781076e+00
2.981172589567159803e-01 1.102007701094333214e+00
2.991578078533813634e-01 1.005894805963592376e+00
3.001983567500468020e-01 1.061001368758592633e+00
3.012389056467121851e-01 1.020397442728764759e+00
3.022794545433775681e-01 8.299404576907463138e-01
3.033200034400429512e-01 8.480962768659097151e-01
3.043605523367083343e-01 9.312312721071727140e-01
3.054011012333737174e-01 9.341715152034808511e-01
3.064416501300391005e-01 7.603150321351748175e-01
3.074821990267044836e-01 9.128553059731849828e-01
3.085227479233698666e-01 9.216280459758792176e-01
3.095632968200352497e-01 7.940398992290091940e-01
3.106038457167006328e-01 7.736442487510757360e-01
3.116443946133660159e-01 7.444801931272664319e-01
3.126849435100313990e-01 6.950910183648950635e-01
3.137254924066967821e-01 7.472287102123331692e-01
3.147660413033621651e-01 7.404022587246110731e-01
3.158065902000275482e-01 5.638813661775827768e-01
3.168471390966929313e-01 6.137156007021182802e-01
3.178876879933583144e-01 4.986823180370052455e-01
3.189282368900236975e-01 4.878909390636039234e-01
3.199687857866890806e-01 5.432193891688363863e-01
3.210093346833544636e-01 5.016451048253998124e-01
3.220498835800198467e-01 5.574872757908408971e-01
3.230904324766852298e-01 6.293104974114598349e-01
3.241309813733506129e-01 3.614088406425288724e-01
3.251715302700159960e-01 3.773852765245777618e-01
3.262120791666813790e-01 6.625188050412695873e-01
3.272526280633467621e-01 5.643261203498397549e-01
3.282931769600121452e-01 5.634149726902357713e-01
3.293337258566775283e-01 6.194879924916314451e-01
3.303742747533429114e-01 6.993373647088958478e-01
3.314148236500082945e-01 6.672704629974788304e-01
3.324553725466736775e-01 6.613020466603671821e-01
3.334959214433390606e-01 7.283882492522550933e-01
3.345364703400044437e-01 6.401146785727824806e-01
3.355770192366698268e-01 5.747049441840381689e-01
3.366175681333352099e-01 6.935948732864929411e-01
3.376581170300005930e-01 7.339355121950283944e-01
3.386986659266659760e-01 8.227685544894463021e-01
3.397392148233313591e-01 8.055468645786305615e-01
3.407797637199967422e-01 6.707489259084091771e-01
3.418203126166621253e-01 7.704216301232165165e-01
3.428608615133275084e-01 7.384874597486188463e-01
3.439014104099928915e-01 6.642008383265753935e-01
3.449419593066582745e-01 6.380064877095819043e-01
3.459825082033236576e-01 8.584668363229930321e-01
3.470230570999890407e-01 8.758820636773840818e-01
3.480636059966544238e-01 9.077019242660639975e-01
3.491041548933198069e-01 8.940081467987148756e-01
3.501447037899851900e-01 9.691326507671398360e-01
3.511852526866505730e-01 8.655206672153106240e-01
3.522258015833159561e-01 1.005245705716003357e+00
3.532663504799813392e-01 7.676624308199713198e-01
3.543068993766467223e-01 7.913325910383157691e-01
3.553474482733121054e-01 8.716979251897072345e-01
3.563879971699774885e-01 9.318036881525273429e-01
3.574285460666428715e-01 8.127002008697310487e-01
3.584690949633082546e-01 8.352541955782513128e-01
3.595096438599736377e-01 7.880784610698547965e-01
3.605501927566390208e-01 7.046037176592854223e-01
3.615907416533044039e-01 9.731883858915111318e-01
3.626312905499697870e-01 1.002689401956168069e+00
3.636718394466351700e-01 9.034593147883533959e-01
3.647123883433005531e-01 7.954551423529103715e-01
3.657529372399659362e-01 8.008305407204048265e-01
3.667934861366313193e-01 8.237654753843592914e-01
3.678340350332967024e-01 8.801575763893580984e-01
3.688745839299620854e-01 7.948022340747975534e-01
3.699151328266274685e-01 7.425077290573476319e-01
3.709556817232928516e-01 6.786670303876185528e-01
3.719962306199582347e-01 5.685265742656646637e-01
3.730367795166236178e-01 7.946140334465638944e-01
3.740773284132890009e-01 9.544823305373242306e-01
3.751178773099543839e-01 8.678890483176182613e-01
3.761584262066197670e-01 5.410960282526318110e-01
3.771989751032851501e-01 6.274820935778286923e-01
3.782395239999505332e-01 8.779226286129855339e-01
3.792800728966159163e-01 8.339664084230129504e-01
3.803206217932812994e-01 6.652728067435127457e-01
3.813611706899466824e-01 8.068460051496124663e-01
3.824017195866120655e-01 8.034897413656594267e-01
3.834422684832774486e-01 5.192289069384941058e-01
3.844828173799428317e-01 5.791312392661467356e-01
3.855233662766082148e-01 6.043662025745817346e-01
3.865639151732735979e-01 5.380858792337157581e-01
3.876044640699389809e-01 4.235067138921593255e-01
3.886450129666043640e-01 5.098459482317210245e-01
3.896855618632697471e-01 6.101773875018636772e-01
3.907261107599351302e-01 6.137132585050260047e-01
3.917666596566005133e-01 4.560040316476907662e-01
3.928072085532658964e-01 0.000000000000000000e+00
3.938477574499312794e-01 5.870570418311338301e-01
3.948883063465966625e-01 6.804102288981681568e-01
3.959288552432620456e-01 6.829479630638637389e-01
3.969694041399274287e-01 6.719524163142480688e-01
3.980099530365928118e-01 5.603558521020808314e-01
3.990505019332581949e-01 4.665905872041093971e-01
4.000910508299235779e-01 3.623324651829804566e-01
4.011315997265889610e-01 4.446181896183460935e-01
4.021721486232543441e-01 5.468498601428954942e-01
4.032126975199197272e-01 5.990957442470623562e-01
4.042532464165851103e-01 5.002742937613327001e-01
4.052937953132504934e-01 4.489142773598437941e-01
4.063343442099158764e-01 3.220313233303748746e-01
4.073748931065812595e-01 3.093257878103017333e-01
4.084154420032466426e-01 4.615505857930806144e-01
4.094559908999120257e-01 6.474936240387698660e-01
4.104965397965774088e-01 4.799761755788658490e-01
4.115370886932427918e-01 3.999429894562283039e-01
4.125776375899081749e-01 4.766167663023459511e-01
4.136181864865735580e-01 6.084701998601040884e-01
4.146587353832389411e-01 3.861466201577030688e-01
4.156992842799043242e-01 3.165016157303739419e-01
4.167398331765697073e-01 3.997447324804390689e-01
4.177803820732350903e-01 2.258372215711474951e-01
4.188209309699004734e-01 3.486841299911702663e-01
4.198614798665658565e-01 4.329553471610161353e-01
4.209020287632312396e-01 5.274007019973154797e-01
4.219425776598966227e-01 6.339068050667648890e-01
4.229831265565620058e-01 5.203578053788895375e-01
4.240236754532273888e-01 4.071300431848250412e-01
4.250642243498927719e-01 3.799397437197633565e-01
4.261047732465581550e-01 2.552454748568209197e-01
4.271453221432235381e-01 3.397915598895089317e-01
4.281858710398889212e-01 2.850592467541410713e-01
4.292264199365543043e-01 4.000043876277850075e-01
4.302669688332196873e-01 2.848853216717124326e-01
4.313075177298850704e-01 3.452650722313066467e-01
4.323480666265504535e-01 4.282796895227463096e-01
4.333886155232158366e-01 5.175435673639015022e-01
4.344291644198812197e-01 5.481095584827144762e-01
