# q (1/Angstrom), Intensity (arb)
2.029070354705860696e-02 1.431571432472888773e+03
2.133125244372399004e-02 1.427488921638714146e+03
2.237180134038937659e-02 1.422878568401594066e+03
2.341235023705475968e-02 1.412734787674500240e+03
2.445289913372014276e-02 1.403517608819527140e+03
2.549344803038552584e-02 1.391635179118669384e+03
2.653399692705091240e-02 1.370299315501566525e+03
2.757454582371629548e-02 1.360763075135668942e+03
2.861509472038167856e-02 1.348555200802196850e+03
2.965564361704706164e-02 1.326636855445428864e+03
3.069619251371244473e-02 1.311513720996804068e+03
3.173674141037782781e-02 1.295868962048465164e+03
3.277729030704321089e-02 1.274401888799331118e+03
3.381783920370859398e-02 1.256761922959324693e+03
3.485838810037397706e-02 1.237346020938687843e+03
3.589893699703936014e-02 1.215217628258755894e+03
3.693948589370474322e-02 1.194419720706594717e+03
3.798003479037012631e-02 1.171673847307928781e+03
3.902058368703550939e-02 1.152526892576645423e+03
4.006113258370089247e-02 1.134890559835426984e+03
4.110168148036627556e-02 1.110001743380917333e+03
4.214223037703165864e-02 1.084264022554850953e+03
4.318277927369704866e-02 1.062152136081491790e+03
4.422332817036243174e-02 1.038454310572260056e+03
4.526387706702781483e-02 1.018284829871478223e+03
4.630442596369319791e-02 9.960110778140335697e+02
4.734497486035858099e-02 9.713343701547784121e+02
4.838552375702396408e-02 9.467119626669866648e+02
4.942607265368934716e-02 9.220776500177519210e+02
5.046662155035473024e-02 8.978335114409576363e+02
5.150717044702011332e-02 8.755120148232898600e+02
5.254771934368549641e-02 8.520663183678179848e+02
5.358826824035087949e-02 8.265571534499915742e+02
5.462881713701626257e-02 8.036099619966469163e+02
5.566936603368164566e-02 7.801883237298371796e+02
5.670991493034702874e-02 7.559401902544143468e+02
5.775046382701241182e-02 7.366058412506604327e+02
5.879101272367779490e-02 7.156151917010830630e+02
5.983156162034317799e-02 6.905012811114687565e+02
6.087211051700856107e-02 6.663751150055159087e+02
6.191265941367394415e-02 6.441842311913555932e+02
6.295320831033933417e-02 6.226704795855024486e+02
6.399375720700471726e-02 6.002906495948477641e+02
6.503430610367010034e-02 5.788151647397324950e+02
6.607485500033548342e-02 5.583231645612519287e+02
6.711540389700086651e-02 5.378248025546082545e+02
6.815595279366624959e-02 5.171192756597403104e+02
6.919650169033163267e-02 4.971074122012136058e+02
7.023705058699701576e-02 4.762663872537120255e+02
7.127759948366239884e-02 4.576752639258230033e+02
7.231814838032778192e-02 4.393841836139313273e+02
7.335869727699316500e-02 4.201216330569512820e+02
7.439924617365854809e-02 4.010566699312923333e+02
7.543979507032393117e-02 3.847478360966471769e+02
7.648034396698931425e-02 3.674667707921372539e+02
7.752089286365469734e-02 3.503010270142146396e+02
7.856144176032008042e-02 3.333714612866501170e+02
7.960199065698546350e-02 3.176243729060310557e+02
8.064253955365084658e-02 3.026077263936574013e+02
8.168308845031622967e-02 2.868515874046391900e+02
8.272363734698161275e-02 2.719590132095390800e+02
8.376418624364699583e-02 2.592659743429846344e+02
8.480473514031239279e-02 2.446236091738525715e+02
8.584528403697777588e-02 2.310349528539956623e+02
8.688583293364315896e-02 2.180343194310602541e+02
8.792638183030854204e-02 2.050130581311559297e+02
8.896693072697392513e-02 1.929224603522207246e+02
9.000747962363930821e-02 1.825316622519231657e+02
9.104802852030469129e-02 1.707674983483314008e+02
9.208857741697007437e-02 1.598871188735709836e+02
9.312912631363545746e-02 1.499403968994862737e+02
9.416967521030084054e-02 1.399088583035389490e+02
9.521022410696622362e-02 1.311550433452967752e+02
9.625077300363160671e-02 1.227235450111205921e+02
9.729132190029698979e-02 1.134919338001181757e+02
9.833187079696237287e-02 1.050122466542006521e+02
9.937241969362775595e-02 9.645323424452035965e+01
1.004129685902931390e-01 8.899799806994538187e+01
1.014535174869585221e-01 8.247663173897197453e+01
1.024940663836239052e-01 7.603364593462211474e+01
1.035346152802892883e-01 6.935900857124096319e+01
1.045751641769546714e-01 6.325859794253779000e+01
1.056157130736200545e-01 5.731321038157172154e+01
1.066562619702854375e-01 5.236347465778766264e+01
1.076968108669508206e-01 4.806573372530415611e+01
1.087373597636162037e-01 4.366944119751467213e+01
1.097779086602815868e-01 3.925656149959926466e+01
1.108184575569469699e-01 3.542610904681109218e+01
1.118590064536123529e-01 3.202601207414028295e+01
1.128995553502777360e-01 2.801783099470211980e+01
1.139401042469431191e-01 2.469036189227734468e+01
1.149806531436085022e-01 2.117132119040314464e+01
1.160212020402738853e-01 1.886407946404568037e+01
1.170617509369392684e-01 1.720643646270355376e+01
1.181022998336046514e-01 1.476407688181434352e+01
1.191428487302700345e-01 1.272982777477401939e+01
1.201833976269354176e-01 1.090519476957738831e+01
1.212239465236008007e-01 9.088716812970915271e+00
1.222644954202661838e-01 8.100123655402821754e+00
1.233050443169315669e-01 7.359707261643055887e+00
1.243455932135969499e-01 6.470192604837023964e+00
1.253861421102623330e-01 5.001359397233539283e+00
1.264266910069277161e-01 3.699938509183542834e+00
1.274672399035930992e-01 2.929415674471666620e+00
1.285077888002584823e-01 2.621021001222121782e+00
1.295483376969238654e-01 2.678169198361427306e+00
1.305888865935892484e-01 2.459350006098915742e+00
1.316294354902546315e-01 2.146669060433200826e+00
1.326699843869200146e-01 1.919437080211594093e+00
1.337105332835853977e-01 1.852839125067163195e+00
1.347510821802507808e-01 2.007294663748812269e+00
1.357916310769161639e-01 2.208659757129780132e+00
1.368321799735815469e-01 2.439339243430712401e+00
1.378727288702469300e-01 2.847655745071360656e+00
1.389132777669123131e-01 3.134574474016226020e+00
1.399538266635776962e-01 3.485132566000189058e+00
1.409943755602430793e-01 3.538595343573092578e+00
1.420349244569084624e-01 4.022031503685251863e+00
1.430754733535738454e-01 4.247987620352532190e+00
1.441160222502392285e-01 4.677608038950676672e+00
1.451565711469046116e-01 5.338588819759095827e+00
1.461971200435699947e-01 5.435625863196467122e+00
1.472376689402353778e-01 5.763064194291711573e+00
1.482782178369007609e-01 6.329029295484204454e+00
1.493187667335661439e-01 6.850007648983130082e+00
1.503593156302315270e-01 7.128724162491220540e+00
1.513998645268969101e-01 7.564974432500154222e+00
1.524404134235622932e-01 7.861286069239824315e+00
1.534809623202276763e-01 8.219095122988960611e+00
1.545215112168930593e-01 9.004549137001415460e+00
1.555620601135584424e-01 9.253937018710857387e+00
1.566026090102238255e-01 9.655912441836065341e+00
1.576431579068892086e-01 1.022308357786315725e+01
1.586837068035545917e-01 1.011911674107652814e+01
1.597242557002199748e-01 1.049658762643265320e+01
1.607648045968853578e-01 1.102292962985448099e+01
1.618053534935507409e-01 1.092592858087924768e+01
1.628459023902161240e-01 1.084541220037454679e+01
1.638864512868815071e-01 1.140569580459449739e+01
1.649270001835468902e-01 1.145801104536759141e+01
1.659675490802122733e-01 1.124046896957394281e+01
1.670080979768776563e-01 1.147684770609396310e+01
1.680486468735430672e-01 1.128810780171831851e+01
1.690891957702084503e-01 1.159139335017812300e+01
1.701297446668738333e-01 1.143092594569239751e+01
1.711702935635392164e-01 1.146387982439045672e+01
1.722108424602045995e-01 1.133156776706021418e+01
1.732513913568699826e-01 1.124436446880057616e+01
1.742919402535353657e-01 1.127300451088869693e+01
1.753324891502007488e-01 1.122298873716626844e+01
1.763730380468661318e-01 1.104925793337844908e+01
1.774135869435315149e-01 1.070629777197147448e+01
1.784541358401968980e-01 1.055806850806313690e+01
1.794946847368622811e-01 1.007390207340330335e+01
1.805352336335276642e-01 1.010193273314510876e+01
1.815757825301930473e-01 9.680367962466021936e+00
1.826163314268584303e-01 9.384658195632596289e+00
1.836568803235238134e-01 9.377713118649403157e+00
1.846974292201891965e-01 9.103557032058404275e+00
1.857379781168545796e-01 8.750259095440178214e+00
1.867785270135199627e-01 8.793617485182526394e+00
1.878190759101853458e-01 8.217812261589781286e+00
1.888596248068507288e-01 7.648307635041764030e+00
1.899001737035161119e-01 6.996369246282093002e+00
1.909407226001814950e-01 7.095327386623925037e+00
1.919812714968468781e-01 7.024602968674727776e+00
1.930218203935122612e-01 6.654540050794548023e+00
1.940623692901776443e-01 6.191649972297526006e+00
1.951029181868430273e-01 5.724493588422689072e+00
1.961434670835084104e-01 5.640180766034944781e+00
1.971840159801737935e-01 5.285179570495984080e+00
1.982245648768391766e-01 5.186546295602642687e+00
1.992651137735045597e-01 4.959198885471785445e+00
2.003056626701699428e-01 4.473684875778708658e+00
2.013462115668353813e-01 3.924366991886380163e+00
2.023867604635007644e-01 3.539258443652929742e+00
2.034273093601661475e-01 3.501103228678690726e+00
2.044678582568315306e-01 3.468234684226750630e+00
2.055084071534969137e-01 3.214288889489385070e+00
2.065489560501622968e-01 2.628845842563691804e+00
2.075895049468276798e-01 2.379656748918083764e+00
2.086300538434930629e-01 2.408746238965076003e+00
2.096706027401584460e-01 2.261372607925835609e+00
2.107111516368238291e-01 1.963581086857580260e+00
2.117517005334892122e-01 1.798378215161068994e+00
2.127922494301545953e-01 1.703023802415373211e+00
2.138327983268199783e-01 1.708733282167013812e+00
2.148733472234853614e-01 1.066960328417472681e+00
2.159138961201507445e-01 1.085460009408073745e+00
2.169544450168161276e-01 1.173660489484799285e+00
2.179949939134815107e-01 1.074881027970011615e+00
2.190355428101468938e-01 7.908195158456443608e-01
2.200760917068122768e-01 1.088607280040722713e+00
2.211166406034776599e-01 1.034942014893232454e+00
2.221571895001430430e-01 1.035392378726825768e+00
2.231977383968084261e-01 9.059853373211943506e-01
2.242382872934738092e-01 6.184597717757078783e-01
2.252788361901391923e-01 3.680949958746744244e-01
2.263193850868045753e-01 5.670603528033275609e-01
2.273599339834699584e-01 6.827640947306363728e-01
2.284004828801353415e-01 5.690967675281584093e-01
2.294410317768007246e-01 2.580852673168294587e-01
2.304815806734661077e-01 2.655425381798792728e-01
2.315221295701314908e-01 1.500456306816460028e-01
2.325626784667968738e-01 4.169897813591205704e-01
2.336032273634622569e-01 5.327433378212091952e-01
2.346437762601276400e-01 7.002119168797484861e-01
2.356843251567930231e-01 5.441424894057824702e-01
2.367248740534584062e-01 1.030597369301460731e+00
2.377654229501237892e-01 1.075020163013270746e+00
2.388059718467891723e-01 8.350756328170518827e-01
2.398465207434545554e-01 9.059730082156640663e-01
2.408870696401199385e-01 8.129277109862513839e-01
2.419276185367853216e-01 8.644683181708145980e-01
2.429681674334507047e-01 1.202241365277661345e+00
2.440087163301160877e-01 1.194750519785323206e+00
2.450492652267814708e-01 1.151844348032234677e+00
2.460898141234468539e-01 1.251618908828540100e+00
2.471303630201122370e-01 1.341292563642181079e+00
2.481709119167776201e-01 1.363186915574271296e+00
2.492114608134430032e-01 1.448967591384548115e+00
2.502520097101083585e-01 1.551044629377408057e+00
2.512925586067737416e-01 1.508750133565797569e+00
2.523331075034391247e-01 1.348663210047391203e+00
2.533736564001045077e-01 1.295664442994407750e+00
2.544142052967698908e-01 1.560582873896319001e+00
2.554547541934352739e-01 1.766988698928969370e+00
2.564953030901006570e-01 1.848467315877972084e+00
2.575358519867660401e-01 1.505244680038174465e+00
2.585764008834314231e-01 1.593776691440236704e+00
2.596169497800968062e-01 1.801883014690449869e+00
2.606574986767621893e-01 1.978532388234675921e+00
2.616980475734275724e-01 1.739539101916342645e+00
2.627385964700929555e-01 1.836829739693353503e+00
2.637791453667583386e-01 1.867577724480334211e+00
2.648196942634237216e-01 1.885463597485326659e+00
2.658602431600891047e-01 1.865122394952550167e+00
2.669007920567544878e-01 1.827052017220726299e+00
2.679413409534198709e-01 2.020698789857281241e+00
2.689818898500852540e-01 1.984459139112061621e+00
2.700224387467506371e-01 1.885856845385095681e+00
2.710629876434160201e-01 1.927236032026304002e+00
2.721035365400814032e-01 2.007267764011711364e+00
2.731440854367467863e-01 2.004731543215978462e+00
2.741846343334121694e-01 1.890360488607569778e+00
2.752251832300775525e-01 1.790881544303896789e+00
2.762657321267429356e-01 1.632064202380206552e+00
2.773062810234083186e-01 1.641897118906634034e+00
2.783468299200737017e-01 1.645923759510296236e+00
2.793873788167390848e-01 1.663088951358520973e+00
2.804279277134044679e-01 1.638932852716351363e+00
2.814684766100698510e-01 1.408409242273013007e+00
2.825090255067352341e-01 1.467851540387375309e+00
2.835495744034006171e-01 1.431319085655836432e+00
2.845901233000660002e-01 1.506237449329681510e+00
2.856306721967313833e-01 1.530324649305537577e+00
2.866712210933967664e-01 1.360213180631923535e+00
2.877117699900621495e-01 1.077638672092273708e+00
2.887523188867275326e-01 1.228182400513514239e+00
2.897928677833929156e-01 1.011030169373334786e+00
2.908334166800582987e-01 1.176051124498698641e+00
2.918739655767236818e-01 1.261762501864730268e+00
2.929145144733890649e-01 8.964888423242527438e-01
2.939550633700544480e-01 9.714694920015105595e-01
2.949956122667198311e-01 8.029974308528373683e-01
2.960361611633852141e-01 9.570821899194541515e-01
2.970767100600505972e-01 1.033561610136388254e+00
2.981172589567159803e-01 6.083170477110044772e-01
2.991578078533813634e-01 4.225924597450507747e-01
3.001983567500468020e-01 5.955957448227842121e-01
3.012389056467121851e-01 8.761450078526209495e-01
3.022794545433775681e-01 7.416744953020497633e-01
3.033200034400429512e-01 7.195228096630792436e-01
3.043605523367083343e-01 5.008979485395812503e-01
3.054011012333737174e-01 3.885816403060502466e-01
3.064416501300391005e-01 5.286729082481329556e-01
3.074821990267044836e-01 8.589289273198730257e-01
3.085227479233698666e-01 5.945220500795400653e-01
3.095632968200352497e-01 2.245407130759033976e-01
3.106038457167006328e-01 2.259261074737217712e-01
3.116443946133660159e-01 3.320884938793220442e-01
3.126849435100313990e-01 5.144241248544965117e-01
3.137254924066967821e-01 4.602215605616279959e-01
3.147660413033621651e-01 4.047662555006574792e-01
3.158065902000275482e-01 3.740736053509259307e-01
3.168471390966929313e-01 2.540882293350676946e-01
3.178876879933583144e-01 1.301674997889854524e-01
3.189282368900236975e-01 1.152553354730905255e-01
3.199687857866890806e-01 3.454896228219972443e-01
3.210093346833544636e-01 4.567168483319505867e-01
3.220498835800198467e-01 5.215658727414762552e-01
3.230904324766852298e-01 6.810882568072784693e-01
3.241309813733506129e-01 6.753703310399963300e-01
3.251715302700159960e-01 5.975317313580426060e-01
3.262120791666813790e-01 5.279174201115814924e-01
3.272526280633467621e-01 4.082207609813437443e-01
3.282931769600121452e-01 5.418992921522907125e-01
3.293337258566775283e-01 8.364640973470756080e-01
3.303742747533429114e-01 7.646522132435116248e-01
3.314148236500082945e-01 5.249422340678862042e-01
3.324553725466736775e-01 2.993800418113963246e-01
3.334959214433390606e-01 3.707936851046902405e-01
3.345364703400044437e-01 5.205546306571591231e-01
3.355770192366698268e-01 3.999987461827103630e-01
3.366175681333352099e-01 4.950081532405015139e-01
3.376581170300005930e-01 4.956525378139531313e-01
3.386986659266659760e-01 4.854123267193060087e-01
3.397392148233313591e-01 4.085168403035517315e-01
3.407797637199967422e-01 5.520069041721633596e-01
3.418203126166621253e-01 4.582132741020501498e-01
3.428608615133275084e-01 3.858093507657365251e-01
3.439014104099928915e-01 3.358993703803285769e-01
3.449419593066582745e-01 3.578594691077690015e-01
3.459825082033236576e-01 4.078278903907168740e-01
3.470230570999890407e-01 5.585198123605010778e-01
3.480636059966544238e-01 5.714673914220718132e-01
3.491041548933198069e-01 7.906838028581084643e-01
3.501447037899851900e-01 7.705402406611945310e-01
3.511852526866505730e-01 7.235323511015891995e-01
3.522258015833159561e-01 5.552510159623373909e-01
3.532663504799813392e-01 4.548597001116085892e-01
3.543068993766467223e-01 6.668637176911040854e-01
3.553474482733121054e-01 6.323038953470856427e-01
3.563879971699774885e-01 6.235568514339178137e-01
3.574285460666428715e-01 7.476172203590252252e-01
3.584690949633082546e-01 7.443703080648909065e-01
3.595096438599736377e-01 5.819083396000230834e-01
3.605501927566390208e-01 5.015503057002987930e-01
3.615907416533044039e-01 7.513155422650044102e-01
3.626312905499697870e-01 6.156091896087119153e-01
3.636718394466351700e-01 5.876211551427736879e-01
3.647123883433005531e-01 5.284459541739394695e-01
3.657529372399659362e-01 5.197736172032705326e-01
3.667934861366313193e-01 5.852551439031330460e-01
3.678340350332967024e-01 5.249389480056763091e-01
3.688745839299620854e-01 4.874364282412457783e-01
3.699151328266274685e-01 5.885720685518194273e-01
3.709556817232928516e-01 4.376600689894836194e-01
3.719962306199582347e-01 2.445029685694564137e-01
3.730367795166236178e-01 3.028696012388323311e-01
3.740773284132890009e-01 4.303735179996941440e-01
3.751178773099543839e-01 4.628953338828480923e-01
3.761584262066197670e-01 3.936516956217523955e-01
3.771989751032851501e-01 4.499597188056512209e-01
3.782395239999505332e-01 1.956622441811397550e-01
3.792800728966159163e-01 3.066439234103910394e-01
3.803206217932812994e-01 4.811647733032344831e-01
3.813611706899466824e-01 5.877892848501211631e-01
3.824017195866120655e-01 6.433105840470751957e-01
3.834422684832774486e-01 4.691489830642225911e-01
3.844828173799428317e-01 5.782627027912674578e-01
3.855233662766082148e-01 4.937792049900266989e-01
3.865639151732735979e-01 3.580566646095064698e-01
3.876044640699389809e-01 2.792504253029512995e-01
3.886450129666043640e-01 2.895884778272126425e-01
3.896855618632697471e-01 3.470004749199588900e-01
3.907261107599351302e-01 3.159699269277069789e-01
3.917666596566005133e-01 4.089916655855461158e-01
3.928072085532658964e-01 4.359122382536249063e-01
3.938477574499312794e-01 3.919509970870684867e-01
3.948883063465966625e-01 3.389463781124995023e-01
3.959288552432620456e-01 3.399948605013136671e-01
3.969694041399274287e-01 2.695085955816587386e-01
3.980099530365928118e-01 3.975628259002093046e-01
3.990505019332581949e-01 3.917978081570900883e-01
4.000910508299235779e-01 4.400561637272879523e-01
4.011315997265889610e-01 3.503753639567115385e-01
4.021721486232543441e-01 3.084987935947935966e-01
4.032126975199197272e-01 3.539502647278709446e-01
4.042532464165851103e-01 3.474159274459260871e-01
4.052937953132504934e-01 5.485994470937534118e-01
4.063343442099158764e-01 5.821960520695270702e-01
4.073748931065812595e-01 3.389029241457848229e-01
4.084154420032466426e-01 3.796681834849486847e-01
4.094559908999120257e-01 5.277523929474448039e-01
4.104965397965774088e-01 5.374927129148296956e-01
4.115370886932427918e-01 6.494364133964545260e-01
4.125776375899081749e-01 4.898090077558698852e-01
4.136181864865735580e-01 2.389943821898832255e-01
4.146587353832389411e-01 3.002824856609578319e-01
4.156992842799043242e-01 4.150554759104423397e-01
4.167398331765697073e-01 3.019052700592759209e-01
4.177803820732350903e-01 4.729546606067991377e-01
4.188209309699004734e-01 5.027287801578914639e-01
4.198614798665658565e-01 4.124028180399577082e-01
4.209020287632312396e-01 5.330830993689943398e-01
4.219425776598966227e-01 3.085238998486090622e-01
4.229831265565620058e-01 3.042105091631910341e-01
4.240236754532273888e-01 4.373348028950481137e-01
4.250642243498927719e-01 4.003521768278872628e-01
4.261047732465581550e-01 9.960843603704461202e-02
4.271453221432235381e-01 2.576571804181249092e-01
4.281858710398889212e-01 4.124686131303931802e-01
4.292264199365543043e-01 3.710373812482608002e-01
4.302669688332196873e-01 2.313156256330763938e-01
4.313075177298850704e-01 1.030553695413161108e-01
4.323480666265504535e-01 1.237539939561678182e-01
4.333886155232158366e-01 2.003928184033050286e-01
4.344291644198812197e-01 5.060662781651146247e-01
