# q (1/Angstrom), Intensity (arb)
2.029070354705860696e-02 1.426139785006763304e+03
2.133125244372399004e-02 1.422100856418472631e+03
2.237180134038937659e-02 1.419726759264655129e+03
2.341235023705475968e-02 1.414696735384515478e+03
2.445289913372014276e-02 1.404017352093422232e+03
2.549344803038552584e-02 1.396703577514929066e+03
2.653399692705091240e-02 1.377483091259602588e+03
2.757454582371629548e-02 1.362466574177864914e+03
2.861509472038167856e-02 1.346359982731260970e+03
2.965564361704706164e-02 1.327928435542750549e+03
3.069619251371244473e-02 1.312965911406310397e+03
3.173674141037782781e-02 1.294288799269182164e+03
3.277729030704321089e-02 1.273792659751601150e+03
3.381783920370859398e-02 1.254447612342637967e+03
3.485838810037397706e-02 1.236737005538934000e+03
3.589893699703936014e-02 1.217054486277428396e+03
3.693948589370474322e-02 1.195283190773351635e+03
3.798003479037012631e-02 1.179156053832733960e+03
3.902058368703550939e-02 1.154604146492548125e+03
4.006113258370089247e-02 1.127190546915052437e+03
4.110168148036627556e-02 1.107353058175967135e+03
4.214223037703165864e-02 1.089062806267585756e+03
4.318277927369704866e-02 1.067289849111808053e+03
4.422332817036243174e-02 1.043535799760855980e+03
4.526387706702781483e-02 1.016986484138558922e+03
4.630442596369319791e-02 9.910409246970523327e+02
4.734497486035858099e-02 9.711723947688936960e+02
4.838552375702396408e-02 9.469948682483587845e+02
4.942607265368934716e-02 9.242168096849375161e+02
5.046662155035473024e-02 9.006850120088939775e+02
5.150717044702011332e-02 8.758489704096899686e+02
5.254771934368549641e-02 8.532724988733585860e+02
5.358826824035087949e-02 8.301661736147309512e+02
5.462881713701626257e-02 8.074934297989093466e+02
5.566936603368164566e-02 7.842510734930853005e+02
5.670991493034702874e-02 7.588924964988192414e+02
5.775046382701241182e-02 7.344956512601438590e+02
5.879101272367779490e-02 7.120365980119258893e+02
5.983156162034317799e-02 6.902636130605004610e+02
6.087211051700856107e-02 6.661119881233862543e+02
6.191265941367394415e-02 6.451234952724810228e+02
6.295320831033933417e-02 6.235373017276937162e+02
6.399375720700471726e-02 6.014306970763911977e+02
6.503430610367010034e-02 5.820546505388410878e+02
6.607485500033548342e-02 5.609165511373051913e+02
6.711540389700086651e-02 5.410955485004665206e+02
6.815595279366624959e-02 5.220147855153550154e+02
6.919650169033163267e-02 5.009378488528549269e+02
7.023705058699701576e-02 4.772469149682607394e+02
7.127759948366239884e-02 4.575088607308621249e+02
7.231814838032778192e-02 4.399866105352403451e+02
7.335869727699316500e-02 4.224559445333575241e+02
7.439924617365854809e-02 4.040250890375684207e+02
7.543979507032393117e-02 3.851924335861120881e+02
7.648034396698931425e-02 3.685432127267353053e+02
7.752089286365469734e-02 3.515089216625347035e+02
7.856144176032008042e-02 3.362838872214634307e+02
7.960199065698546350e-02 3.203495963985084245e+02
8.064253955365084658e-02 3.038647638908472572e+02
8.168308845031622967e-02 2.866820478281999272e+02
8.272363734698161275e-02 2.720086463594069528e+02
8.376418624364699583e-02 2.593457314993673322e+02
8.480473514031239279e-02 2.453620500638002682e+02
8.584528403697777588e-02 2.323466913074560694e+02
8.688583293364315896e-02 2.202509426698861716e+02
8.792638183030854204e-02 2.070715686512141929e+02
8.896693072697392513e-02 1.950475335335085560e+02
9.000747962363930821e-02 1.830589639526665451e+02
9.104802852030469129e-02 1.713165484099406797e+02
9.208857741697007437e-02 1.613296221833515744e+02
9.312912631363545746e-02 1.512047650456580072e+02
9.416967521030084054e-02 1.411021099893156645e+02
9.521022410696622362e-02 1.308366077969812125e+02
9.625077300363160671e-02 1.220525878672361557e+02
9.729132190029698979e-02 1.127749820272224923e+02
9.833187079696237287e-02 1.045871651659099513e+02
9.937241969362775595e-02 9.696089297622950198e+01
1.004129685902931390e-01 9.018318277294841323e+01
1.014535174869585221e-01 8.309178968760470241e+01
1.024940663836239052e-01 7.686547589005662928e+01
1.035346152802892883e-01 7.067861309667674163e+01
1.045751641769546714e-01 6.468175249656576398e+01
1.056157130736200545e-01 5.811329303831686843e+01
1.066562619702854375e-01 5.213631535282192431e+01
1.076968108669508206e-01 4.759164648065468128e+01
1.087373597636162037e-01 4.383748494214376024e+01
1.097779086602815868e-01 3.998885454014543228e+01
1.108184575569469699e-01 3.561330706201222540e+01
1.118590064536123529e-01 3.199075733065727789e+01
1.128995553502777360e-01 2.878968307010055838e+01
1.139401042469431191e-01 2.509584902375467053e+01
1.149806531436085022e-01 2.193821269136300245e+01
1.160212020402738853e-01 2.009792898458465515e+01
1.170617509369392684e-01 1.750570888632038091e+01
1.181022998336046514e-01 1.486241654593619188e+01
1.191428487302700345e-01 1.279985069945009357e+01
1.201833976269354176e-01 1.110028866661710722e+01
1.212239465236008007e-01 9.818892681159521629e+00
1.222644954202661838e-01 8.639329743992913535e+00
1.233050443169315669e-01 7.329403042105607113e+00
1.243455932135969499e-01 6.363754760248234277e+00
1.253861421102623330e-01 5.121293173643849173e+00
1.264266910069277161e-01 4.497753882400843395e+00
1.274672399035930992e-01 4.027056215824607932e+00
1.285077888002584823e-01 3.479126971937748891e+00
1.295483376969238654e-01 3.108580674897794438e+00
1.305888865935892484e-01 3.154542400082529952e+00
1.316294354902546315e-01 2.667037061215662419e+00
1.326699843869200146e-01 2.339988287097273911e+00
1.337105332835853977e-01 2.397505379573587447e+00
1.347510821802507808e-01 1.948790828486757221e+00
1.357916310769161639e-01 1.893635265274003388e+00
1.368321799735815469e-01 2.435508390271323265e+00
1.378727288702469300e-01 2.812799261277692864e+00
1.389132777669123131e-01 2.993614195514609833e+00
1.399538266635776962e-01 3.168813984641975168e+00
1.409943755602430793e-01 3.754700817912194566e+00
1.420349244569084624e-01 4.082373139958544783e+00
1.430754733535738454e-01 4.443041975496154095e+00
1.441160222502392285e-01 5.357258602098280420e+00
1.451565711469046116e-01 5.493364521318259364e+00
1.461971200435699947e-01 5.821777460164941687e+00
1.472376689402353778e-01 6.490918837677813968e+00
1.482782178369007609e-01 6.446055527942455399e+00
1.493187667335661439e-01 6.872908591002811818e+00
1.503593156302315270e-01 7.490488260401079401e+00
1.513998645268969101e-01 8.061102777725697166e+00
1.524404134235622932e-01 7.937908350763471788e+00
1.534809623202276763e-01 8.473102407889875565e+00
1.545215112168930593e-01 9.147929484309639037e+00
1.555620601135584424e-01 9.429674871242070822e+00
1.566026090102238255e-01 9.281254911533743268e+00
1.576431579068892086e-01 9.644070790197929455e+00
1.586837068035545917e-01 1.009066789652098706e+01
1.597242557002199748e-01 1.041384336013016920e+01
1.607648045968853578e-01 1.113433567770180233e+01
1.618053534935507409e-01 1.114871903085683513e+01
1.628459023902161240e-01 1.127955795918527215e+01
1.638864512868815071e-01 1.145256952577746645e+01
1.649270001835468902e-01 1.163328852677774705e+01
1.659675490802122733e-01 1.179533905030918817e+01
1.670080979768776563e-01 1.181318636458164661e+01
1.680486468735430672e-01 1.144926935266449419e+01
1.690891957702084503e-01 1.130252005161036521e+01
1.701297446668738333e-01 1.138670232767545087e+01
1.711702935635392164e-01 1.175926681058720646e+01
1.722108424602045995e-01 1.189076825219484235e+01
1.732513913568699826e-01 1.105608467563615349e+01
1.742919402535353657e-01 1.119646698699568432e+01
1.753324891502007488e-01 1.129975615967434166e+01
1.763730380468661318e-01 1.095517681341162231e+01
1.774135869435315149e-01 1.084134891877665652e+01
1.784541358401968980e-01 1.050008605572262965e+01
1.794946847368622811e-01 1.005057182357039380e+01
1.805352336335276642e-01 1.008587625705888513e+01
1.815757825301930473e-01 1.012611126307961840e+01
1.826163314268584303e-01 9.791608015879443627e+00
1.836568803235238134e-01 9.231001982605818057e+00
1.846974292201891965e-01 9.115435269193550738e+00
1.857379781168545796e-01 9.128727477841813709e+00
1.867785270135199627e-01 8.891525437004830223e+00
1.878190759101853458e-01 8.539455105498205967e+00
1.888596248068507288e-01 7.916711375496102931e+00
1.899001737035161119e-01 7.423854330672160273e+00
1.909407226001814950e-01 7.105006665324296478e+00
1.919812714968468781e-01 6.974954060274644263e+00
1.930218203935122612e-01 6.535636506536846468e+00
1.940623692901776443e-01 6.104652468041102509e+00
1.951029181868430273e-01 6.091131730934577604e+00
1.961434670835084104e-01 5.571927947861421870e+00
1.971840159801737935e-01 5.377778804284094605e+00
1.982245648768391766e-01 5.025775642927776232e+00
1.992651137735045597e-01 4.553082606917570274e+00
2.003056626701699428e-01 4.512185274964096493e+00
2.013462115668353813e-01 4.407904695251819049e+00
2.023867604635007644e-01 4.302375493956493102e+00
2.034273093601661475e-01 4.049170657044857791e+00
2.044678582568315306e-01 3.499515892271087836e+00
2.055084071534969137e-01 3.138398660698836551e+00
2.065489560501622968e-01 3.054030831221229647e+00
2.075895049468276798e-01 2.898216576600550098e+00
2.086300538434930629e-01 2.663134988802710268e+00
2.096706027401584460e-01 2.465302050476847029e+00
2.107111516368238291e-01 2.389119544963580921e+00
2.117517005334892122e-01 2.228062775187392930e+00
2.127922494301545953e-01 2.087822302429401589e+00
2.138327983268199783e-01 1.593477980627373114e+00
2.148733472234853614e-01 1.213629046902443775e+00
2.159138961201507445e-01 1.219324993567607152e+00
2.169544450168161276e-01 1.218470516134615877e+00
2.179949939134815107e-01 1.314994180451449779e+00
2.190355428101468938e-01 1.018295388269581991e+00
2.200760917068122768e-01 1.098728351090006328e+00
2.211166406034776599e-01 6.842314927463348795e-01
2.221571895001430430e-01 8.764859606103101441e-01
2.231977383968084261e-01 9.180168693000112512e-01
2.242382872934738092e-01 7.225677468207472032e-01
2.252788361901391923e-01 3.917299376495329000e-01
2.263193850868045753e-01 3.445546907481578103e-01
2.273599339834699584e-01 8.244945144254103297e-01
2.284004828801353415e-01 8.168546028611594068e-01
2.294410317768007246e-01 1.020395464205545721e+00
2.304815806734661077e-01 9.774130251383397194e-01
2.315221295701314908e-01 7.610025908851731913e-01
2.325626784667968738e-01 5.117160761530890056e-01
2.336032273634622569e-01 5.330395435422268235e-01
2.346437762601276400e-01 7.262891037294210150e-01
2.356843251567930231e-01 7.590274626186293006e-01
2.367248740534584062e-01 8.740319999791701377e-01
2.377654229501237892e-01 9.179019896796809519e-01
2.388059718467891723e-01 1.085996657279935107e+00
2.398465207434545554e-01 1.203871797785943443e+00
2.408870696401199385e-01 1.031272498190467957e+00
2.419276185367853216e-01 1.070197449829350944e+00
2.429681674334507047e-01 1.085891188703772769e+00
2.440087163301160877e-01 1.182296755965008828e+00
2.450492652267814708e-01 1.359724859424922272e+00
2.460898141234468539e-01 1.413702520243834471e+00
2.471303630201122370e-01 1.499419424679704349e+00
2.481709119167776201e-01 1.397685002038546287e+00
2.492114608134430032e-01 1.309317073021052380e+00
2.502520097101083585e-01 1.509185851081600305e+00
2.512925586067737416e-01 1.636391013522878524e+00
2.523331075034391247e-01 1.652410215021237860e+00
2.533736564001045077e-01 1.462526236181446393e+00
2.544142052967698908e-01 1.572446682350310709e+00
2.554547541934352739e-01 1.685621205605862372e+00
2.564953030901006570e-01 1.842750664288558937e+00
2.575358519867660401e-01 1.700739756249287638e+00
2.585764008834314231e-01 1.747809416296881579e+00
2.596169497800968062e-01 2.065147785281361337e+00
2.606574986767621893e-01 2.370858224352215160e+00
2.616980475734275724e-01 2.083088340153274487e+00
2.627385964700929555e-01 2.064284542005744072e+00
2.637791453667583386e-01 2.099445387559352838e+00
2.648196942634237216e-01 1.831424513564169132e+00
2.658602431600891047e-01 1.731036880482704987e+00
2.669007920567544878e-01 1.875449844763906526e+00
2.679413409534198709e-01 1.973200636755333193e+00
2.689818898500852540e-01 2.416801853537236866e+00
2.700224387467506371e-01 2.210440641243472726e+00
2.710629876434160201e-01 1.885031108438653291e+00
2.721035365400814032e-01 1.848671500426188885e+00
2.731440854367467863e-01 1.776068240998252890e+00
2.741846343334121694e-01 1.672476296886532765e+00
2.752251832300775525e-01 1.801516471972004041e+00
2.762657321267429356e-01 1.790421440592787405e+00
2.773062810234083186e-01 1.540645008939524274e+00
2.783468299200737017e-01 1.544200438691074595e+00
2.793873788167390848e-01 1.365963854379202758e+00
2.804279277134044679e-01 1.550467237940345910e+00
2.814684766100698510e-01 1.764492067588147250e+00
2.825090255067352341e-01 1.529959370895266346e+00
2.835495744034006171e-01 1.467311698575741730e+00
2.845901233000660002e-01 1.486880465876463830e+00
2.856306721967313833e-01 1.463312923293255352e+00
2.866712210933967664e-01 1.620969698687218852e+00
2.877117699900621495e-01 1.650730746742876676e+00
2.887523188867275326e-01 1.394247646879005487e+00
2.897928677833929156e-01 1.049863514749688420e+00
2.908334166800582987e-01 1.131152818895952095e+00
2.918739655767236818e-01 1.023158317036088505e+00
2.929145144733890649e-01 9.015424364358359810e-01
2.939550633700544480e-01 9.911777862144788287e-01
2.949956122667198311e-01 1.110111699847838196e+00
2.960361611633852141e-01 9.241882196333151001e-01
2.970767100600505972e-01 9.050812319013132878e-01
2.981172589567159803e-01 9.146619763477197296e-01
2.991578078533813634e-01 8.121096301674910478e-01
3.001983567500468020e-01 8.176320256661497865e-01
3.012389056467121851e-01 7.382471083738373352e-01
3.022794545433775681e-01 8.319903620868203120e-01
3.033200034400429512e-01 6.996319571742866117e-01
3.043605523367083343e-01 6.640547458513097467e-01
3.054011012333737174e-01 5.843828859756996508e-01
3.064416501300391005e-01 6.529256394766917992e-01
3.074821990267044836e-01 7.246704432829815801e-01
3.085227479233698666e-01 7.405035933280785798e-01
3.095632968200352497e-01 5.296216021198141277e-01
3.106038457167006328e-01 5.223487571698903764e-01
3.116443946133660159e-01 5.467269421128087004e-01
3.126849435100313990e-01 5.384826715311206158e-01
3.137254924066967821e-01 3.944085906573242539e-01
3.147660413033621651e-01 3.899666085313313602e-01
3.158065902000275482e-01 3.219989090088155592e-01
3.168471390966929313e-01 2.888148860118242567e-01
3.178876879933583144e-01 1.782279311717189785e-01
3.189282368900236975e-01 2.577601744675135365e-01
3.199687857866890806e-01 0.000000000000000000e+00
3.210093346833544636e-01 4.837043067251300954e-02
3.220498835800198467e-01 4.936942915166042667e-01
3.230904324766852298e-01 4.385206916004200650e-01
3.241309813733506129e-01 5.392211217996418782e-01
3.251715302700159960e-01 4.125412417635665463e-01
3.262120791666813790e-01 9.654564893561001782e-02
3.272526280633467621e-01 4.277045745850749370e-01
3.282931769600121452e-01 3.807509028575708498e-01
3.293337258566775283e-01 3.927777824519580463e-01
3.303742747533429114e-01 5.842184185434859955e-01
3.314148236500082945e-01 4.714852069146431290e-01
3.324553725466736775e-01 4.368995190866229450e-01
3.334959214433390606e-01 6.811780921292225344e-01
3.345364703400044437e-01 8.413263257253404959e-01
3.355770192366698268e-01 5.890944735789283015e-01
3.366175681333352099e-01 4.706026348600858000e-01
3.376581170300005930e-01 6.172521266912447402e-01
3.386986659266659760e-01 4.984712905687835871e-01
3.397392148233313591e-01 4.979778890186388196e-01
3.407797637199967422e-01 6.534656369033982060e-01
3.418203126166621253e-01 7.617578294071485345e-01
3.428608615133275084e-01 6.559996237045062628e-01
3.439014104099928915e-01 7.034353045820118666e-01
3.449419593066582745e-01 6.898333446081998943e-01
3.459825082033236576e-01 5.977920010895836356e-01
3.470230570999890407e-01 8.288400543002261145e-01
3.480636059966544238e-01 7.501556792536483442e-01
3.491041548933198069e-01 6.512384968628808224e-01
3.501447037899851900e-01 5.909868253683256967e-01
3.511852526866505730e-01 4.746208123858579597e-01
3.522258015833159561e-01 6.271489464353976473e-01
3.532663504799813392e-01 7.485377824315655459e-01
3.543068993766467223e-01 7.334386059654462997e-01
3.553474482733121054e-01 6.801138982360974694e-01
3.563879971699774885e-01 1.065006457381890925e+00
3.574285460666428715e-01 8.305474380380140076e-01
3.584690949633082546e-01 6.012118334582332579e-01
3.595096438599736377e-01 6.026713456115544432e-01
3.605501927566390208e-01 6.783742047242498074e-01
3.615907416533044039e-01 6.533148618927064888e-01
3.626312905499697870e-01 6.320353361719810437e-01
3.636718394466351700e-01 5.262828340941609895e-01
3.647123883433005531e-01 5.869385230213737259e-01
3.657529372399659362e-01 8.662569260977583951e-01
3.667934861366313193e-01 8.744621400292267310e-01
3.678340350332967024e-01 6.552265214118975223e-01
3.688745839299620854e-01 6.641064334638357991e-01
3.699151328266274685e-01 5.787136261187981745e-01
3.709556817232928516e-01 5.954417605605542008e-01
3.719962306199582347e-01 7.716439486610511267e-01
3.730367795166236178e-01 7.759694482652257363e-01
3.740773284132890009e-01 5.263300954015157629e-01
3.751178773099543839e-01 5.602263019527562449e-01
3.761584262066197670e-01 5.622446389220634444e-01
3.771989751032851501e-01 7.811485022251076771e-01
3.782395239999505332e-01 6.994191471561954643e-01
3.792800728966159163e-01 5.279546570791922022e-01
3.803206217932812994e-01 5.371622458151250612e-01
3.813611706899466824e-01 6.983059142862408919e-01
3.824017195866120655e-01 5.331227672549978536e-01
3.834422684832774486e-01 5.092430926658302326e-01
3.844828173799428317e-01 1.422147897402332717e-01
3.855233662766082148e-01 4.208346111980567628e-01
3.865639151732735979e-01 6.574607412910431492e-01
3.876044640699389809e-01 7.311796563174439711e-01
3.886450129666043640e-01 6.066270433229270509e-01
3.896855618632697471e-01 5.470468707106519446e-01
3.907261107599351302e-01 4.903842173699963780e-01
3.917666596566005133e-01 5.043940061696119415e-01
3.928072085532658964e-01 5.497320368193889806e-01
3.938477574499312794e-01 3.293805210731513000e-01
3.948883063465966625e-01 5.294821459920164841e-01
3.959288552432620456e-01 5.057135576913580621e-01
3.969694041399274287e-01 5.523033972110908962e-01
3.980099530365928118e-01 4.653087855566191422e-01
3.990505019332581949e-01 2.606166351717540408e-01
4.000910508299235779e-01 3.179023744720836930e-01
4.011315997265889610e-01 3.191396347047472659e-01
4.021721486232543441e-01 3.317605885817478395e-01
4.032126975199197272e-01 4.824849912141218056e-01
4.042532464165851103e-01 5.384548315112702710e-01
4.052937953132504934e-01 6.100997527673470699e-01
4.063343442099158764e-01 5.170618333930256938e-01
4.073748931065812595e-01 5.568662895215652497e-01
4.084154420032466426e-01 3.461602249923103614e-01
4.094559908999120257e-01 4.640320493888445696e-01
4.104965397965774088e-01 6.084723939764344891e-01
4.115370886932427918e-01 5.454097949799994183e-01
4.125776375899081749e-01 6.608377228183641705e-01
4.136181864865735580e-01 3.913856711059864324e-01
4.146587353832389411e-01 2.452185987028130398e-01
4.156992842799043242e-01 2.166112525499386265e-01
4.167398331765697073e-01 3.306998201543542848e-01
4.177803820732350903e-01 2.470183057565158435e-01
4.188209309699004734e-01 8.928371851738958753e-02
4.198614798665658565e-01 2.622111748699218481e-01
4.209020287632312396e-01 3.037685923473318894e-01
4.219425776598966227e-01 3.625334521321548209e-01
4.229831265565620058e-01 4.221752379705598912e-01
4.240236754532273888e-01 5.355200777539579349e-01
4.250642243498927719e-01 5.761991492814999560e-01
4.261047732465581550e-01 7.163468553609604328e-01
4.271453221432235381e-01 6.726420521088414262e-01
4.281858710398889212e-01 5.358706518986089407e-01
4.292264199365543043e-01 5.415006603741474578e-01
4.302669688332196873e-01 5.423228296607156551e-01
4.313075177298850704e-01 5.349768665558478631e-01
4.323480666265504535e-01 3.951311740013920826e-01
4.333886155232158366e-01 3.380173134805382062e-01
4.344291644198812197e-01 3.709147981517766368e-01
