# q (1/Angstrom), Intensity (arb)
2.029070354705860696e-02 1.298448736323952062e+03
2.133125244372399004e-02 1.287469515620380889e+03
2.237180134038937659e-02 1.285403725381300774e+03
2.341235023705475968e-02 1.281229581290245960e+03
2.445289913372014276e-02 1.267145157303876658e+03
2.549344803038552584e-02 1.256998878557037642e+03
2.653399692705091240e-02 1.245274577070187661e+03
2.757454582371629548e-02 1.234926509036879452e+03
2.861509472038167856e-02 1.222430628484879435e+03
2.965564361704706164e-02 1.205334299614527708e+03
3.069619251371244473e-02 1.189613304808680823e+03
3.173674141037782781e-02 1.175245713686370209e+03
3.277729030704321089e-02 1.157109876147855630e+03
3.381783920370859398e-02 1.135555039144807552e+03
3.485838810037397706e-02 1.116170906819683523e+03
3.589893699703936014e-02 1.099105766692432326e+03
3.693948589370474322e-02 1.082494662950232396e+03
3.798003479037012631e-02 1.059045415421212965e+03
3.902058368703550939e-02 1.039159664374263002e+03
4.006113258370089247e-02 1.023284092176976174e+03
4.110168148036627556e-02 1.001220196550501555e+03
4.214223037703165864e-02 9.807488912744762501e+02
4.318277927369704866e-02 9.616015332553685084e+02
4.422332817036243174e-02 9.394833715963809482e+02
4.526387706702781483e-02 9.166845957499881479e+02
4.630442596369319791e-02 8.959542686094467854e+02
4.734497486035858099e-02 8.746491468486171925e+02
4.838552375702396408e-02 8.536396723806561795e+02
4.942607265368934716e-02 8.321202298129556993e+02
5.046662155035473024e-02 8.133110287455806429e+02
5.150717044702011332e-02 7.934559323296957700e+02
5.254771934368549641e-02 7.660600248985734879e+02
5.358826824035087949e-02 7.457414435963262349e+02
5.462881713701626257e-02 7.259843153633787551e+02
5.566936603368164566e-02 7.028937634479955250e+02
5.670991493034702874e-02 6.804410932644299237e+02
5.775046382701241182e-02 6.604911215419581367e+02
5.879101272367779490e-02 6.415509162134716235e+02
5.983156162034317799e-02 6.220069118714704928e+02
6.087211051700856107e-02 6.021254504895669015e+02
6.191265941367394415e-02 5.809745050670103410e+02
6.295320831033933417e-02 5.595513133843276137e+02
6.399375720700471726e-02 5.394848048129957760e+02
6.503430610367010034e-02 5.227225685623942582e+02
6.607485500033548342e-02 5.013207403978233287e+02
6.711540389700086651e-02 4.819750820034698791e+02
6.815595279366624959e-02 4.655907936086411496e+02
6.919650169033163267e-02 4.472197627440194196e+02
7.023705058699701576e-02 4.306057792440778940e+02
7.127759948366239884e-02 4.130505889873518299e+02
7.231814838032778192e-02 3.959066129070611169e+02
7.335869727699316500e-02 3.782621443958997247e+02
7.439924617365854809e-02 3.612456696776554850e+02
7.543979507032393117e-02 3.453182010994335087e+02
7.648034396698931425e-02 3.294079549977010970e+02
7.752089286365469734e-02 3.143130980871962947e+02
7.856144176032008042e-02 3.000975735264178184e+02
7.960199065698546350e-02 2.862574775461234822e+02
8.064253955365084658e-02 2.718351194752556808e+02
8.168308845031622967e-02 2.573417328276123612e+02
8.272363734698161275e-02 2.450792561634692106e+02
8.376418624364699583e-02 2.312881405908304373e+02
8.480473514031239279e-02 2.192270106562421574e+02
8.584528403697777588e-02 2.075368858260588638e+02
8.688583293364315896e-02 1.957791677108758108e+02
8.792638183030854204e-02 1.837816471420913444e+02
8.896693072697392513e-02 1.728299304485651078e+02
9.000747962363930821e-02 1.629956250135983851e+02
9.104802852030469129e-02 1.532147503884010575e+02
9.208857741697007437e-02 1.430808234107634291e+02
9.312912631363545746e-02 1.336774179500896764e+02
9.416967521030084054e-02 1.243555161912765357e+02
9.521022410696622362e-02 1.160837790471507276e+02
9.625077300363160671e-02 1.090836490516100810e+02
9.729132190029698979e-02 1.014764273276560260e+02
9.833187079696237287e-02 9.362397873486673916e+01
9.937241969362775595e-02 8.613259746430642849e+01
1.004129685902931390e-01 7.943026265791444018e+01
1.014535174869585221e-01 7.346054060051562828e+01
1.024940663836239052e-01 6.779279070882151359e+01
1.035346152802892883e-01 6.165605027404587446e+01
1.045751641769546714e-01 5.643414616972138020e+01
1.056157130736200545e-01 5.157009513037530013e+01
1.066562619702854375e-01 4.657057275064983060e+01
1.076968108669508206e-01 4.249504385877254009e+01
1.087373597636162037e-01 3.891464494676256436e+01
1.097779086602815868e-01 3.466242804629536778e+01
1.108184575569469699e-01 3.025240510703745400e+01
1.118590064536123529e-01 2.740978005811106755e+01
1.128995553502777360e-01 2.430379701635962419e+01
1.139401042469431191e-01 2.183192536224445490e+01
1.149806531436085022e-01 1.945309315472515976e+01
1.160212020402738853e-01 1.713339412440883081e+01
1.170617509369392684e-01 1.484744606143748769e+01
1.181022998336046514e-01 1.313333280161565852e+01
1.191428487302700345e-01 1.153956952344100273e+01
1.201833976269354176e-01 9.598743512659666521e+00
1.212239465236008007e-01 8.309101283125187365e+00
1.222644954202661838e-01 7.027147929315972874e+00
1.233050443169315669e-01 5.800064901289367469e+00
1.243455932135969499e-01 4.987456803727617682e+00
1.253861421102623330e-01 4.234750444831767879e+00
1.264266910069277161e-01 3.577151871623605928e+00
1.274672399035930992e-01 2.757491313277213862e+00
1.285077888002584823e-01 2.433475787584072236e+00
1.295483376969238654e-01 2.070282294793152289e+00
1.305888865935892484e-01 1.494416929120532700e+00
1.316294354902546315e-01 1.453251580320404912e+00
1.326699843869200146e-01 1.452056342726031346e+00
1.337105332835853977e-01 1.363763222357526672e+00
1.347510821802507808e-01 1.377847685870236205e+00
1.357916310769161639e-01 1.471793843097529475e+00
1.368321799735815469e-01 1.557564461688372148e+00
1.378727288702469300e-01 2.135319367898425469e+00
1.389132777669123131e-01 2.421229112521523064e+00
1.399538266635776962e-01 2.390511273130165648e+00
1.409943755602430793e-01 2.939433435720559373e+00
1.420349244569084624e-01 3.234774068000810132e+00
1.430754733535738454e-01 3.781517778323618018e+00
1.441160222502392285e-01 3.876114912655268085e+00
1.451565711469046116e-01 4.394326962092293343e+00
1.461971200435699947e-01 4.984256773799280893e+00
1.472376689402353778e-01 5.180058383304576353e+00
1.482782178369007609e-01 5.515551535175035269e+00
1.493187667335661439e-01 5.823171464405966447e+00
1.503593156302315270e-01 6.568386876788849804e+00
1.513998645268969101e-01 6.970196118044299283e+00
1.524404134235622932e-01 7.000089944269255682e+00
1.534809623202276763e-01 7.421822310909256259e+00
1.545215112168930593e-01 7.863321203273734739e+00
1.555620601135584424e-01 8.099966517207533911e+00
1.566026090102238255e-01 8.105182783659628853e+00
1.576431579068892086e-01 8.228756662385620757e+00
1.586837068035545917e-01 8.725423091946865384e+00
1.597242557002199748e-01 8.895652461298681146e+00
1.607648045968853578e-01 9.388192021601632575e+00
1.618053534935507409e-01 9.959327291098176715e+00
1.628459023902161240e-01 9.473243897882184683e+00
1.638864512868815071e-01 9.488098020242034636e+00
1.649270001835468902e-01 9.658891238664146783e+00
1.659675490802122733e-01 9.545621851719623407e+00
1.670080979768776563e-01 9.469707796524076571e+00
1.680486468735430672e-01 9.657560144390224366e+00
1.690891957702084503e-01 1.010197905551675746e+01
1.701297446668738333e-01 9.896096619224785229e+00
1.711702935635392164e-01 9.777596359968029560e+00
1.722108424602045995e-01 9.562351482276518766e+00
1.732513913568699826e-01 9.915806006792919902e+00
1.742919402535353657e-01 9.872828122829105268e+00
1.753324891502007488e-01 9.449945688147465717e+00
1.763730380468661318e-01 9.252945578993418962e+00
1.774135869435315149e-01 9.187715626682212644e+00
1.784541358401968980e-01 9.182163120227869513e+00
1.794946847368622811e-01 8.914401258567686170e+00
1.805352336335276642e-01 8.607839046724578225e+00
1.815757825301930473e-01 8.644877602200203626e+00
1.826163314268584303e-01 8.476179917090824745e+00
1.836568803235238134e-01 8.056142274962759586e+00
1.846974292201891965e-01 8.020255680496404693e+00
1.857379781168545796e-01 7.499795268128579551e+00
1.867785270135199627e-01 7.354073018408243456e+00
1.878190759101853458e-01 7.199477834380388686e+00
1.888596248068507288e-01 6.840916938204351538e+00
1.899001737035161119e-01 6.525199681093965864e+00
1.909407226001814950e-01 6.240248613802343414e+00
1.919812714968468781e-01 6.040898084317817052e+00
1.930218203935122612e-01 5.961918707711276966e+00
1.940623692901776443e-01 5.400871651217613589e+00
1.951029181868430273e-01 5.166421972701243703e+00
1.961434670835084104e-01 4.667807375680069981e+00
1.971840159801737935e-01 4.082755035329682869e+00
1.982245648768391766e-01 3.834242089277232424e+00
1.992651137735045597e-01 3.614591289727016488e+00
2.003056626701699428e-01 3.169784712491825474e+00
2.013462115668353813e-01 3.512694072072441998e+00
2.023867604635007644e-01 3.265227205047153802e+00
2.034273093601661475e-01 2.892219140202740846e+00
2.044678582568315306e-01 2.645265146121246858e+00
2.055084071534969137e-01 2.610068525896870995e+00
2.065489560501622968e-01 2.485375331992230485e+00
2.075895049468276798e-01 2.220102080371646025e+00
2.086300538434930629e-01 1.833595823411648951e+00
2.096706027401584460e-01 1.781588711666302061e+00
2.107111516368238291e-01 1.499082749724578889e+00
2.117517005334892122e-01 1.105501541866772186e+00
2.127922494301545953e-01 9.539337297755992040e-01
2.138327983268199783e-01 1.231759243752776456e+00
2.148733472234853614e-01 1.023889005942429264e+00
2.159138961201507445e-01 9.288880021719307933e-01
2.169544450168161276e-01 9.250142273318431307e-01
2.179949939134815107e-01 6.907014716090174034e-01
2.190355428101468938e-01 6.645522359963322856e-01
2.200760917068122768e-01 6.748947227435238005e-01
2.211166406034776599e-01 4.621520393291440598e-01
2.221571895001430430e-01 4.617956858165044309e-01
2.231977383968084261e-01 3.585609412129535656e-01
2.242382872934738092e-01 3.467095154573129889e-01
2.252788361901391923e-01 5.100263878496456016e-01
2.263193850868045753e-01 6.900525046924919081e-01
2.273599339834699584e-01 3.992240865446561315e-01
2.284004828801353415e-01 2.718868490371662006e-01
2.294410317768007246e-01 2.870622338373713944e-01
2.304815806734661077e-01 2.362745280804681158e-01
2.315221295701314908e-01 1.763020579058185433e-01
2.325626784667968738e-01 3.580778193045901503e-01
2.336032273634622569e-01 3.452651712143790519e-01
2.346437762601276400e-01 3.374464929305318606e-01
2.356843251567930231e-01 4.904478779457974724e-01
2.367248740534584062e-01 3.224627324409361506e-01
2.377654229501237892e-01 4.087329094938354501e-01
2.388059718467891723e-01 4.671584251534959265e-01
2.398465207434545554e-01 4.633256377375047919e-01
2.408870696401199385e-01 4.762140610315093170e-01
2.419276185367853216e-01 5.456143306271030724e-01
2.429681674334507047e-01 6.110447319981169301e-01
2.440087163301160877e-01 8.133809605665938136e-01
2.450492652267814708e-01 1.072960038471194366e+00
2.460898141234468539e-01 1.062994852715302585e+00
2.471303630201122370e-01 1.195645909120838013e+00
2.481709119167776201e-01 1.261901549721667237e+00
2.492114608134430032e-01 1.109311100028147479e+00
2.502520097101083585e-01 1.070776126077589652e+00
2.512925586067737416e-01 1.067785457830716211e+00
2.523331075034391247e-01 9.925627160789396441e-01
2.533736564001045077e-01 1.195728912542197264e+00
2.544142052967698908e-01 1.464465412415307810e+00
2.554547541934352739e-01 1.373415490618317136e+00
2.564953030901006570e-01 1.358895356861740567e+00
2.575358519867660401e-01 1.603836738355870040e+00
2.585764008834314231e-01 1.852275600583674020e+00
2.596169497800968062e-01 1.299436061087334338e+00
2.606574986767621893e-01 1.186855463001368349e+00
2.616980475734275724e-01 1.528375266351400086e+00
2.627385964700929555e-01 1.620881913311265521e+00
2.637791453667583386e-01 1.492206971552931805e+00
2.648196942634237216e-01 1.376462974180018506e+00
2.658602431600891047e-01 1.666013049952361769e+00
2.669007920567544878e-01 1.622052801783524956e+00
2.679413409534198709e-01 1.639547073410280831e+00
2.689818898500852540e-01 1.565239048812390621e+00
2.700224387467506371e-01 1.580068973122703113e+00
2.710629876434160201e-01 1.401599081019796245e+00
2.721035365400814032e-01 1.638115055677918264e+00
2.731440854367467863e-01 1.871587782705692149e+00
2.741846343334121694e-01 1.523317154529713946e+00
2.752251832300775525e-01 1.480585444895062608e+00
2.762657321267429356e-01 1.564856409890776234e+00
2.773062810234083186e-01 1.415837614172868797e+00
2.783468299200737017e-01 1.237101663802306462e+00
2.793873788167390848e-01 1.290808939509489051e+00
2.804279277134044679e-01 1.189289152464048982e+00
2.814684766100698510e-01 1.373031912856188086e+00
2.825090255067352341e-01 1.407717624599662543e+00
2.835495744034006171e-01 1.085523413008377958e+00
2.845901233000660002e-01 8.412498555664029709e-01
2.856306721967313833e-01 8.998331599456754759e-01
2.866712210933967664e-01 7.695949707034728249e-01
2.877117699900621495e-01 1.011579990996821721e+00
2.887523188867275326e-01 8.483773515610693039e-01
2.897928677833929156e-01 8.704032005540796035e-01
2.908334166800582987e-01 9.822279315656672338e-01
2.918739655767236818e-01 8.804278525122732901e-01
2.929145144733890649e-01 8.054656144439213961e-01
2.939550633700544480e-01 8.639836981818298511e-01
2.949956122667198311e-01 7.897462119672375991e-01
2.960361611633852141e-01 7.667321147287111671e-01
2.970767100600505972e-01 8.484139330592164185e-01
2.981172589567159803e-01 7.801660815182209774e-01
2.991578078533813634e-01 4.154670528417447883e-01
3.001983567500468020e-01 4.575222024571274915e-01
3.012389056467121851e-01 5.133172101987106828e-01
3.022794545433775681e-01 5.408507476478554565e-01
3.033200034400429512e-01 4.814501888441888866e-01
3.043605523367083343e-01 2.354271388368260887e-01
3.054011012333737174e-01 3.603374275418040895e-01
3.064416501300391005e-01 3.733380749446375546e-01
3.074821990267044836e-01 2.535582324334981763e-01
3.085227479233698666e-01 5.213973847600001932e-01
3.095632968200352497e-01 5.418535201681038416e-01
3.106038457167006328e-01 6.666582570784385098e-02
3.116443946133660159e-01 2.689784636683434371e-01
3.126849435100313990e-01 4.353801490814959152e-01
3.137254924066967821e-01 4.015427218689673339e-01
3.147660413033621651e-01 4.199927097170217394e-01
3.158065902000275482e-01 3.444001651646644291e-01
3.168471390966929313e-01 2.247968786817260423e-01
3.178876879933583144e-01 2.977690520377009875e-01
3.189282368900236975e-01 2.659528793763819010e-01
3.199687857866890806e-01 4.747186904163420706e-01
3.210093346833544636e-01 6.186720097601394741e-01
3.220498835800198467e-01 4.864093793543453614e-01
3.230904324766852298e-01 4.870002218932008020e-01
3.241309813733506129e-01 6.212144439512989891e-01
3.251715302700159960e-01 4.021970415434310553e-01
3.262120791666813790e-01 2.893269532444371350e-01
3.272526280633467621e-01 1.348037846366416659e-01
3.282931769600121452e-01 1.260559209523464119e-01
3.293337258566775283e-01 3.270321836097878077e-01
3.303742747533429114e-01 3.033829745836129632e-01
3.314148236500082945e-01 1.236346549050573174e-01
3.324553725466736775e-01 1.643880999939995036e-01
3.334959214433390606e-01 3.311384580666612010e-01
3.345364703400044437e-01 3.507083092239966504e-01
3.355770192366698268e-01 4.244327946638790650e-01
3.366175681333352099e-01 5.470767148976065641e-01
3.376581170300005930e-01 3.557173374031101787e-01
3.386986659266659760e-01 3.481003294802818004e-01
3.397392148233313591e-01 4.416716642854723318e-01
3.407797637199967422e-01 4.349281378691358668e-01
3.418203126166621253e-01 5.810568624817094019e-01
3.428608615133275084e-01 6.415771640833760614e-01
3.439014104099928915e-01 4.945877720731779448e-01
3.449419593066582745e-01 4.337766802776918951e-01
3.459825082033236576e-01 5.563326607628766851e-01
3.470230570999890407e-01 4.928223191754419474e-01
3.480636059966544238e-01 3.082740852142400456e-01
3.491041548933198069e-01 4.474448747350194822e-01
3.501447037899851900e-01 7.102222443980075184e-01
3.511852526866505730e-01 7.688643072724374861e-01
3.522258015833159561e-01 6.039260558465997519e-01
3.532663504799813392e-01 4.653382853734662206e-01
3.543068993766467223e-01 2.019132111399422058e-01
3.553474482733121054e-01 1.993964792888931470e-01
3.563879971699774885e-01 2.799606973647641439e-01
3.574285460666428715e-01 4.393463496894689513e-01
3.584690949633082546e-01 3.840010397739952452e-01
3.595096438599736377e-01 3.456771158633600294e-01
3.605501927566390208e-01 3.736810016362142051e-01
3.615907416533044039e-01 5.478267060216381878e-01
3.626312905499697870e-01 6.042977528278932198e-01
3.636718394466351700e-01 6.791541699627678952e-01
3.647123883433005531e-01 8.101316920051502279e-01
3.657529372399659362e-01 6.973499370497258099e-01
3.667934861366313193e-01 6.284328842756359279e-01
3.678340350332967024e-01 6.789088433027323788e-01
3.688745839299620854e-01 7.179036830713094730e-01
3.699151328266274685e-01 6.980539355747765740e-01
3.709556817232928516e-01 5.559487417209147964e-01
3.719962306199582347e-01 7.078476133663649250e-01
3.730367795166236178e-01 5.689969690576859307e-01
3.740773284132890009e-01 3.657051276604974532e-01
3.751178773099543839e-01 4.642925294377491241e-01
3.761584262066197670e-01 5.516511269468331591e-01
3.771989751032851501e-01 4.949049943877845692e-01
3.782395239999505332e-01 3.910765929699628884e-01
3.792800728966159163e-01 3.975343070479269159e-01
3.803206217932812994e-01 2.799239738390078003e-01
3.813611706899466824e-01 2.507403742996245910e-01
3.824017195866120655e-01 3.309746491191454254e-01
3.834422684832774486e-01 1.014720212115101106e-01
3.844828173799428317e-01 3.045214296208982319e-01
3.855233662766082148e-01 4.872151870474681346e-01
3.865639151732735979e-01 5.356397555485585826e-01
3.876044640699389809e-01 7.181247433544513115e-01
3.886450129666043640e-01 6.787069013209894308e-01
3.896855618632697471e-01 5.831606650646072865e-01
3.907261107599351302e-01 3.211758547027692146e-01
3.917666596566005133e-01 3.194360625307872681e-01
3.928072085532658964e-01 6.852739916182670754e-02
3.938477574499312794e-01 1.345320857075513743e-01
3.948883063465966625e-01 2.735571494723032515e-01
3.959288552432620456e-01 1.914131553227846894e-01
3.969694041399274287e-01 2.546362519815339454e-01
3.980099530365928118e-01 2.795700201339457180e-01
3.990505019332581949e-01 4.244576791296914564e-01
4.000910508299235779e-01 4.292438437088534897e-01
4.011315997265889610e-01 2.246056015277844153e-01
4.021721486232543441e-01 1.612363388298980738e-01
4.032126975199197272e-01 2.127735858621910836e-01
4.042532464165851103e-01 2.107760490490413474e-01
4.052937953132504934e-01 3.788714701955946396e-01
4.063343442099158764e-01 4.253555454014055215e-01
4.073748931065812595e-01 3.659180318199410920e-01
4.084154420032466426e-01 4.341513191315584663e-01
4.094559908999120257e-01 4.754996682906096339e-01
4.104965397965774088e-01 3.703049997076384159e-01
4.115370886932427918e-01 1.358877275567529352e-01
4.125776375899081749e-01 2.846950467219322434e-01
4.136181864865735580e-01 7.853380577008195473e-02
4.146587353832389411e-01 0.000000000000000000e+00
4.156992842799043242e-01 4.372094655622049686e-02
4.167398331765697073e-01 1.643858587382105441e-01
4.177803820732350903e-01 7.170854160609962946e-02
4.188209309699004734e-01 1.438231727060887977e-01
4.198614798665658565e-01 2.928338005709072434e-01
4.209020287632312396e-01 4.031154360430910799e-01
4.219425776598966227e-01 3.083232725975619815e-01
4.229831265565620058e-01 2.084592864381171751e-01
4.240236754532273888e-01 2.136594953783692574e-01
4.250642243498927719e-01 1.018631973928521006e-01
4.261047732465581550e-01 2.231538301672770785e-01
4.271453221432235381e-01 3.127724596028222948e-01
4.281858710398889212e-01 3.084271731742944667e-01
4.292264199365543043e-01 4.596044339640137366e-01
4.302669688332196873e-01 4.219770995222376087e-01
4.313075177298850704e-01 3.155167889031034179e-01
4.323480666265504535e-01 4.130063061156299398e-01
4.333886155232158366e-01 4.475486854025554351e-01
4.344291644198812197e-01 3.055888265293198458e-01
