# q (1/Angstrom), Intensity (arb)
2.029070354705860696e-02 1.331621818257677205e+03
2.133125244372399004e-02 1.331714807285534334e+03
2.237180134038937659e-02 1.328337875920657325e+03
2.341235023705475968e-02 1.316392556784352337e+03
2.445289913372014276e-02 1.301955659079203542e+03
2.549344803038552584e-02 1.293417888754957630e+03
2.653399692705091240e-02 1.279302099138445328e+03
2.757454582371629548e-02 1.265754947870361093e+03
2.861509472038167856e-02 1.248690135985408688e+03
2.965564361704706164e-02 1.231627300485979731e+03
3.069619251371244473e-02 1.216570628651706556e+03
3.173674141037782781e-02 1.206237571952769258e+03
3.277729030704321089e-02 1.189086206022152055e+03
3.381783920370859398e-02 1.166801098963406730e+03
3.485838810037397706e-02 1.144716113981334047e+03
3.589893699703936014e-02 1.128098495144234676e+03
3.693948589370474322e-02 1.110538983557672509e+03
3.798003479037012631e-02 1.093666043640692578e+03
3.902058368703550939e-02 1.070488592995975978e+03
4.006113258370089247e-02 1.045569473063373380e+03
4.110168148036627556e-02 1.022686549248861752e+03
4.214223037703165864e-02 1.003986154960322324e+03
4.318277927369704866e-02 9.856265722037330761e+02
4.422332817036243174e-02 9.635849442474137732e+02
4.526387706702781483e-02 9.402938878015746695e+02
4.630442596369319791e-02 9.183167252056026655e+02
4.734497486035858099e-02 8.940552954480486960e+02
4.838552375702396408e-02 8.751579201749692629e+02
4.942607265368934716e-02 8.532287011306531213e+02
5.046662155035473024e-02 8.322733931299122787e+02
5.150717044702011332e-02 8.118724969695271056e+02
5.254771934368549641e-02 7.869318705289385889e+02
5.358826824035087949e-02 7.633762993251141324e+02
5.462881713701626257e-02 7.418349354493578858e+02
5.566936603368164566e-02 7.209044649341183231e+02
5.670991493034702874e-02 6.983144579630694579e+02
5.775046382701241182e-02 6.788469652085572079e+02
5.879101272367779490e-02 6.598279188358043257e+02
5.983156162034317799e-02 6.382039177319294367e+02
6.087211051700856107e-02 6.170475559714933524e+02
6.191265941367394415e-02 5.966356886444273186e+02
6.295320831033933417e-02 5.761004834160531800e+02
6.399375720700471726e-02 5.545942019578541249e+02
6.503430610367010034e-02 5.353113596278076329e+02
6.607485500033548342e-02 5.143640493885985734e+02
6.711540389700086651e-02 4.938920481987092330e+02
6.815595279366624959e-02 4.762437540254431383e+02
6.919650169033163267e-02 4.588723395443262802e+02
7.023705058699701576e-02 4.409962309509388660e+02
7.127759948366239884e-02 4.239767531147037971e+02
7.231814838032778192e-02 4.062922574182971402e+02
7.335869727699316500e-02 3.893781470136229927e+02
7.439924617365854809e-02 3.711987272808200942e+02
7.543979507032393117e-02 3.530807707730317020e+02
7.648034396698931425e-02 3.389888276637774425e+02
7.752089286365469734e-02 3.236786931289930749e+02
7.856144176032008042e-02 3.071443791678211142e+02
7.960199065698546350e-02 2.920494405780594889e+02
8.064253955365084658e-02 2.774802352643521317e+02
8.168308845031622967e-02 2.632401241242062042e+02
8.272363734698161275e-02 2.497202314188483001e+02
8.376418624364699583e-02 2.379570669260729403e+02
8.480473514031239279e-02 2.251718367748813421e+02
8.584528403697777588e-02 2.117145548896186540e+02
8.688583293364315896e-02 2.001003293003170711e+02
8.792638183030854204e-02 1.883979668525875013e+02
8.896693072697392513e-02 1.770749798674446254e+02
9.000747962363930821e-02 1.664432551536334017e+02
9.104802852030469129e-02 1.562111331970813808e+02
9.208857741697007437e-02 1.468356141883039356e+02
9.312912631363545746e-02 1.368020979643074213e+02
9.416967521030084054e-02 1.271149953695386614e+02
9.521022410696622362e-02 1.190623324467178747e+02
9.625077300363160671e-02 1.113751645585359853e+02
9.729132190029698979e-02 1.037372840771942037e+02
9.833187079696237287e-02 9.538713437051802657e+01
9.937241969362775595e-02 8.805457767495471444e+01
1.004129685902931390e-01 8.218900706138433065e+01
1.014535174869585221e-01 7.597403498131399147e+01
1.024940663836239052e-01 6.851076613566124252e+01
1.035346152802892883e-01 6.206227880479430326e+01
1.045751641769546714e-01 5.676330034613914677e+01
1.056157130736200545e-01 5.262450606773686701e+01
1.066562619702854375e-01 4.868178113335616075e+01
1.076968108669508206e-01 4.464237727659305932e+01
1.087373597636162037e-01 3.977528187649878788e+01
1.097779086602815868e-01 3.565433659620039464e+01
1.108184575569469699e-01 3.191444196803267630e+01
1.118590064536123529e-01 2.841991766077298820e+01
1.128995553502777360e-01 2.530066073928425396e+01
1.139401042469431191e-01 2.269863765245511189e+01
1.149806531436085022e-01 2.014153537944100236e+01
1.160212020402738853e-01 1.741414505387740519e+01
1.170617509369392684e-01 1.520455722216690475e+01
1.181022998336046514e-01 1.301786715343538958e+01
1.191428487302700345e-01 1.160204507453831724e+01
1.201833976269354176e-01 1.025887076163802902e+01
1.212239465236008007e-01 8.830946271690280014e+00
1.222644954202661838e-01 7.037188677196020592e+00
1.233050443169315669e-01 5.828711445203175856e+00
1.243455932135969499e-01 5.252041392322695401e+00
1.253861421102623330e-01 4.513971055289694334e+00
1.264266910069277161e-01 3.698339506702204460e+00
1.274672399035930992e-01 3.084414413439453995e+00
1.285077888002584823e-01 2.696617079628275349e+00
1.295483376969238654e-01 2.242664355454706993e+00
1.305888865935892484e-01 1.959473250544199630e+00
1.316294354902546315e-01 2.091803010565627119e+00
1.326699843869200146e-01 1.503837099745410910e+00
1.337105332835853977e-01 1.313491534208154121e+00
1.347510821802507808e-01 1.490943528298309673e+00
1.357916310769161639e-01 2.108878058751805895e+00
1.368321799735815469e-01 2.238450560064194406e+00
1.378727288702469300e-01 2.876507245556716441e+00
1.389132777669123131e-01 2.968880483338963927e+00
1.399538266635776962e-01 2.520173350644910215e+00
1.409943755602430793e-01 2.993245733110413198e+00
1.420349244569084624e-01 3.667724138389303334e+00
1.430754733535738454e-01 4.390515996984419189e+00
1.441160222502392285e-01 4.396325335263107092e+00
1.451565711469046116e-01 4.901299154489876742e+00
1.461971200435699947e-01 5.034192222076065093e+00
1.472376689402353778e-01 5.634187788757714088e+00
1.482782178369007609e-01 6.323948505238000450e+00
1.493187667335661439e-01 6.373443738617282861e+00
1.503593156302315270e-01 6.424546502407686432e+00
1.513998645268969101e-01 7.005242647876464446e+00
1.524404134235622932e-01 7.323782555314885201e+00
1.534809623202276763e-01 7.921217332344561157e+00
1.545215112168930593e-01 8.211594920316535706e+00
1.555620601135584424e-01 8.533768069610502494e+00
1.566026090102238255e-01 9.005673070922185275e+00
1.576431579068892086e-01 9.058884748010818555e+00
1.586837068035545917e-01 9.177805243147247438e+00
1.597242557002199748e-01 9.396382400643631172e+00
1.607648045968853578e-01 9.522371191894208664e+00
1.618053534935507409e-01 9.613421744042561556e+00
1.628459023902161240e-01 9.828563265140260796e+00
1.638864512868815071e-01 1.016455090944378981e+01
1.649270001835468902e-01 1.001154328078386158e+01
1.659675490802122733e-01 1.034288885588708240e+01
1.670080979768776563e-01 1.024830408205688315e+01
1.680486468735430672e-01 1.024412868387176445e+01
1.690891957702084503e-01 1.056727447295061495e+01
1.701297446668738333e-01 1.044911618623472549e+01
1.711702935635392164e-01 1.040616027700346535e+01
1.722108424602045995e-01 1.035364250169912026e+01
1.732513913568699826e-01 9.996494893618368849e+00
1.742919402535353657e-01 9.838704921205192022e+00
1.753324891502007488e-01 9.786306674641814141e+00
1.763730380468661318e-01 9.641346429657140504e+00
1.774135869435315149e-01 9.774313937864491209e+00
1.784541358401968980e-01 9.701885505154884015e+00
1.794946847368622811e-01 9.333202452895861256e+00
1.805352336335276642e-01 9.091388246286790320e+00
1.815757825301930473e-01 9.124263151023725982e+00
1.826163314268584303e-01 8.601471869776759149e+00
1.836568803235238134e-01 8.401379796469413463e+00
1.846974292201891965e-01 8.084064764873581055e+00
1.857379781168545796e-01 7.718459245170926408e+00
1.867785270135199627e-01 7.282917797456356368e+00
1.878190759101853458e-01 7.013190182583585397e+00
1.888596248068507288e-01 6.810423169421618184e+00
1.899001737035161119e-01 6.610130937803042173e+00
1.909407226001814950e-01 6.521861652044620428e+00
1.919812714968468781e-01 5.997606554894389319e+00
1.930218203935122612e-01 5.768160121027854359e+00
1.940623692901776443e-01 5.524954404170799194e+00
1.951029181868430273e-01 5.399662093752766623e+00
1.961434670835084104e-01 4.906444861453756801e+00
1.971840159801737935e-01 4.833016720758145368e+00
1.982245648768391766e-01 4.619617403179972825e+00
1.992651137735045597e-01 4.448310930483053482e+00
2.003056626701699428e-01 4.196524291381805938e+00
2.013462115668353813e-01 3.799292200649439621e+00
2.023867604635007644e-01 3.081776990491746915e+00
2.034273093601661475e-01 2.921255811940248748e+00
2.044678582568315306e-01 2.916515581052038897e+00
2.055084071534969137e-01 2.585958518666412687e+00
2.065489560501622968e-01 2.893751598996477270e+00
2.075895049468276798e-01 2.868121906793753340e+00
2.086300538434930629e-01 2.313531626777855621e+00
2.096706027401584460e-01 2.134991116598968119e+00
2.107111516368238291e-01 1.889204639950289533e+00
2.117517005334892122e-01 1.512726979092548163e+00
2.127922494301545953e-01 1.366853159567753551e+00
2.138327983268199783e-01 1.490943301023332168e+00
2.148733472234853614e-01 1.508272996790413600e+00
2.159138961201507445e-01 1.057453496884349420e+00
2.169544450168161276e-01 1.008849382250375015e+00
2.179949939134815107e-01 1.188596150735730106e+00
2.190355428101468938e-01 8.982422936135172620e-01
2.200760917068122768e-01 7.401315181607763805e-01
2.211166406034776599e-01 7.748373551106340074e-01
2.221571895001430430e-01 6.961411932038785721e-01
2.231977383968084261e-01 7.662786513045283243e-01
2.242382872934738092e-01 6.338151755736589621e-01
2.252788361901391923e-01 5.764078443177993449e-01
2.263193850868045753e-01 6.761625349318407530e-01
2.273599339834699584e-01 7.845856147712702011e-01
2.284004828801353415e-01 7.346502287243126261e-01
2.294410317768007246e-01 6.858869421207280936e-01
2.304815806734661077e-01 6.718016556072150536e-01
2.315221295701314908e-01 3.137230685770973082e-01
2.325626784667968738e-01 3.440414385770154126e-01
2.336032273634622569e-01 6.456342649877591100e-01
2.346437762601276400e-01 6.701205947452528733e-01
2.356843251567930231e-01 6.618989801477646040e-01
2.367248740534584062e-01 7.633110049249438589e-01
2.377654229501237892e-01 6.559439862325007198e-01
2.388059718467891723e-01 7.500768302507871965e-01
2.398465207434545554e-01 8.971134985796460626e-01
2.408870696401199385e-01 7.976521141803658566e-01
2.419276185367853216e-01 8.155501685119261879e-01
2.429681674334507047e-01 1.264643437599811904e+00
2.440087163301160877e-01 1.226909851196694490e+00
2.450492652267814708e-01 9.479257252445165705e-01
2.460898141234468539e-01 1.034187595331275134e+00
2.471303630201122370e-01 1.114221637841023238e+00
2.481709119167776201e-01 1.217651136439918957e+00
2.492114608134430032e-01 1.514598356450107985e+00
2.502520097101083585e-01 1.527641129378192630e+00
2.512925586067737416e-01 1.589378936571918643e+00
2.523331075034391247e-01 1.546342635488059614e+00
2.533736564001045077e-01 1.318132446204177910e+00
2.544142052967698908e-01 1.330415401766483541e+00
2.554547541934352739e-01 1.438167958687667891e+00
2.564953030901006570e-01 1.832092648677974722e+00
2.575358519867660401e-01 1.577953983805183924e+00
2.585764008834314231e-01 2.011171309813427399e+00
2.596169497800968062e-01 2.104780116290417169e+00
2.606574986767621893e-01 2.042087235651369070e+00
2.616980475734275724e-01 1.742233896288944095e+00
2.627385964700929555e-01 1.811379064348997758e+00
2.637791453667583386e-01 1.644285884255818786e+00
2.648196942634237216e-01 1.798004002973051740e+00
2.658602431600891047e-01 1.514145139777635762e+00
2.669007920567544878e-01 1.448060143066857819e+00
2.679413409534198709e-01 1.772118026784678335e+00
2.689818898500852540e-01 2.008555540651190796e+00
2.700224387467506371e-01 1.824516232373838420e+00
2.710629876434160201e-01 1.690907861398521561e+00
2.721035365400814032e-01 1.842058449383340957e+00
2.731440854367467863e-01 1.853992171704263114e+00
2.741846343334121694e-01 1.703832156993801306e+00
2.752251832300775525e-01 1.452325761950845617e+00
2.762657321267429356e-01 1.618819619136811383e+00
2.773062810234083186e-01 1.857391151349684577e+00
2.783468299200737017e-01 2.051996635469247821e+00
2.793873788167390848e-01 1.699074789758846293e+00
2.804279277134044679e-01 1.499654347049002467e+00
2.814684766100698510e-01 1.616338651034059382e+00
2.825090255067352341e-01 1.656163781045950856e+00
2.835495744034006171e-01 1.538129004272729361e+00
2.845901233000660002e-01 1.360909785446764886e+00
2.856306721967313833e-01 1.145463329005078634e+00
2.866712210933967664e-01 1.156080651444682417e+00
2.877117699900621495e-01 1.121707854325467935e+00
2.887523188867275326e-01 1.390273632944037274e+00
2.897928677833929156e-01 1.401826401512344944e+00
2.908334166800582987e-01 1.279539197524737659e+00
2.918739655767236818e-01 9.457464603455392194e-01
2.929145144733890649e-01 8.923014700691815904e-01
2.939550633700544480e-01 8.698693285455618707e-01
2.949956122667198311e-01 9.526420913948463465e-01
2.960361611633852141e-01 8.841175867775810104e-01
2.970767100600505972e-01 1.121361587931168913e+00
2.981172589567159803e-01 8.774185203379119002e-01
2.991578078533813634e-01 5.363198117579557334e-01
3.001983567500468020e-01 8.633560899828793822e-01
3.012389056467121851e-01 6.886482565617342289e-01
3.022794545433775681e-01 6.544514392183344853e-01
3.033200034400429512e-01 6.795606124225486155e-01
3.043605523367083343e-01 5.119145701160512374e-01
3.054011012333737174e-01 5.196387882370494538e-01
3.064416501300391005e-01 5.810602712828050187e-01
3.074821990267044836e-01 4.868734576592146368e-01
3.085227479233698666e-01 5.914084857024803910e-01
3.095632968200352497e-01 3.584619031667450884e-01
3.106038457167006328e-01 1.380334284600515105e-01
3.116443946133660159e-01 2.172498002476963563e-01
3.126849435100313990e-01 4.875105701286415183e-01
3.137254924066967821e-01 5.131088529292071598e-01
3.147660413033621651e-01 5.463128698465915534e-01
3.158065902000275482e-01 5.589707973238837724e-01
3.168471390966929313e-01 3.906582667216689231e-01
3.178876879933583144e-01 5.914193348217366974e-01
3.189282368900236975e-01 5.170259538532242516e-01
3.199687857866890806e-01 4.085857424403158689e-01
3.210093346833544636e-01 0.000000000000000000e+00
3.220498835800198467e-01 2.742626593019856784e-01
3.230904324766852298e-01 3.624103818474253558e-01
3.241309813733506129e-01 4.760954447270400181e-01
3.251715302700159960e-01 6.555211691505782312e-01
3.262120791666813790e-01 4.869978341593110827e-01
3.272526280633467621e-01 2.132039752374410568e-01
3.282931769600121452e-01 2.137637465727912911e-01
3.293337258566775283e-01 1.313445066992251498e-01
3.303742747533429114e-01 7.840032106566141579e-02
3.314148236500082945e-01 4.026928682347659105e-01
3.324553725466736775e-01 5.406920910449457551e-01
3.334959214433390606e-01 4.535470312033815787e-01
3.345364703400044437e-01 3.600541745647660719e-01
3.355770192366698268e-01 5.243478861932828750e-01
3.366175681333352099e-01 7.080444222548933908e-01
3.376581170300005930e-01 5.459446581486986361e-01
3.386986659266659760e-01 4.595473796517701714e-01
3.397392148233313591e-01 5.911893995986297057e-01
3.407797637199967422e-01 6.133548583479040417e-01
3.418203126166621253e-01 5.987996998826190520e-01
3.428608615133275084e-01 5.558864531895189032e-01
3.439014104099928915e-01 6.180382677530040780e-01
3.449419593066582745e-01 5.823440293801951384e-01
3.459825082033236576e-01 5.728657739136018279e-01
3.470230570999890407e-01 6.761705128001516130e-01
3.480636059966544238e-01 7.306646320192342614e-01
3.491041548933198069e-01 7.905111922034109284e-01
3.501447037899851900e-01 6.473580920058559229e-01
3.511852526866505730e-01 6.641613231377441195e-01
3.522258015833159561e-01 7.510025925734851171e-01
3.532663504799813392e-01 5.833578858124361943e-01
3.543068993766467223e-01 5.670500676849776767e-01
3.553474482733121054e-01 6.140982477218059898e-01
3.563879971699774885e-01 7.572551298198284542e-01
3.574285460666428715e-01 6.982944343522454744e-01
3.584690949633082546e-01 7.676399617548526066e-01
3.595096438599736377e-01 8.515731266362216445e-01
3.605501927566390208e-01 7.983501115133009307e-01
3.615907416533044039e-01 7.114076182202708765e-01
3.626312905499697870e-01 6.868745082085574438e-01
3.636718394466351700e-01 7.214111194510728353e-01
3.647123883433005531e-01 6.438343096824148404e-01
3.657529372399659362e-01 7.033768253197898446e-01
3.667934861366313193e-01 7.758024447671800772e-01
3.678340350332967024e-01 6.723369057334807053e-01
3.688745839299620854e-01 6.694582758687772639e-01
3.699151328266274685e-01 7.263834559264203961e-01
3.709556817232928516e-01 7.279471319001871166e-01
3.719962306199582347e-01 7.059397350328531218e-01
3.730367795166236178e-01 4.387437956320354715e-01
3.740773284132890009e-01 4.222940780786750281e-01
3.751178773099543839e-01 5.957629794029877246e-01
3.761584262066197670e-01 5.788550806004302274e-01
3.771989751032851501e-01 4.972088911907661668e-01
3.782395239999505332e-01 6.170319651644113890e-01
3.792800728966159163e-01 6.191271134029001644e-01
3.803206217932812994e-01 6.572279830246294807e-01
3.813611706899466824e-01 6.885279766869203399e-01
3.824017195866120655e-01 6.881775586284604174e-01
3.834422684832774486e-01 5.942398497274083979e-01
3.844828173799428317e-01 6.698950264005318900e-01
3.855233662766082148e-01 7.395585326523601566e-01
3.865639151732735979e-01 5.040287613765634944e-01
3.876044640699389809e-01 4.368446507049341676e-01
3.886450129666043640e-01 5.440200751334636209e-01
3.896855618632697471e-01 4.950281801520439728e-01
3.907261107599351302e-01 5.710045293172605341e-01
3.917666596566005133e-01 4.548561427022121961e-01
3.928072085532658964e-01 3.297981863315762041e-01
3.938477574499312794e-01 5.322231296707506942e-01
3.948883063465966625e-01 4.703790353538863656e-01
3.959288552432620456e-01 3.348001937546349893e-01
3.969694041399274287e-01 5.665905561490234277e-01
3.980099530365928118e-01 7.327747017687258335e-01
3.990505019332581949e-01 6.151758873585393417e-01
4.000910508299235779e-01 5.094912116277896530e-01
4.011315997265889610e-01 5.062707722858981185e-01
4.021721486232543441e-01 4.162389560864205862e-01
4.032126975199197272e-01 4.149868006184789238e-01
4.042532464165851103e-01 4.182490381939452107e-01
4.052937953132504934e-01 4.990385180848164737e-01
4.063343442099158764e-01 6.134584122404831419e-01
4.073748931065812595e-01 5.353560767835077172e-01
4.084154420032466426e-01 4.986648436535645601e-01
4.094559908999120257e-01 4.084925559834395870e-01
4.104965397965774088e-01 5.827780106920350534e-01
4.115370886932427918e-01 5.352710987371551710e-01
4.125776375899081749e-01 4.060532863236154810e-01
4.136181864865735580e-01 3.230572268401097347e-01
4.146587353832389411e-01 4.181725205582722538e-01
4.156992842799043242e-01 5.161065900866610434e-01
4.167398331765697073e-01 4.911886380034111710e-01
4.177803820732350903e-01 4.060962042162934438e-01
4.188209309699004734e-01 3.251598705850149429e-01
4.198614798665658565e-01 4.674316046792093005e-01
4.209020287632312396e-01 4.809783730053460715e-01
4.219425776598966227e-01 3.583753427152345239e-01
4.229831265565620058e-01 3.712728465048975579e-01
4.240236754532273888e-01 4.114768563727722039e-01
4.250642243498927719e-01 4.859650216806699063e-01
4.261047732465581550e-01 4.007862768284162769e-01
4.271453221432235381e-01 5.118845431145793157e-01
4.281858710398889212e-01 6.269086725375707658e-01
4.292264199365543043e-01 4.372695386278486751e-01
4.302669688332196873e-01 5.050781203791991913e-01
4.313075177298850704e-01 5.340181949980831178e-01
4.323480666265504535e-01 2.921027370994124794e-01
4.333886155232158366e-01 5.460552872227850685e-01
4.344291644198812197e-01 6.332486803995251989e-01
