# q (1/Angstrom), Intensity (arb)
2.029070354705860696e-02 1.431950283703675268e+03
2.133125244372399004e-02 1.430293300409694666e+03
2.237180134038937659e-02 1.429373569374983390e+03
2.341235023705475968e-02 1.418530442211389754e+03
2.445289913372014276e-02 1.406713262501512872e+03
2.549344803038552584e-02 1.396066125763155696e+03
2.653399692705091240e-02 1.374120091136973087e+03
2.757454582371629548e-02 1.360104418329082364e+03
2.861509472038167856e-02 1.349681022064373337e+03
2.965564361704706164e-02 1.333676286138427940e+03
3.069619251371244473e-02 1.310900350589362688e+03
3.173674141037782781e-02 1.295497114739484914e+03
3.277729030704321089e-02 1.276712370851385685e+03
3.381783920370859398e-02 1.254705400243854001e+03
3.485838810037397706e-02 1.235067571795649656e+03
3.589893699703936014e-02 1.219290665926990187e+03
3.693948589370474322e-02 1.198477716207121148e+03
3.798003479037012631e-02 1.174144995031153258e+03
3.902058368703550939e-02 1.153327623496359593e+03
4.006113258370089247e-02 1.130261955112359374e+03
4.110168148036627556e-02 1.105582828085231313e+03
4.214223037703165864e-02 1.086018084871154997e+03
4.318277927369704866e-02 1.062261585826754299e+03
4.422332817036243174e-02 1.038132276562867446e+03
4.526387706702781483e-02 1.014675559874292162e+03
4.630442596369319791e-02 9.936832242830047335e+02
4.734497486035858099e-02 9.683479301224272149e+02
4.838552375702396408e-02 9.449036156277006739e+02
4.942607265368934716e-02 9.236982637921105379e+02
5.046662155035473024e-02 9.012684103104903670e+02
5.150717044702011332e-02 8.768998169668965375e+02
5.254771934368549641e-02 8.526037160063776810e+02
5.358826824035087949e-02 8.288695626868990303e+02
5.462881713701626257e-02 8.066955586908389932e+02
5.566936603368164566e-02 7.836564889582077740e+02
5.670991493034702874e-02 7.590337903986105630e+02
5.775046382701241182e-02 7.352606656869387507e+02
5.879101272367779490e-02 7.115456860347134125e+02
5.983156162034317799e-02 6.876487996668165579e+02
6.087211051700856107e-02 6.655498840080269929e+02
6.191265941367394415e-02 6.436021784476429275e+02
6.295320831033933417e-02 6.204061377105127804e+02
6.399375720700471726e-02 5.990962883611140342e+02
6.503430610367010034e-02 5.793372372664407521e+02
6.607485500033548342e-02 5.586130326783195414e+02
6.711540389700086651e-02 5.370166275842199184e+02
6.815595279366624959e-02 5.170880495042480334e+02
6.919650169033163267e-02 4.984714586508107459e+02
7.023705058699701576e-02 4.791816111919335981e+02
7.127759948366239884e-02 4.579755822631259434e+02
7.231814838032778192e-02 4.393544920045021058e+02
7.335869727699316500e-02 4.205894352904724087e+02
7.439924617365854809e-02 4.015953504974427233e+02
7.543979507032393117e-02 3.839081562449207468e+02
7.648034396698931425e-02 3.664053115731929324e+02
7.752089286365469734e-02 3.493852290398307900e+02
7.856144176032008042e-02 3.323707786178195533e+02
7.960199065698546350e-02 3.173586187911592447e+02
8.064253955365084658e-02 3.026711621897827058e+02
8.168308845031622967e-02 2.877672605815765223e+02
8.272363734698161275e-02 2.729674218853966750e+02
8.376418624364699583e-02 2.581869147115654073e+02
8.480473514031239279e-02 2.441357430144213936e+02
8.584528403697777588e-02 2.304902577866508295e+02
8.688583293364315896e-02 2.184470375980167773e+02
8.792638183030854204e-02 2.055764778433929791e+02
8.896693072697392513e-02 1.927736191770109428e+02
9.000747962363930821e-02 1.816334816969396115e+02
9.104802852030469129e-02 1.708433000080586908e+02
9.208857741697007437e-02 1.601016326399964669e+02
9.312912631363545746e-02 1.494217204765614611e+02
9.416967521030084054e-02 1.402339932414972736e+02
9.521022410696622362e-02 1.312919775926190198e+02
9.625077300363160671e-02 1.216982472302474889e+02
9.729132190029698979e-02 1.133978814248016960e+02
9.833187079696237287e-02 1.050668101739747726e+02
9.937241969362775595e-02 9.698701248070133829e+01
1.004129685902931390e-01 8.835394510293325254e+01
1.014535174869585221e-01 8.128348726337131325e+01
1.024940663836239052e-01 7.526423719201569895e+01
1.035346152802892883e-01 6.950944762803560195e+01
1.045751641769546714e-01 6.317407143612874165e+01
1.056157130736200545e-01 5.756896245874594342e+01
1.066562619702854375e-01 5.297905248509479748e+01
1.076968108669508206e-01 4.816471189636315842e+01
1.087373597636162037e-01 4.379412282868486272e+01
1.097779086602815868e-01 3.918024735914104895e+01
1.108184575569469699e-01 3.580843350802496161e+01
1.118590064536123529e-01 3.210523143585835726e+01
1.128995553502777360e-01 2.825663180961299048e+01
1.139401042469431191e-01 2.489259300542876829e+01
1.149806531436085022e-01 2.180873523392836688e+01
1.160212020402738853e-01 1.969656128997220890e+01
1.170617509369392684e-01 1.733121118910881009e+01
1.181022998336046514e-01 1.495777144016806659e+01
1.191428487302700345e-01 1.288760692291935683e+01
1.201833976269354176e-01 1.127709986947482790e+01
1.212239465236008007e-01 9.656049213781468410e+00
1.222644954202661838e-01 8.046051623450313883e+00
1.233050443169315669e-01 6.778369955427574922e+00
1.243455932135969499e-01 6.049672731342006671e+00
1.253861421102623330e-01 5.013130912490467495e+00
1.264266910069277161e-01 4.284459691957053451e+00
1.274672399035930992e-01 3.673290792660630188e+00
1.285077888002584823e-01 2.987309525761972395e+00
1.295483376969238654e-01 2.985198656751698820e+00
1.305888865935892484e-01 2.560829329231459894e+00
1.316294354902546315e-01 1.932943130115482688e+00
1.326699843869200146e-01 1.684790098056797802e+00
1.337105332835853977e-01 1.877078604946760265e+00
1.347510821802507808e-01 1.998208162367212992e+00
1.357916310769161639e-01 2.129861105143483258e+00
1.368321799735815469e-01 2.092111298833209787e+00
1.378727288702469300e-01 2.597780873342614427e+00
1.389132777669123131e-01 3.099643632343113353e+00
1.399538266635776962e-01 3.618957776245856905e+00
1.409943755602430793e-01 3.805544851298911624e+00
1.420349244569084624e-01 4.124912677808925565e+00
1.430754733535738454e-01 4.211204351261052636e+00
1.441160222502392285e-01 4.647166360041715905e+00
1.451565711469046116e-01 5.394109834821570360e+00
1.461971200435699947e-01 5.983189931740781731e+00
1.472376689402353778e-01 6.316155712265484112e+00
1.482782178369007609e-01 6.721652734034520904e+00
1.493187667335661439e-01 6.936653321799486349e+00
1.503593156302315270e-01 6.987215864467568593e+00
1.513998645268969101e-01 7.695795524096599394e+00
1.524404134235622932e-01 8.174293565119640448e+00
1.534809623202276763e-01 8.205763248597062187e+00
1.545215112168930593e-01 8.826853342077086495e+00
1.555620601135584424e-01 9.042189330308108453e+00
1.566026090102238255e-01 9.734277911295663444e+00
1.576431579068892086e-01 1.021565911835046947e+01
1.586837068035545917e-01 1.048529518969197483e+01
1.597242557002199748e-01 1.074952843516986434e+01
1.607648045968853578e-01 1.075353754733228939e+01
1.618053534935507409e-01 1.092034567007878110e+01
1.628459023902161240e-01 1.166710646562684417e+01
1.638864512868815071e-01 1.162128605846070073e+01
1.649270001835468902e-01 1.135420302756822508e+01
1.659675490802122733e-01 1.140489514567051543e+01
1.670080979768776563e-01 1.147753704580487621e+01
1.680486468735430672e-01 1.133322689023236762e+01
1.690891957702084503e-01 1.126580428145232915e+01
1.701297446668738333e-01 1.126783107457878330e+01
1.711702935635392164e-01 1.149724730090440517e+01
1.722108424602045995e-01 1.146463045728643948e+01
1.732513913568699826e-01 1.142877563253530226e+01
1.742919402535353657e-01 1.144189670011005688e+01
1.753324891502007488e-01 1.104885288112514274e+01
1.763730380468661318e-01 1.060495864692995127e+01
1.774135869435315149e-01 1.063015381770560808e+01
1.784541358401968980e-01 1.066638286885403630e+01
1.794946847368622811e-01 1.007363634859505908e+01
1.805352336335276642e-01 9.882600315488154763e+00
1.815757825301930473e-01 9.932587037224656967e+00
1.826163314268584303e-01 9.648727632064680648e+00
1.836568803235238134e-01 9.456402641958710831e+00
1.846974292201891965e-01 9.009278613638393551e+00
1.857379781168545796e-01 8.400150253855411364e+00
1.867785270135199627e-01 7.977456372222857084e+00
1.878190759101853458e-01 7.539344957897689881e+00
1.888596248068507288e-01 7.255180140232948105e+00
1.899001737035161119e-01 7.135796246118818686e+00
1.909407226001814950e-01 6.845947220453894033e+00
1.919812714968468781e-01 6.561871567833250651e+00
1.930218203935122612e-01 6.503487077627092106e+00
1.940623692901776443e-01 6.213738874536765877e+00
1.951029181868430273e-01 5.831011971514435288e+00
1.961434670835084104e-01 5.133481263193736766e+00
1.971840159801737935e-01 4.936286038028619316e+00
1.982245648768391766e-01 4.891016992633648641e+00
1.992651137735045597e-01 4.602360253213813479e+00
2.003056626701699428e-01 4.149127896134256588e+00
2.013462115668353813e-01 4.027268144672248695e+00
2.023867604635007644e-01 3.763708513001546407e+00
2.034273093601661475e-01 3.433347869901851368e+00
2.044678582568315306e-01 3.180862451035974203e+00
2.055084071534969137e-01 2.955045127396157767e+00
2.065489560501622968e-01 3.015301895629125539e+00
2.075895049468276798e-01 2.567687537498187567e+00
2.086300538434930629e-01 2.563878021048623168e+00
2.096706027401584460e-01 2.231516773986570001e+00
2.107111516368238291e-01 1.859344611498048749e+00
2.117517005334892122e-01 1.597627451903928630e+00
2.127922494301545953e-01 1.444272969285751884e+00
2.138327983268199783e-01 1.329871117938601799e+00
2.148733472234853614e-01 1.247695979975496527e+00
2.159138961201507445e-01 1.028769762407641508e+00
2.169544450168161276e-01 1.003041935907123872e+00
2.179949939134815107e-01 1.068027352838591071e+00
2.190355428101468938e-01 9.636148093762209044e-01
2.200760917068122768e-01 8.873825859684707495e-01
2.211166406034776599e-01 9.607465662126308814e-01
2.221571895001430430e-01 9.747045389263959692e-01
2.231977383968084261e-01 8.932231800683076983e-01
2.242382872934738092e-01 9.005585925607562103e-01
2.252788361901391923e-01 9.784090761839223660e-01
2.263193850868045753e-01 8.819254975952155462e-01
2.273599339834699584e-01 5.705396605567081281e-01
2.284004828801353415e-01 4.458129656329568036e-01
2.294410317768007246e-01 5.208453603776810326e-01
2.304815806734661077e-01 4.420853842887879637e-01
2.315221295701314908e-01 5.023622368095992385e-01
2.325626784667968738e-01 5.775452681080750494e-01
2.336032273634622569e-01 5.583363722085792347e-01
2.346437762601276400e-01 7.979289807823661818e-01
2.356843251567930231e-01 7.628003657551367667e-01
2.367248740534584062e-01 8.040368339314234447e-01
2.377654229501237892e-01 8.822962683244952586e-01
2.388059718467891723e-01 7.689677321496972695e-01
2.398465207434545554e-01 1.032983352912186348e+00
2.408870696401199385e-01 1.082827674587296229e+00
2.419276185367853216e-01 1.049786389091551086e+00
2.429681674334507047e-01 1.286500193788697288e+00
2.440087163301160877e-01 1.208894667098807219e+00
2.450492652267814708e-01 1.092462620702441711e+00
2.460898141234468539e-01 1.227110651302794508e+00
2.471303630201122370e-01 1.287032097772776496e+00
2.481709119167776201e-01 1.286196033501216363e+00
2.492114608134430032e-01 1.275504710169368394e+00
2.502520097101083585e-01 1.462825176740430777e+00
2.512925586067737416e-01 1.410865574899208497e+00
2.523331075034391247e-01 1.669346216571991448e+00
2.533736564001045077e-01 1.414435960083075372e+00
2.544142052967698908e-01 1.622197799744309776e+00
2.554547541934352739e-01 1.689435807546942669e+00
2.564953030901006570e-01 1.759479589102419084e+00
2.575358519867660401e-01 2.129291583921215647e+00
2.585764008834314231e-01 2.137878546757374210e+00
2.596169497800968062e-01 1.948677379414750277e+00
2.606574986767621893e-01 1.725353791470041642e+00
2.616980475734275724e-01 1.902312297251896211e+00
2.627385964700929555e-01 1.383758946861064487e+00
2.637791453667583386e-01 1.486650423910980123e+00
2.648196942634237216e-01 2.006928766030561917e+00
2.658602431600891047e-01 1.978668933504383887e+00
2.669007920567544878e-01 2.021273094491899514e+00
2.679413409534198709e-01 2.032687337781514003e+00
2.689818898500852540e-01 2.047789922984154742e+00
2.700224387467506371e-01 1.899758299864235056e+00
2.710629876434160201e-01 1.769673336680309461e+00
2.721035365400814032e-01 1.836706545714829275e+00
2.731440854367467863e-01 1.906126885157959805e+00
2.741846343334121694e-01 1.903064638375521866e+00
2.752251832300775525e-01 1.905531251775528290e+00
2.762657321267429356e-01 1.580960773836874722e+00
2.773062810234083186e-01 1.597965873128867287e+00
2.783468299200737017e-01 1.655388384834946436e+00
2.793873788167390848e-01 1.606087792824379079e+00
2.804279277134044679e-01 1.683767123003732991e+00
2.814684766100698510e-01 1.603817253463990511e+00
2.825090255067352341e-01 1.330023250935543189e+00
2.835495744034006171e-01 1.231631752611917818e+00
2.845901233000660002e-01 1.457251501828217499e+00
2.856306721967313833e-01 1.692339630412931228e+00
2.866712210933967664e-01 1.505712049706570355e+00
2.877117699900621495e-01 1.307308322019711255e+00
2.887523188867275326e-01 1.222359800195459201e+00
2.897928677833929156e-01 9.572735734813377917e-01
2.908334166800582987e-01 1.129882762211853020e+00
2.918739655767236818e-01 1.178064914592386714e+00
2.929145144733890649e-01 9.467989641037775073e-01
2.939550633700544480e-01 8.445277509031576813e-01
2.949956122667198311e-01 7.691642390856152645e-01
2.960361611633852141e-01 1.025336490566651548e+00
2.970767100600505972e-01 1.014503709806557907e+00
2.981172589567159803e-01 1.023439217011759439e+00
2.991578078533813634e-01 7.663423944440808100e-01
3.001983567500468020e-01 5.920698492005129765e-01
3.012389056467121851e-01 6.720424589348894528e-01
3.022794545433775681e-01 6.539015432008419282e-01
3.033200034400429512e-01 6.780502463148927461e-01
3.043605523367083343e-01 3.323989977549750563e-01
3.054011012333737174e-01 1.583789374852422327e-01
3.064416501300391005e-01 4.599717292836480453e-01
3.074821990267044836e-01 3.986449336708588476e-01
3.085227479233698666e-01 4.819501566978949825e-01
3.095632968200352497e-01 3.362803040900139706e-01
3.106038457167006328e-01 5.260258268921376157e-01
3.116443946133660159e-01 6.853811208364959384e-01
3.126849435100313990e-01 5.300326475031980067e-01
3.137254924066967821e-01 5.576892496145795519e-01
3.147660413033621651e-01 3.070321823324064781e-01
3.158065902000275482e-01 1.898208559857259559e-01
3.168471390966929313e-01 4.773650065054866332e-01
3.178876879933583144e-01 4.383012293303778506e-01
3.189282368900236975e-01 3.012515889430495974e-01
3.199687857866890806e-01 3.113648423947310562e-01
3.210093346833544636e-01 1.682570379503687263e-01
3.220498835800198467e-01 3.682126262093454727e-01
3.230904324766852298e-01 2.651100355334712333e-01
3.241309813733506129e-01 3.184678429999046045e-01
3.251715302700159960e-01 3.484902161481961969e-01
3.262120791666813790e-01 4.528557491154465708e-01
3.272526280633467621e-01 3.640827714982926011e-01
3.282931769600121452e-01 3.487145384276217897e-01
3.293337258566775283e-01 1.869696031637175793e-01
3.303742747533429114e-01 5.086919410087098470e-01
3.314148236500082945e-01 3.109408236170274620e-01
3.324553725466736775e-01 2.414625686994149589e-01
3.334959214433390606e-01 1.575740962831844172e-01
3.345364703400044437e-01 3.246531174179025925e-01
3.355770192366698268e-01 5.706311721979240303e-01
3.366175681333352099e-01 4.102983475809729441e-01
3.376581170300005930e-01 4.320865225256298459e-01
3.386986659266659760e-01 3.734271217410949362e-01
3.397392148233313591e-01 6.754699967640824809e-01
3.407797637199967422e-01 5.044180891579728154e-01
3.418203126166621253e-01 6.756834747497535432e-01
3.428608615133275084e-01 9.488054993878343168e-01
3.439014104099928915e-01 8.828909969385705381e-01
3.449419593066582745e-01 7.642883991823339329e-01
3.459825082033236576e-01 5.437485019400121189e-01
3.470230570999890407e-01 4.832221840540533719e-01
3.480636059966544238e-01 3.960751314217354491e-01
3.491041548933198069e-01 6.158325361149010746e-01
3.501447037899851900e-01 6.178248666742511830e-01
3.511852526866505730e-01 5.347639137012833999e-01
3.522258015833159561e-01 5.887122066125378694e-01
3.532663504799813392e-01 6.206554074529009313e-01
3.543068993766467223e-01 6.739451462716381513e-01
3.553474482733121054e-01 6.692079821400440665e-01
3.563879971699774885e-01 5.634878943632948278e-01
3.574285460666428715e-01 6.465567176106787883e-01
3.584690949633082546e-01 7.479439587459566496e-01
3.595096438599736377e-01 7.482025255857003287e-01
3.605501927566390208e-01 5.560259898024639824e-01
3.615907416533044039e-01 6.554789417725572775e-01
3.626312905499697870e-01 5.604094975316336047e-01
3.636718394466351700e-01 5.459163358840619651e-01
3.647123883433005531e-01 5.619120044555394600e-01
3.657529372399659362e-01 6.275608101275516049e-01
3.667934861366313193e-01 6.294603582488988991e-01
3.678340350332967024e-01 6.617974760695268799e-01
3.688745839299620854e-01 7.632776582122069442e-01
3.699151328266274685e-01 7.030535772735291289e-01
3.709556817232928516e-01 9.071571730941307976e-01
3.719962306199582347e-01 1.024562387687744547e+00
3.730367795166236178e-01 8.475989274224247083e-01
3.740773284132890009e-01 5.187583119500658313e-01
3.751178773099543839e-01 4.624751254784627008e-01
3.761584262066197670e-01 5.913741615705312427e-01
3.771989751032851501e-01 4.968575235174625959e-01
3.782395239999505332e-01 5.276836596952136915e-01
3.792800728966159163e-01 6.156894554219292104e-01
3.803206217932812994e-01 7.101217423036132459e-01
3.813611706899466824e-01 6.697614678615728678e-01
3.824017195866120655e-01 5.548400452355579660e-01
3.834422684832774486e-01 6.981828219166992255e-01
3.844828173799428317e-01 6.749776023293918570e-01
3.855233662766082148e-01 5.544326337011469263e-01
3.865639151732735979e-01 5.587740961951546126e-01
3.876044640699389809e-01 4.876522700813090694e-01
3.886450129666043640e-01 6.040230759863334242e-01
3.896855618632697471e-01 6.339493246360383694e-01
3.907261107599351302e-01 5.963240929290734016e-01
3.917666596566005133e-01 5.666039370833360067e-01
3.928072085532658964e-01 3.492698491154087037e-01
3.938477574499312794e-01 3.438551043601769663e-01
3.948883063465966625e-01 4.446549218177189289e-01
3.959288552432620456e-01 2.543257256310056391e-01
3.969694041399274287e-01 1.836483428952355723e-01
3.980099530365928118e-01 4.667443772611541419e-01
3.990505019332581949e-01 5.094372000192102234e-01
4.000910508299235779e-01 3.476654454765046864e-01
4.011315997265889610e-01 4.718383228096421078e-01
4.021721486232543441e-01 3.666726834701492521e-01
4.032126975199197272e-01 2.043222135618485424e-01
4.042532464165851103e-01 1.654780478792439169e-01
4.052937953132504934e-01 1.139127866869209527e-01
4.063343442099158764e-01 2.614895087296247311e-01
4.073748931065812595e-01 3.923345434654592623e-01
4.084154420032466426e-01 3.803723903214972779e-01
4.094559908999120257e-01 2.428823112046600841e-01
4.104965397965774088e-01 1.085699341775594462e-01
4.115370886932427918e-01 2.921566921844487297e-01
4.125776375899081749e-01 3.815256510120086375e-01
4.136181864865735580e-01 2.554149997380186221e-01
4.146587353832389411e-01 3.901717362511902820e-02
4.156992842799043242e-01 3.710274056115672181e-01
4.167398331765697073e-01 2.577411589043592244e-01
4.177803820732350903e-01 2.294208068927119371e-01
4.188209309699004734e-01 3.511543593495645155e-01
4.198614798665658565e-01 4.291122025487261737e-01
4.209020287632312396e-01 2.897833671362128882e-01
4.219425776598966227e-01 2.584916152322271898e-01
4.229831265565620058e-01 2.829166660938362554e-01
4.240236754532273888e-01 2.298786656905420500e-01
4.250642243498927719e-01 2.642649772516740825e-01
4.261047732465581550e-01 3.130264286735808810e-01
4.271453221432235381e-01 5.550384635327070271e-01
4.281858710398889212e-01 5.063542221629937501e-01
4.292264199365543043e-01 3.932333920972830299e-01
4.302669688332196873e-01 4.348004194126602329e-01
4.313075177298850704e-01 3.764765143050965435e-01
4.323480666265504535e-01 3.511643445427381494e-01
4.333886155232158366e-01 2.743796085462477663e-01
4.344291644198812197e-01 2.900153425589806488e-01
