# q (1/Angstrom), Intensity (arb)
2.029070354705860696e-02 1.388731386905502404e+03
2.133125244372399004e-02 1.382527744918985491e+03
2.237180134038937659e-02 1.377340003348858545e+03
2.341235023705475968e-02 1.371425191888871723e+03
2.445289913372014276e-02 1.361463824847837941e+03
2.549344803038552584e-02 1.348162394473691847e+03
2.653399692705091240e-02 1.335774858974962626e+03
2.757454582371629548e-02 1.320889896758179248e+03
2.861509472038167856e-02 1.307634003802786310e+03
2.965564361704706164e-02 1.293480216098965229e+03
3.069619251371244473e-02 1.274657527662385974e+03
3.173674141037782781e-02 1.257780678329105740e+03
3.277729030704321089e-02 1.238238256368125576e+03
3.381783920370859398e-02 1.219025768898209890e+03
3.485838810037397706e-02 1.197493376330275396e+03
3.589893699703936014e-02 1.178390695401260245e+03
3.693948589370474322e-02 1.161937485650110375e+03
3.798003479037012631e-02 1.141009744459293643e+03
3.902058368703550939e-02 1.120022605122898995e+03
4.006113258370089247e-02 1.094944530957193820e+03
4.110168148036627556e-02 1.076528369966700666e+03
4.214223037703165864e-02 1.054281188057793315e+03
4.318277927369704866e-02 1.031031220310259187e+03
4.422332817036243174e-02 1.008663828738342318e+03
4.526387706702781483e-02 9.853336763922352475e+02
4.630442596369319791e-02 9.600444095298194043e+02
4.734497486035858099e-02 9.402068768353866517e+02
4.838552375702396408e-02 9.142576583948925872e+02
4.942607265368934716e-02 8.909005984380290784e+02
5.046662155035473024e-02 8.707836108605434902e+02
5.150717044702011332e-02 8.475114935319775213e+02
5.254771934368549641e-02 8.238004563613504843e+02
5.358826824035087949e-02 8.011501856645368207e+02
5.462881713701626257e-02 7.773295488767645338e+02
5.566936603368164566e-02 7.544916153861247494e+02
5.670991493034702874e-02 7.321894959454737091e+02
5.775046382701241182e-02 7.099370672711947918e+02
5.879101272367779490e-02 6.876232725000920709e+02
5.983156162034317799e-02 6.664938995680554399e+02
6.087211051700856107e-02 6.443306837861331360e+02
6.191265941367394415e-02 6.240776409319288405e+02
6.295320831033933417e-02 6.044290254233387714e+02
6.399375720700471726e-02 5.813960071682323587e+02
6.503430610367010034e-02 5.609792298645944584e+02
6.607485500033548342e-02 5.402365497300727384e+02
6.711540389700086651e-02 5.202676135814671170e+02
6.815595279366624959e-02 4.999477889807416204e+02
6.919650169033163267e-02 4.815906806548139230e+02
7.023705058699701576e-02 4.626630741298069438e+02
7.127759948366239884e-02 4.436167066637129892e+02
7.231814838032778192e-02 4.248513993403269069e+02
7.335869727699316500e-02 4.063379853630151501e+02
7.439924617365854809e-02 3.893372920518415867e+02
7.543979507032393117e-02 3.702687017196719239e+02
7.648034396698931425e-02 3.530861700519404280e+02
7.752089286365469734e-02 3.380754345880639562e+02
7.856144176032008042e-02 3.225409607208630405e+02
7.960199065698546350e-02 3.071518131078886427e+02
8.064253955365084658e-02 2.904018658927013234e+02
8.168308845031622967e-02 2.762808626285452078e+02
8.272363734698161275e-02 2.631387932921894048e+02
8.376418624364699583e-02 2.493898930056700465e+02
8.480473514031239279e-02 2.355166590430884810e+02
8.584528403697777588e-02 2.219247089265747945e+02
8.688583293364315896e-02 2.098704116935213904e+02
8.792638183030854204e-02 1.985760367252489402e+02
8.896693072697392513e-02 1.873607266718925644e+02
9.000747962363930821e-02 1.758978189563725323e+02
9.104802852030469129e-02 1.643756551633427705e+02
9.208857741697007437e-02 1.545991592491231472e+02
9.312912631363545746e-02 1.446310644067127669e+02
9.416967521030084054e-02 1.357401396269233373e+02
9.521022410696622362e-02 1.257575523973848419e+02
9.625077300363160671e-02 1.174374802813583187e+02
9.729132190029698979e-02 1.095768121899498055e+02
9.833187079696237287e-02 1.013909608865362202e+02
9.937241969362775595e-02 9.360784954238255295e+01
1.004129685902931390e-01 8.616721035503749704e+01
1.014535174869585221e-01 7.978597815978920949e+01
1.024940663836239052e-01 7.283185579754828609e+01
1.035346152802892883e-01 6.670632140685464151e+01
1.045751641769546714e-01 6.099890114613867809e+01
1.056157130736200545e-01 5.588051823700160270e+01
1.066562619702854375e-01 5.095113337761964090e+01
1.076968108669508206e-01 4.581242289167766302e+01
1.087373597636162037e-01 4.186496451775446559e+01
1.097779086602815868e-01 3.788653540698859246e+01
1.108184575569469699e-01 3.356265851892565877e+01
1.118590064536123529e-01 3.016163315975450132e+01
1.128995553502777360e-01 2.704813734790583624e+01
1.139401042469431191e-01 2.415585976413010627e+01
1.149806531436085022e-01 2.114849019843985189e+01
1.160212020402738853e-01 1.826606665231138038e+01
1.170617509369392684e-01 1.630314760327233614e+01
1.181022998336046514e-01 1.412520701474291940e+01
1.191428487302700345e-01 1.217187026749517997e+01
1.201833976269354176e-01 1.053625946738490882e+01
1.212239465236008007e-01 8.870196973888283765e+00
1.222644954202661838e-01 7.305764711548988544e+00
1.233050443169315669e-01 6.351959922093222133e+00
1.243455932135969499e-01 5.594595555197251713e+00
1.253861421102623330e-01 4.844488568443985343e+00
1.264266910069277161e-01 4.060549363582595106e+00
1.274672399035930992e-01 3.346500030359585764e+00
1.285077888002584823e-01 2.786264772856874572e+00
1.295483376969238654e-01 2.683866530827366148e+00
1.305888865935892484e-01 2.272837142376147312e+00
1.316294354902546315e-01 2.137922377565310228e+00
1.326699843869200146e-01 2.067333845302833595e+00
1.337105332835853977e-01 2.131482689765419991e+00
1.347510821802507808e-01 2.011145313910382981e+00
1.357916310769161639e-01 2.269890018460252179e+00
1.368321799735815469e-01 2.091195341760439419e+00
1.378727288702469300e-01 2.637186691964593876e+00
1.389132777669123131e-01 2.999012089983160934e+00
1.399538266635776962e-01 3.181418362157923951e+00
1.409943755602430793e-01 3.429258931462669580e+00
1.420349244569084624e-01 3.829844324431853408e+00
1.430754733535738454e-01 4.455751197778351269e+00
1.441160222502392285e-01 4.611546931774768154e+00
1.451565711469046116e-01 5.051510224731515564e+00
1.461971200435699947e-01 5.503925584739903343e+00
1.472376689402353778e-01 5.747999013863370976e+00
1.482782178369007609e-01 6.052864780456076232e+00
1.493187667335661439e-01 6.745088625135114313e+00
1.503593156302315270e-01 7.151542634974941137e+00
1.513998645268969101e-01 7.560621160094274984e+00
1.524404134235622932e-01 7.975833134771125543e+00
1.534809623202276763e-01 8.434574147340274664e+00
1.545215112168930593e-01 8.896597802533950272e+00
1.555620601135584424e-01 8.925659325804499389e+00
1.566026090102238255e-01 9.101889352404327838e+00
1.576431579068892086e-01 9.404351904923615280e+00
1.586837068035545917e-01 9.529090390380233089e+00
1.597242557002199748e-01 9.904460050064535892e+00
1.607648045968853578e-01 9.993366111896733628e+00
1.618053534935507409e-01 1.014679678778389516e+01
1.628459023902161240e-01 1.049267232675932249e+01
1.638864512868815071e-01 1.099394465515122477e+01
1.649270001835468902e-01 1.144369994133192847e+01
1.659675490802122733e-01 1.158459094418136104e+01
1.670080979768776563e-01 1.125800747847441485e+01
1.680486468735430672e-01 1.134207912843156052e+01
1.690891957702084503e-01 1.124982961268036519e+01
1.701297446668738333e-01 1.099178534758102543e+01
1.711702935635392164e-01 1.131462703464539743e+01
1.722108424602045995e-01 1.154377403049153727e+01
1.732513913568699826e-01 1.114994040848129231e+01
1.742919402535353657e-01 1.063527482139176783e+01
1.753324891502007488e-01 1.020511953912353675e+01
1.763730380468661318e-01 1.052589456497403120e+01
1.774135869435315149e-01 1.033832801475114849e+01
1.784541358401968980e-01 1.003643513982617463e+01
1.794946847368622811e-01 9.982083614869051047e+00
1.805352336335276642e-01 9.803203168090462327e+00
1.815757825301930473e-01 9.351342094391629445e+00
1.826163314268584303e-01 8.928104508557357377e+00
1.836568803235238134e-01 8.742249288910027616e+00
1.846974292201891965e-01 8.795560495733724338e+00
1.857379781168545796e-01 8.620822840588139968e+00
1.867785270135199627e-01 8.143846768383333767e+00
1.878190759101853458e-01 7.594061170217216272e+00
1.888596248068507288e-01 7.294634844629179327e+00
1.899001737035161119e-01 7.268830954793155996e+00
1.909407226001814950e-01 6.639313582292430738e+00
1.919812714968468781e-01 6.515082120520798270e+00
1.930218203935122612e-01 6.195175378353123818e+00
1.940623692901776443e-01 5.771352614445820706e+00
1.951029181868430273e-01 6.098814538074250891e+00
1.961434670835084104e-01 5.675400667634608709e+00
1.971840159801737935e-01 4.982445645960243752e+00
1.982245648768391766e-01 4.415967813848421741e+00
1.992651137735045597e-01 4.169252595505501091e+00
2.003056626701699428e-01 3.828159629825986343e+00
2.013462115668353813e-01 3.628519437138482573e+00
2.023867604635007644e-01 3.900653057507028620e+00
2.034273093601661475e-01 3.540993968003522951e+00
2.044678582568315306e-01 3.343929426890618117e+00
2.055084071534969137e-01 3.170973362567437448e+00
2.065489560501622968e-01 2.611547254162278620e+00
2.075895049468276798e-01 2.665126009429425125e+00
2.086300538434930629e-01 2.590399777760879374e+00
2.096706027401584460e-01 2.118161291407698599e+00
2.107111516368238291e-01 1.926728808494782896e+00
2.117517005334892122e-01 1.912920120799988410e+00
2.127922494301545953e-01 1.909193426596470289e+00
2.138327983268199783e-01 1.499134667948997190e+00
2.148733472234853614e-01 1.260750056074584791e+00
2.159138961201507445e-01 1.205355157922170406e+00
2.169544450168161276e-01 8.986367946969870957e-01
2.179949939134815107e-01 9.379214922378835695e-01
2.190355428101468938e-01 1.006666849162527910e+00
2.200760917068122768e-01 8.497732290766606411e-01
2.211166406034776599e-01 7.828782216825551643e-01
2.221571895001430430e-01 8.499299801758226636e-01
2.231977383968084261e-01 9.607421632140038525e-01
2.242382872934738092e-01 5.994776223670967852e-01
2.252788361901391923e-01 8.549370119370003351e-01
2.263193850868045753e-01 6.506560850393725559e-01
2.273599339834699584e-01 7.010645191868611903e-01
2.284004828801353415e-01 6.248098714237322326e-01
2.294410317768007246e-01 5.119864054940812537e-01
2.304815806734661077e-01 6.137241009516891665e-01
2.315221295701314908e-01 3.528779152046723766e-01
2.325626784667968738e-01 7.294159013498990873e-01
2.336032273634622569e-01 7.617194856778297662e-01
2.346437762601276400e-01 6.854777178515476521e-01
2.356843251567930231e-01 8.287474613451450978e-01
2.367248740534584062e-01 7.927946821214355566e-01
2.377654229501237892e-01 9.931955654340818285e-01
2.388059718467891723e-01 9.785531929053696842e-01
2.398465207434545554e-01 8.249846567196854608e-01
2.408870696401199385e-01 8.626074859584775822e-01
2.419276185367853216e-01 8.635998934973549979e-01
2.429681674334507047e-01 1.006555842279574620e+00
2.440087163301160877e-01 1.170643664601776379e+00
2.450492652267814708e-01 1.409501304345468498e+00
2.460898141234468539e-01 1.512525195575101122e+00
2.471303630201122370e-01 1.514873645307055483e+00
2.481709119167776201e-01 1.556804990441364112e+00
2.492114608134430032e-01 1.444686975075228474e+00
2.502520097101083585e-01 1.616334934907122545e+00
2.512925586067737416e-01 1.832554023657255726e+00
2.523331075034391247e-01 1.548413272720662093e+00
2.533736564001045077e-01 1.534082975437588203e+00
2.544142052967698908e-01 1.601672094490261600e+00
2.554547541934352739e-01 1.407176042054210541e+00
2.564953030901006570e-01 1.603298104520010980e+00
2.575358519867660401e-01 1.569289592381529985e+00
2.585764008834314231e-01 1.563390743345031808e+00
2.596169497800968062e-01 1.417777604232071553e+00
2.606574986767621893e-01 1.575362271307113815e+00
2.616980475734275724e-01 1.891295772929879604e+00
2.627385964700929555e-01 1.743528968467909834e+00
2.637791453667583386e-01 1.667661958964234969e+00
2.648196942634237216e-01 1.912831611944522336e+00
2.658602431600891047e-01 1.929957788252199435e+00
2.669007920567544878e-01 1.800594562412261013e+00
2.679413409534198709e-01 1.792765592206976066e+00
2.689818898500852540e-01 1.618796925705453305e+00
2.700224387467506371e-01 1.544714603486983862e+00
2.710629876434160201e-01 1.625964937951739131e+00
2.721035365400814032e-01 1.845157886060690089e+00
2.731440854367467863e-01 1.859217188223432515e+00
2.741846343334121694e-01 1.653137129535739547e+00
2.752251832300775525e-01 1.675059986339949347e+00
2.762657321267429356e-01 1.629655827299313131e+00
2.773062810234083186e-01 1.643315685946472371e+00
2.783468299200737017e-01 1.806961324031597371e+00
2.793873788167390848e-01 1.807734552871160361e+00
2.804279277134044679e-01 1.515240787477644346e+00
2.814684766100698510e-01 1.193601532639640084e+00
2.825090255067352341e-01 1.321858866484387107e+00
2.835495744034006171e-01 1.278646458369230743e+00
2.845901233000660002e-01 9.705894825564520545e-01
2.856306721967313833e-01 1.229286176890909132e+00
2.866712210933967664e-01 1.431936469083503027e+00
2.877117699900621495e-01 1.280902836243836163e+00
2.887523188867275326e-01 1.208765313709623257e+00
2.897928677833929156e-01 1.163239014091164591e+00
2.908334166800582987e-01 1.019764878459881174e+00
2.918739655767236818e-01 9.336408935410567267e-01
2.929145144733890649e-01 9.614911848833749275e-01
2.939550633700544480e-01 1.109056474984313923e+00
2.949956122667198311e-01 9.719895174601838050e-01
2.960361611633852141e-01 9.132360914544541686e-01
2.970767100600505972e-01 8.719853795284961961e-01
2.981172589567159803e-01 5.949542460431977986e-01
2.991578078533813634e-01 5.792745754376440459e-01
3.001983567500468020e-01 6.644789335141965125e-01
3.012389056467121851e-01 7.447271163505391200e-01
3.022794545433775681e-01 7.411755595700988408e-01
3.033200034400429512e-01 6.664611963014870355e-01
3.043605523367083343e-01 5.159325619918639916e-01
3.054011012333737174e-01 6.182836352654490497e-01
3.064416501300391005e-01 3.996092377749391744e-01
3.074821990267044836e-01 7.125090004118170839e-01
3.085227479233698666e-01 4.547620205908664559e-01
3.095632968200352497e-01 4.073030021420613878e-01
3.106038457167006328e-01 4.954147902993426555e-01
3.116443946133660159e-01 4.908391195540389162e-01
3.126849435100313990e-01 6.341761474292724188e-01
3.137254924066967821e-01 4.858379845343065995e-01
3.147660413033621651e-01 4.988791930665961161e-01
3.158065902000275482e-01 6.501991245189024937e-01
3.168471390966929313e-01 6.344290511214403239e-01
3.178876879933583144e-01 4.012900186446195505e-01
3.189282368900236975e-01 4.728784681754092389e-01
3.199687857866890806e-01 4.696114517812439715e-01
3.210093346833544636e-01 4.394465438795513990e-01
3.220498835800198467e-01 1.964904977394397179e-01
3.230904324766852298e-01 2.642350535140991497e-01
3.241309813733506129e-01 5.190472365463989490e-01
3.251715302700159960e-01 6.127088658422152889e-01
3.262120791666813790e-01 4.008860890368382002e-01
3.272526280633467621e-01 1.422060433975111948e-01
3.282931769600121452e-01 1.818456355505198019e-01
3.293337258566775283e-01 2.712784337867759632e-01
3.303742747533429114e-01 3.770965096814684614e-01
3.314148236500082945e-01 4.807183305091164982e-01
3.324553725466736775e-01 4.706855414782502578e-01
3.334959214433390606e-01 3.852043674247269678e-01
3.345364703400044437e-01 2.459760296792694589e-01
3.355770192366698268e-01 2.840733197946505584e-01
3.366175681333352099e-01 4.922383501457012756e-01
3.376581170300005930e-01 5.242201430039905574e-01
3.386986659266659760e-01 4.439027579094023679e-01
3.397392148233313591e-01 5.140799988995716774e-01
3.407797637199967422e-01 5.210691840661851870e-01
3.418203126166621253e-01 5.621806496930190633e-01
3.428608615133275084e-01 5.642703032208089553e-01
3.439014104099928915e-01 5.116084585266378326e-01
3.449419593066582745e-01 3.904561218760775887e-01
3.459825082033236576e-01 3.517324879285972372e-01
3.470230570999890407e-01 4.544024091368008555e-01
3.480636059966544238e-01 6.231070973085515163e-01
3.491041548933198069e-01 6.568739613631180418e-01
3.501447037899851900e-01 6.298278364844165367e-01
3.511852526866505730e-01 6.736606897202754851e-01
3.522258015833159561e-01 6.530183918200727078e-01
3.532663504799813392e-01 5.540471980696537457e-01
3.543068993766467223e-01 4.309776421100650623e-01
3.553474482733121054e-01 4.945562330333324041e-01
3.563879971699774885e-01 4.454609913986864456e-01
3.574285460666428715e-01 4.185671870813152395e-01
3.584690949633082546e-01 6.358313957590340237e-01
3.595096438599736377e-01 8.173230379038045612e-01
3.605501927566390208e-01 6.180021812474727483e-01
3.615907416533044039e-01 6.064342670766968979e-01
3.626312905499697870e-01 4.850879335295843475e-01
3.636718394466351700e-01 6.015993240718913171e-01
3.647123883433005531e-01 4.513537895966024394e-01
3.657529372399659362e-01 6.580094834931635717e-01
3.667934861366313193e-01 6.849640110126458126e-01
3.678340350332967024e-01 6.220350978682098742e-01
3.688745839299620854e-01 5.837735797749985522e-01
3.699151328266274685e-01 5.226707980431548606e-01
3.709556817232928516e-01 4.672552511748477855e-01
3.719962306199582347e-01 5.612123173259817577e-01
3.730367795166236178e-01 4.840337548505218024e-01
3.740773284132890009e-01 3.187289587339634522e-01
3.751178773099543839e-01 3.413699664680969192e-01
3.761584262066197670e-01 5.889292978376410304e-01
3.771989751032851501e-01 7.284168981496499384e-01
3.782395239999505332e-01 6.364916677776513154e-01
3.792800728966159163e-01 6.255166939820426819e-01
3.803206217932812994e-01 5.400641027707564490e-01
3.813611706899466824e-01 5.376853221414386041e-01
3.824017195866120655e-01 5.299397563425927160e-01
3.834422684832774486e-01 3.532657293671661591e-01
3.844828173799428317e-01 3.074784812462389993e-01
3.855233662766082148e-01 3.804423337946900574e-01
3.865639151732735979e-01 4.970860740086386897e-01
3.876044640699389809e-01 5.721564800842138254e-01
3.886450129666043640e-01 3.965128274276601417e-01
3.896855618632697471e-01 4.772009601857796213e-01
3.907261107599351302e-01 6.258925045161340961e-01
3.917666596566005133e-01 6.608614185000369901e-01
3.928072085532658964e-01 5.056685103003886184e-01
3.938477574499312794e-01 4.402814682279334590e-01
3.948883063465966625e-01 4.647398235979132153e-01
3.959288552432620456e-01 4.729483519525174984e-01
3.969694041399274287e-01 4.457695560877574792e-01
3.980099530365928118e-01 1.349402014345955081e-01
3.990505019332581949e-01 1.964090927234281025e-01
4.000910508299235779e-01 2.606074565718792257e-01
4.011315997265889610e-01 1.609307337129344262e-01
4.021721486232543441e-01 3.485926540380255290e-01
4.032126975199197272e-01 4.199967969782818500e-01
4.042532464165851103e-01 3.279477951677982617e-01
4.052937953132504934e-01 2.141639735092404351e-01
4.063343442099158764e-01 2.555986704458383940e-01
4.073748931065812595e-01 4.406171418790876260e-01
4.084154420032466426e-01 5.494779384018109170e-01
4.094559908999120257e-01 3.065044346786756080e-01
4.104965397965774088e-01 1.664902192960759919e-01
4.115370886932427918e-01 1.915720567793535167e-01
4.125776375899081749e-01 3.110359785019447543e-01
4.136181864865735580e-01 5.746155883981600709e-01
4.146587353832389411e-01 4.059877618362079943e-01
4.156992842799043242e-01 3.487031714775241653e-01
4.167398331765697073e-01 3.941998469925174220e-01
4.177803820732350903e-01 2.871878031598029679e-01
4.188209309699004734e-01 3.499910246520805401e-01
4.198614798665658565e-01 2.609589411633770339e-01
4.209020287632312396e-01 0.000000000000000000e+00
4.219425776598966227e-01 3.848282597233563251e-01
4.229831265565620058e-01 4.273762605536326475e-01
4.240236754532273888e-01 2.103469192919078523e-01
4.250642243498927719e-01 3.144139544492148275e-01
4.261047732465581550e-01 3.206308794239092208e-01
4.271453221432235381e-01 1.727980925603525009e-01
4.281858710398889212e-01 3.759851459967258336e-01
4.292264199365543043e-01 2.638580595155879394e-01
4.302669688332196873e-01 1.625400197849629080e-01
4.313075177298850704e-01 1.763371506444499914e-01
4.323480666265504535e-01 2.093671515694701668e-01
4.333886155232158366e-01 2.910751117460605997e-01
4.344291644198812197e-01 4.458067249861166204e-01
