# q (1/Angstrom), Intensity (arb)
2.029070354705860696e-02 1.302424772948079408e+03
2.133125244372399004e-02 1.296978165594640814e+03
2.237180134038937659e-02 1.292824313219542091e+03
2.341235023705475968e-02 1.286172152043337519e+03
2.445289913372014276e-02 1.278326074072223491e+03
2.549344803038552584e-02 1.266942376332991216e+03
2.653399692705091240e-02 1.255827553709503945e+03
2.757454582371629548e-02 1.244545608873280344e+03
2.861509472038167856e-02 1.229281421274871946e+03
2.965564361704706164e-02 1.215871271991328285e+03
3.069619251371244473e-02 1.202532127908216580e+03
3.173674141037782781e-02 1.181679489947369802e+03
3.277729030704321089e-02 1.159081625169751760e+03
3.381783920370859398e-02 1.139928941847927945e+03
3.485838810037397706e-02 1.125672636283677093e+03
3.589893699703936014e-02 1.105397562298375533e+03
3.693948589370474322e-02 1.083790183242395869e+03
3.798003479037012631e-02 1.064600863359877167e+03
3.902058368703550939e-02 1.049498237014130609e+03
4.006113258370089247e-02 1.029130288973037977e+03
4.110168148036627556e-02 1.007602713204793076e+03
4.214223037703165864e-02 9.867802930646890900e+02
4.318277927369704866e-02 9.660818596015765252e+02
4.422332817036243174e-02 9.428926491045161811e+02
4.526387706702781483e-02 9.218960800842181698e+02
4.630442596369319791e-02 9.004173001382783923e+02
4.734497486035858099e-02 8.772788660181029172e+02
4.838552375702396408e-02 8.576836711870867020e+02
4.942607265368934716e-02 8.382954305551182870e+02
5.046662155035473024e-02 8.166699222440782933e+02
5.150717044702011332e-02 7.940461439542518747e+02
5.254771934368549641e-02 7.706091798722279691e+02
5.358826824035087949e-02 7.504768541248683960e+02
5.462881713701626257e-02 7.312931270014345273e+02
5.566936603368164566e-02 7.065965553843286671e+02
5.670991493034702874e-02 6.855262950231335708e+02
5.775046382701241182e-02 6.646197834355573377e+02
5.879101272367779490e-02 6.456574066893673489e+02
5.983156162034317799e-02 6.247411000747226808e+02
6.087211051700856107e-02 6.047193588996467497e+02
6.191265941367394415e-02 5.839827493323576846e+02
6.295320831033933417e-02 5.622871408643295581e+02
6.399375720700471726e-02 5.412359039712920321e+02
6.503430610367010034e-02 5.239435158043896763e+02
6.607485500033548342e-02 5.041348766882864538e+02
6.711540389700086651e-02 4.881544039428952146e+02
6.815595279366624959e-02 4.702844837300857535e+02
6.919650169033163267e-02 4.512440510616953588e+02
7.023705058699701576e-02 4.331774019497769928e+02
7.127759948366239884e-02 4.133711701187948506e+02
7.231814838032778192e-02 3.962049322213249525e+02
7.335869727699316500e-02 3.799671165640696699e+02
7.439924617365854809e-02 3.637698132479847573e+02
7.543979507032393117e-02 3.466104545239048207e+02
7.648034396698931425e-02 3.317524289540275504e+02
7.752089286365469734e-02 3.170216418135398158e+02
7.856144176032008042e-02 3.014600644069207647e+02
7.960199065698546350e-02 2.875766741729255500e+02
8.064253955365084658e-02 2.729066088610879319e+02
8.168308845031622967e-02 2.591363110501952747e+02
8.272363734698161275e-02 2.457624877026335071e+02
8.376418624364699583e-02 2.321512652498293505e+02
8.480473514031239279e-02 2.200306058052968297e+02
8.584528403697777588e-02 2.094301379302829673e+02
8.688583293364315896e-02 1.969349497970676452e+02
8.792638183030854204e-02 1.850351955326639768e+02
8.896693072697392513e-02 1.734875045304931120e+02
9.000747962363930821e-02 1.629244680486537220e+02
9.104802852030469129e-02 1.528356663362553149e+02
9.208857741697007437e-02 1.442889661335699714e+02
9.312912631363545746e-02 1.355827777989153446e+02
9.416967521030084054e-02 1.263788825932408031e+02
9.521022410696622362e-02 1.179427440356563466e+02
9.625077300363160671e-02 1.090207138006717003e+02
9.729132190029698979e-02 1.005957951485091115e+02
9.833187079696237287e-02 9.413886076734580399e+01
9.937241969362775595e-02 8.744445259349464550e+01
1.004129685902931390e-01 8.025898277284787241e+01
1.014535174869585221e-01 7.419137742152449277e+01
1.024940663836239052e-01 6.736529475746846174e+01
1.035346152802892883e-01 6.156251937878747782e+01
1.045751641769546714e-01 5.737530426701271580e+01
1.056157130736200545e-01 5.183687895625890008e+01
1.066562619702854375e-01 4.749109347760074229e+01
1.076968108669508206e-01 4.257515945053130224e+01
1.087373597636162037e-01 3.820319218277658990e+01
1.097779086602815868e-01 3.455451655489206075e+01
1.108184575569469699e-01 3.155150309357536997e+01
1.118590064536123529e-01 2.851231640951025526e+01
1.128995553502777360e-01 2.538212640966586520e+01
1.139401042469431191e-01 2.170337536491560115e+01
1.149806531436085022e-01 1.887562995149590961e+01
1.160212020402738853e-01 1.644578878615825346e+01
1.170617509369392684e-01 1.463994469776965701e+01
1.181022998336046514e-01 1.279154649654634568e+01
1.191428487302700345e-01 1.109165693860920499e+01
1.201833976269354176e-01 9.685010538084753762e+00
1.212239465236008007e-01 8.357854854616775242e+00
1.222644954202661838e-01 6.816299751298259935e+00
1.233050443169315669e-01 5.816783505570320756e+00
1.243455932135969499e-01 4.830037652228149625e+00
1.253861421102623330e-01 4.488859202718991526e+00
1.264266910069277161e-01 3.945591118979415057e+00
1.274672399035930992e-01 3.096424025851646888e+00
1.285077888002584823e-01 2.378356506285534522e+00
1.295483376969238654e-01 1.682457187590031822e+00
1.305888865935892484e-01 1.513295172071288164e+00
1.316294354902546315e-01 1.450516475470813305e+00
1.326699843869200146e-01 1.269620382965882754e+00
1.337105332835853977e-01 9.086946926941052993e-01
1.347510821802507808e-01 3.259753269088562888e+00
1.357916310769161639e-01 1.440157006698179032e+01
1.368321799735815469e-01 2.815853941454143694e+00
1.378727288702469300e-01 2.184177799254278796e+00
1.389132777669123131e-01 2.586521567767420038e+00
1.399538266635776962e-01 2.467627494495857832e+00
1.409943755602430793e-01 3.188294377320609385e+00
1.420349244569084624e-01 3.106462360239419240e+00
1.430754733535738454e-01 3.368356159440160980e+00
1.441160222502392285e-01 3.565817389315220964e+00
1.451565711469046116e-01 4.339081033286028344e+00
1.461971200435699947e-01 4.714074641744360861e+00
1.472376689402353778e-01 5.046220919247858205e+00
1.482782178369007609e-01 5.582828355071448811e+00
1.493187667335661439e-01 6.039126957870259105e+00
1.503593156302315270e-01 6.230890118360186136e+00
1.513998645268969101e-01 6.644064300183046612e+00
1.524404134235622932e-01 6.701287473373078285e+00
1.534809623202276763e-01 6.945535049206213785e+00
1.545215112168930593e-01 7.583912985138560714e+00
1.555620601135584424e-01 8.275589273510362887e+00
1.566026090102238255e-01 8.455072101664725892e+00
1.576431579068892086e-01 8.664602606745361868e+00
1.586837068035545917e-01 8.634635689679896586e+00
1.597242557002199748e-01 8.923071160012476355e+00
1.607648045968853578e-01 9.543322480238288108e+00
1.618053534935507409e-01 9.494132183436740036e+00
1.628459023902161240e-01 9.547261687830022936e+00
1.638864512868815071e-01 9.990474500947541969e+00
1.649270001835468902e-01 9.416883430682602807e+00
1.659675490802122733e-01 9.997327209718051222e+00
1.670080979768776563e-01 1.041132640691791522e+01
1.680486468735430672e-01 1.040000388300998679e+01
1.690891957702084503e-01 1.060534647083230908e+01
1.701297446668738333e-01 1.018496864983130479e+01
1.711702935635392164e-01 9.880957889262404592e+00
1.722108424602045995e-01 9.928697485891071040e+00
1.732513913568699826e-01 1.032594766158395316e+01
1.742919402535353657e-01 9.978356667214811182e+00
1.753324891502007488e-01 9.541162295056274445e+00
1.763730380468661318e-01 9.542461424347521870e+00
1.774135869435315149e-01 9.466347568589313255e+00
1.784541358401968980e-01 9.500526749793429815e+00
1.794946847368622811e-01 9.706448929397033965e+00
1.805352336335276642e-01 8.931571986017765141e+00
1.815757825301930473e-01 8.425589634532322236e+00
1.826163314268584303e-01 8.376355048970509642e+00
1.836568803235238134e-01 8.164524573405273600e+00
1.846974292201891965e-01 7.974326192712162253e+00
1.857379781168545796e-01 7.674264746332745801e+00
1.867785270135199627e-01 6.899451360926590837e+00
1.878190759101853458e-01 6.841635060922754974e+00
1.888596248068507288e-01 6.689923800935474674e+00
1.899001737035161119e-01 6.415683614707987203e+00
1.909407226001814950e-01 6.343036757677644744e+00
1.919812714968468781e-01 5.579111653916555724e+00
1.930218203935122612e-01 5.373462875391183502e+00
1.940623692901776443e-01 5.066247146498895404e+00
1.951029181868430273e-01 4.805920595547533480e+00
1.961434670835084104e-01 4.891734718564926254e+00
1.971840159801737935e-01 4.521596777268982237e+00
1.982245648768391766e-01 3.917759203982825511e+00
1.992651137735045597e-01 3.479531743624399098e+00
2.003056626701699428e-01 3.488587199436786079e+00
2.013462115668353813e-01 3.331497169273369252e+00
2.023867604635007644e-01 3.306719374491748908e+00
2.034273093601661475e-01 3.076519057181819505e+00
2.044678582568315306e-01 2.760717517650078889e+00
2.055084071534969137e-01 2.434135677984926360e+00
2.065489560501622968e-01 2.355773019474064256e+00
2.075895049468276798e-01 1.897493536672854475e+00
2.086300538434930629e-01 1.817384892597239343e+00
2.096706027401584460e-01 1.939762952675408769e+00
2.107111516368238291e-01 1.604408105489007141e+00
2.117517005334892122e-01 1.448640266022962919e+00
2.127922494301545953e-01 1.408287359527996330e+00
2.138327983268199783e-01 9.652691169977813956e-01
2.148733472234853614e-01 7.777400663568485584e-01
2.159138961201507445e-01 9.652282690524458530e-01
2.169544450168161276e-01 1.257136232128203801e+00
2.179949939134815107e-01 9.227843070358616728e-01
2.190355428101468938e-01 7.025423072491570053e-01
2.200760917068122768e-01 5.837998067382805800e-01
2.211166406034776599e-01 4.004997815460100696e-01
2.221571895001430430e-01 2.439961425353907032e-01
2.231977383968084261e-01 3.119658832530518566e-01
2.242382872934738092e-01 1.255336083005644809e-01
2.252788361901391923e-01 4.616715104906106149e-01
2.263193850868045753e-01 4.044633823009462503e-01
2.273599339834699584e-01 3.574975020890711619e-01
2.284004828801353415e-01 1.523913659466842319e-01
2.294410317768007246e-01 1.850945678576287889e-01
2.304815806734661077e-01 1.433254502964622645e-01
2.315221295701314908e-01 3.077446102835992292e-01
2.325626784667968738e-01 2.217228966481030739e-01
2.336032273634622569e-01 4.113246257167375575e-01
2.346437762601276400e-01 4.469808784782358657e-01
2.356843251567930231e-01 5.350492190074191967e-01
2.367248740534584062e-01 5.024729987009628474e-01
2.377654229501237892e-01 4.831501388057901636e-01
2.388059718467891723e-01 7.736434883115812511e-01
2.398465207434545554e-01 9.265606213526496049e-01
2.408870696401199385e-01 8.318984466507721720e-01
2.419276185367853216e-01 9.054603494546213938e-01
2.429681674334507047e-01 9.564896119077452852e-01
2.440087163301160877e-01 9.411559647009823948e-01
2.450492652267814708e-01 1.042695420851121213e+00
2.460898141234468539e-01 8.567508788686168941e-01
2.471303630201122370e-01 7.271199836333082089e-01
2.481709119167776201e-01 7.361174204915563735e-01
2.492114608134430032e-01 8.009733674911814205e-01
2.502520097101083585e-01 7.013879419661641634e-01
2.512925586067737416e-01 8.870338401317638954e-01
2.523331075034391247e-01 1.009527635983001659e+00
2.533736564001045077e-01 1.149015617118344323e+00
2.544142052967698908e-01 1.162225043645683797e+00
2.554547541934352739e-01 1.255664987777961983e+00
2.564953030901006570e-01 1.573222330698584415e+00
2.575358519867660401e-01 1.401324680325412686e+00
2.585764008834314231e-01 1.239312954511280651e+00
2.596169497800968062e-01 1.477676953043825847e+00
2.606574986767621893e-01 1.465903802266875999e+00
2.616980475734275724e-01 1.435194968768300328e+00
2.627385964700929555e-01 1.283988815492381974e+00
2.637791453667583386e-01 1.485017740158323107e+00
2.648196942634237216e-01 1.302810199937464830e+00
2.658602431600891047e-01 1.237861592906721597e+00
2.669007920567544878e-01 1.479306447028385207e+00
2.679413409534198709e-01 1.578468809176566623e+00
2.689818898500852540e-01 1.600220166806359146e+00
2.700224387467506371e-01 1.835429793249421238e+00
2.710629876434160201e-01 1.839557115309052193e+00
2.721035365400814032e-01 1.567808163675966426e+00
2.731440854367467863e-01 1.386109914249328057e+00
2.741846343334121694e-01 1.133409569302202158e+00
2.752251832300775525e-01 1.365126757706615734e+00
2.762657321267429356e-01 1.513699220639018961e+00
2.773062810234083186e-01 1.591362074727971532e+00
2.783468299200737017e-01 1.100636433508860534e+00
2.793873788167390848e-01 1.108040832405734477e+00
2.804279277134044679e-01 1.244091080782226300e+00
2.814684766100698510e-01 1.287814380398213387e+00
2.825090255067352341e-01 1.175139978325685064e+00
2.835495744034006171e-01 1.238158588375476654e+00
2.845901233000660002e-01 9.775192829340113576e-01
2.856306721967313833e-01 1.111833635050334834e+00
2.866712210933967664e-01 9.644387086905226170e-01
2.877117699900621495e-01 7.551863848935091994e-01
2.887523188867275326e-01 5.932164673711532998e-01
2.897928677833929156e-01 6.276964065538450654e-01
2.908334166800582987e-01 5.180674510172345038e-01
2.918739655767236818e-01 8.781247105624316873e-01
2.929145144733890649e-01 9.087018931146673140e-01
2.939550633700544480e-01 5.986079827485895066e-01
2.949956122667198311e-01 3.599754343039656135e-01
2.960361611633852141e-01 4.509814466979378267e-01
2.970767100600505972e-01 5.047135184977662448e-01
2.981172589567159803e-01 6.559412136504043644e-01
2.991578078533813634e-01 7.011628757192731598e-01
3.001983567500468020e-01 4.857654443526087107e-01
3.012389056467121851e-01 5.007525116794759867e-01
3.022794545433775681e-01 7.033881872595166840e-01
3.033200034400429512e-01 5.502969653916274240e-01
3.043605523367083343e-01 3.209636235892467937e-01
3.054011012333737174e-01 1.395551657646407762e-01
3.064416501300391005e-01 2.899056975900258237e-01
3.074821990267044836e-01 4.608965112706790990e-01
3.085227479233698666e-01 3.805034196240981714e-01
3.095632968200352497e-01 4.110451716179497339e-01
3.106038457167006328e-01 3.664885247367983823e-01
3.116443946133660159e-01 2.727142213452964370e-01
3.126849435100313990e-01 1.662345530367552726e-01
3.137254924066967821e-01 2.229471534779676745e-01
3.147660413033621651e-01 1.467739735828530456e-01
3.158065902000275482e-01 3.616567416505986898e-01
3.168471390966929313e-01 4.304843592039233613e-01
3.178876879933583144e-01 3.652721796037674551e-01
3.189282368900236975e-01 2.331735345138064019e-01
3.199687857866890806e-01 1.498402361624400214e-01
3.210093346833544636e-01 1.840815839005180976e-01
3.220498835800198467e-01 1.871644677562329662e-01
3.230904324766852298e-01 3.216654571377759453e-01
3.241309813733506129e-01 1.382519117126648212e-01
3.251715302700159960e-01 7.187870149045494372e-02
3.262120791666813790e-01 2.738608604704175775e-01
3.272526280633467621e-01 5.176395270658531444e-01
3.282931769600121452e-01 3.227631763477987192e-01
3.293337258566775283e-01 3.565805108709056981e-01
3.303742747533429114e-01 2.077128649095527635e-01
3.314148236500082945e-01 3.737348933779571780e-02
3.324553725466736775e-01 2.052391732434202254e-01
3.334959214433390606e-01 3.059207852262062488e-01
3.345364703400044437e-01 1.592618299727170950e-01
3.355770192366698268e-01 1.725872581828227226e-01
3.366175681333352099e-01 2.505234779599554429e-01
3.376581170300005930e-01 3.979142999267004654e-01
3.386986659266659760e-01 6.584561262118739933e-01
3.397392148233313591e-01 6.404685683661028861e-01
3.407797637199967422e-01 3.025669770864176655e-01
3.418203126166621253e-01 2.153048914065571751e-01
3.428608615133275084e-01 3.016888432238218343e-01
3.439014104099928915e-01 4.471516278628229202e-01
3.449419593066582745e-01 3.631342801171442147e-01
3.459825082033236576e-01 6.583335549631712524e-01
3.470230570999890407e-01 5.841054373447320813e-01
3.480636059966544238e-01 3.555347196099454266e-01
3.491041548933198069e-01 5.789046934651551624e-01
3.501447037899851900e-01 4.618700259163759370e-01
3.511852526866505730e-01 5.244943990445456450e-01
3.522258015833159561e-01 7.671893258850168706e-01
3.532663504799813392e-01 6.950913159320890600e-01
3.543068993766467223e-01 8.550795880414732153e-01
3.553474482733121054e-01 7.697546146372928888e-01
3.563879971699774885e-01 6.952388913776452739e-01
3.574285460666428715e-01 5.525427876342945410e-01
3.584690949633082546e-01 6.400848000676511163e-01
3.595096438599736377e-01 5.740561555864189813e-01
3.605501927566390208e-01 4.802417840754884537e-01
3.615907416533044039e-01 7.653254056511791248e-01
3.626312905499697870e-01 1.201703035647696538e+00
3.636718394466351700e-01 6.802729257343251845e-01
3.647123883433005531e-01 4.125202466938304724e-01
3.657529372399659362e-01 6.264322865788471972e-01
3.667934861366313193e-01 4.599052139768105008e-01
3.678340350332967024e-01 1.317118370346292977e-01
3.688745839299620854e-01 2.476820581323835313e-01
3.699151328266274685e-01 3.028532897241049682e-01
3.709556817232928516e-01 4.325468549778754834e-01
3.719962306199582347e-01 4.340407444528757708e-01
3.730367795166236178e-01 3.293167729958952350e-01
3.740773284132890009e-01 3.877033418612327864e-01
3.751178773099543839e-01 2.832280001627758281e-01
3.761584262066197670e-01 4.879479816462648500e-01
3.771989751032851501e-01 5.842929817469730835e-01
3.782395239999505332e-01 7.055823269563958888e-01
3.792800728966159163e-01 5.959997046369913676e-01
3.803206217932812994e-01 6.258268068276748863e-01
3.813611706899466824e-01 4.745941866889786809e-01
3.824017195866120655e-01 5.378580531856940183e-01
3.834422684832774486e-01 4.459034862758279871e-01
3.844828173799428317e-01 2.568691766612900551e-01
3.855233662766082148e-01 1.974699542555491405e-01
3.865639151732735979e-01 2.219250847714562269e-01
3.876044640699389809e-01 2.585836197207953546e-01
3.886450129666043640e-01 3.187758610691560079e-01
3.896855618632697471e-01 4.315815983454669436e-01
3.907261107599351302e-01 3.905463413309817611e-01
3.917666596566005133e-01 3.710466925931896753e-01
3.928072085532658964e-01 3.249013421921418399e-01
3.938477574499312794e-01 3.435013964544744169e-01
3.948883063465966625e-01 1.840612924100000214e-01
3.959288552432620456e-01 8.483571233771414200e-02
3.969694041399274287e-01 1.377589926689637423e-02
3.980099530365928118e-01 9.174807936928175423e-02
3.990505019332581949e-01 1.566096511340582254e-01
4.000910508299235779e-01 3.370698211705800418e-01
4.011315997265889610e-01 2.995413310594479128e-01
4.021721486232543441e-01 3.320260837330373249e-01
4.032126975199197272e-01 3.083524173807852264e-01
4.042532464165851103e-01 2.986128835688965921e-01
4.052937953132504934e-01 3.433715402630532765e-01
4.063343442099158764e-01 2.431170953014252234e-01
4.073748931065812595e-01 3.451613551749019848e-01
4.084154420032466426e-01 2.489556290464669530e-01
4.094559908999120257e-01 2.926149397252650886e-01
4.104965397965774088e-01 3.465264247640611472e-01
4.115370886932427918e-01 1.827567055370913351e-01
4.125776375899081749e-01 2.527477878258110877e-02
4.136181864865735580e-01 0.000000000000000000e+00
4.146587353832389411e-01 2.865152365267462642e-01
4.156992842799043242e-01 3.809424433729198256e-01
4.167398331765697073e-01 3.538763617788589499e-01
4.177803820732350903e-01 2.233083772380020093e-01
4.188209309699004734e-01 2.397082711317999326e-01
4.198614798665658565e-01 2.421439922581285487e-01
4.209020287632312396e-01 1.883170523092765336e-01
4.219425776598966227e-01 2.434961531758084163e-01
4.229831265565620058e-01 2.565229366988539539e-01
4.240236754532273888e-01 2.868007258619797994e-01
4.250642243498927719e-01 1.455515615646767458e-01
4.261047732465581550e-01 1.052877008725658925e-01
4.271453221432235381e-01 1.421684298884677844e-01
4.281858710398889212e-01 1.403375199917675786e-01
4.292264199365543043e-01 2.432402128144595110e-01
4.302669688332196873e-01 3.684567019425806222e-01
4.313075177298850704e-01 2.690271396300545348e-01
4.323480666265504535e-01 2.555991049591561648e-01
4.333886155232158366e-01 2.899747418033662427e-01
4.344291644198812197e-01 2.982544765002010934e-01
