# q (1/Angstrom), Intensity (arb)
2.029070354705860696e-02 1.427918206164014236e+03
2.133125244372399004e-02 1.422106799424992005e+03
2.237180134038937659e-02 1.411990796912628866e+03
2.341235023705475968e-02 1.407811236590745011e+03
2.445289913372014276e-02 1.401237301819926188e+03
2.549344803038552584e-02 1.395433174474113230e+03
2.653399692705091240e-02 1.382948034557214896e+03
2.757454582371629548e-02 1.367758908959840483e+03
2.861509472038167856e-02 1.346257499246776433e+03
2.965564361704706164e-02 1.332049156436894236e+03
3.069619251371244473e-02 1.314331753447281699e+03
3.173674141037782781e-02 1.296822579444601161e+03
3.277729030704321089e-02 1.276319744332103710e+03
3.381783920370859398e-02 1.256757007275263732e+03
3.485838810037397706e-02 1.237991935143584897e+03
3.589893699703936014e-02 1.217992177586585740e+03
3.693948589370474322e-02 1.197414110734155429e+03
3.798003479037012631e-02 1.172249737082830279e+03
3.902058368703550939e-02 1.154861791648587541e+03
4.006113258370089247e-02 1.133113898027028654e+03
4.110168148036627556e-02 1.113712196184913864e+03
4.214223037703165864e-02 1.086332672761879167e+03
4.318277927369704866e-02 1.066229078543203741e+03
4.422332817036243174e-02 1.044177170326509440e+03
4.526387706702781483e-02 1.019020718406841752e+03
4.630442596369319791e-02 9.942325872294276223e+02
4.734497486035858099e-02 9.713441368375220009e+02
4.838552375702396408e-02 9.460331002107666336e+02
4.942607265368934716e-02 9.235473227072516238e+02
5.046662155035473024e-02 8.994356204432704089e+02
5.150717044702011332e-02 8.743166000106574529e+02
5.254771934368549641e-02 8.506283734603981657e+02
5.358826824035087949e-02 8.273929370733999349e+02
5.462881713701626257e-02 8.043096936110340494e+02
5.566936603368164566e-02 7.817934585589383687e+02
5.670991493034702874e-02 7.596034045086008746e+02
5.775046382701241182e-02 7.339814911569056903e+02
5.879101272367779490e-02 7.101756187320984282e+02
5.983156162034317799e-02 6.895514275109600248e+02
6.087211051700856107e-02 6.662484008646157463e+02
6.191265941367394415e-02 6.470412257391864159e+02
6.295320831033933417e-02 6.260707068536283941e+02
6.399375720700471726e-02 6.026800343941504252e+02
6.503430610367010034e-02 5.807229213163134318e+02
6.607485500033548342e-02 5.576951398299979701e+02
6.711540389700086651e-02 5.402583962962839905e+02
6.815595279366624959e-02 5.195150470010639765e+02
6.919650169033163267e-02 4.979426124618644849e+02
7.023705058699701576e-02 4.783542859584051712e+02
7.127759948366239884e-02 4.584002703196424022e+02
7.231814838032778192e-02 4.414435580130713674e+02
7.335869727699316500e-02 4.222988496825332732e+02
7.439924617365854809e-02 4.042054757956726689e+02
7.543979507032393117e-02 3.860812015524113008e+02
7.648034396698931425e-02 3.674546543178749403e+02
7.752089286365469734e-02 3.510022411382439600e+02
7.856144176032008042e-02 3.344627153312446239e+02
7.960199065698546350e-02 3.185624926821911913e+02
8.064253955365084658e-02 3.037855736367367854e+02
8.168308845031622967e-02 2.885039755714792591e+02
8.272363734698161275e-02 2.737399167335078118e+02
8.376418624364699583e-02 2.596826150153790422e+02
8.480473514031239279e-02 2.455994574629970373e+02
8.584528403697777588e-02 2.331039439516146103e+02
8.688583293364315896e-02 2.197241835190657753e+02
8.792638183030854204e-02 2.069778330857758988e+02
8.896693072697392513e-02 1.953449189129467243e+02
9.000747962363930821e-02 1.815954934865887651e+02
9.104802852030469129e-02 1.710030448050709424e+02
9.208857741697007437e-02 1.617672655671707389e+02
9.312912631363545746e-02 1.509887077543395151e+02
9.416967521030084054e-02 1.414116943144392167e+02
9.521022410696622362e-02 1.322515481876597505e+02
9.625077300363160671e-02 1.216506675511857480e+02
9.729132190029698979e-02 1.129928987010049894e+02
9.833187079696237287e-02 1.059198360494657294e+02
9.937241969362775595e-02 9.808176020925587579e+01
1.004129685902931390e-01 8.949000490660020546e+01
1.014535174869585221e-01 8.246347557599804645e+01
1.024940663836239052e-01 7.593995430091345611e+01
1.035346152802892883e-01 7.022911025450524392e+01
1.045751641769546714e-01 6.432454478832855216e+01
1.056157130736200545e-01 5.794347136637976803e+01
1.066562619702854375e-01 5.261625183508093073e+01
1.076968108669508206e-01 4.824677762774220469e+01
1.087373597636162037e-01 4.320228634669410894e+01
1.097779086602815868e-01 3.882081983172930961e+01
1.108184575569469699e-01 3.483136720543259912e+01
1.118590064536123529e-01 3.104254677852317812e+01
1.128995553502777360e-01 2.824064807460585769e+01
1.139401042469431191e-01 2.513939137955037140e+01
1.149806531436085022e-01 2.156562618679810939e+01
1.160212020402738853e-01 1.903946793535163806e+01
1.170617509369392684e-01 1.694239584019279121e+01
1.181022998336046514e-01 1.488920250261335454e+01
1.191428487302700345e-01 1.294359649647640254e+01
1.201833976269354176e-01 1.104853792285031489e+01
1.212239465236008007e-01 9.601551242035938571e+00
1.222644954202661838e-01 8.649848377563756685e+00
1.233050443169315669e-01 7.420482431657397626e+00
1.243455932135969499e-01 5.998120531848591952e+00
1.253861421102623330e-01 5.331993358705002350e+00
1.264266910069277161e-01 4.438235032062554097e+00
1.274672399035930992e-01 3.326557074421113924e+00
1.285077888002584823e-01 2.505285107790218291e+00
1.295483376969238654e-01 2.023655127885692906e+00
1.305888865935892484e-01 2.219666101751212040e+00
1.316294354902546315e-01 2.180821088689842924e+00
1.326699843869200146e-01 2.354810287472695052e+00
1.337105332835853977e-01 2.244648482274261170e+00
1.347510821802507808e-01 2.023833074655140507e+00
1.357916310769161639e-01 2.312910895100852571e+00
1.368321799735815469e-01 2.981519614707266896e+00
1.378727288702469300e-01 2.734514932307103408e+00
1.389132777669123131e-01 2.445405065206163187e+00
1.399538266635776962e-01 2.824652325417378762e+00
1.409943755602430793e-01 3.417397842228261595e+00
1.420349244569084624e-01 4.065899067158664337e+00
1.430754733535738454e-01 4.635883036284635494e+00
1.441160222502392285e-01 4.751695884463806863e+00
1.451565711469046116e-01 4.943060951988538676e+00
1.461971200435699947e-01 5.459754107215353258e+00
1.472376689402353778e-01 6.111105080934496669e+00
1.482782178369007609e-01 6.543042491957180573e+00
1.493187667335661439e-01 7.053697964343452753e+00
1.503593156302315270e-01 7.194301762624196073e+00
1.513998645268969101e-01 7.651006048453464103e+00
1.524404134235622932e-01 8.391657042308285241e+00
1.534809623202276763e-01 8.782900035116945503e+00
1.545215112168930593e-01 9.173904356147009054e+00
1.555620601135584424e-01 9.686390207629564486e+00
1.566026090102238255e-01 9.617688929474681458e+00
1.576431579068892086e-01 9.937199451212347157e+00
1.586837068035545917e-01 1.007629212340040681e+01
1.597242557002199748e-01 1.037626579871626120e+01
1.607648045968853578e-01 1.076793275709317399e+01
1.618053534935507409e-01 1.122513239632869286e+01
1.628459023902161240e-01 1.109212575586510141e+01
1.638864512868815071e-01 1.116434860023596087e+01
1.649270001835468902e-01 1.129643790967488570e+01
1.659675490802122733e-01 1.160355099314643113e+01
1.670080979768776563e-01 1.166812111945777275e+01
1.680486468735430672e-01 1.136305821560667439e+01
1.690891957702084503e-01 1.141079301022068648e+01
1.701297446668738333e-01 1.145626896322988486e+01
1.711702935635392164e-01 1.137148895598268084e+01
1.722108424602045995e-01 1.105897629895828871e+01
1.732513913568699826e-01 1.115816006143314709e+01
1.742919402535353657e-01 1.150365565295036774e+01
1.753324891502007488e-01 1.096010654548025443e+01
1.763730380468661318e-01 1.078564940870579392e+01
1.774135869435315149e-01 1.079640508512193620e+01
1.784541358401968980e-01 1.032168048045964781e+01
1.794946847368622811e-01 1.033820403020253309e+01
1.805352336335276642e-01 1.009136879262131004e+01
1.815757825301930473e-01 9.852130307996176839e+00
1.826163314268584303e-01 9.481694456964387285e+00
1.836568803235238134e-01 9.071230407973310150e+00
1.846974292201891965e-01 9.013492090499397591e+00
1.857379781168545796e-01 9.207776725002815965e+00
1.867785270135199627e-01 8.662430656337601675e+00
1.878190759101853458e-01 8.291319534848060613e+00
1.888596248068507288e-01 7.651213839610846890e+00
1.899001737035161119e-01 7.144254622973086555e+00
1.909407226001814950e-01 7.263346615665948747e+00
1.919812714968468781e-01 7.213015379542483174e+00
1.930218203935122612e-01 6.926090938648730599e+00
1.940623692901776443e-01 6.605398062108342572e+00
1.951029181868430273e-01 6.139393995932454828e+00
1.961434670835084104e-01 5.900148822251377823e+00
1.971840159801737935e-01 5.472138387911819279e+00
1.982245648768391766e-01 5.329652691068027082e+00
1.992651137735045597e-01 5.004546628280134968e+00
2.003056626701699428e-01 4.318222084585372045e+00
2.013462115668353813e-01 4.232522136567840931e+00
2.023867604635007644e-01 4.023038414523789186e+00
2.034273093601661475e-01 3.666639248100228343e+00
2.044678582568315306e-01 3.484903700840462193e+00
2.055084071534969137e-01 3.232923792457714995e+00
2.065489560501622968e-01 2.886554481168772668e+00
2.075895049468276798e-01 2.592307040633237136e+00
2.086300538434930629e-01 2.398084835174799423e+00
2.096706027401584460e-01 2.304794268747318853e+00
2.107111516368238291e-01 1.921785506658732601e+00
2.117517005334892122e-01 1.673760148684088733e+00
2.127922494301545953e-01 1.792385152388554559e+00
2.138327983268199783e-01 1.529328498220916543e+00
2.148733472234853614e-01 1.534185110838784283e+00
2.159138961201507445e-01 1.091044721002877083e+00
2.169544450168161276e-01 1.170244987075399479e+00
2.179949939134815107e-01 1.105712729259241911e+00
2.190355428101468938e-01 7.982195361476662754e-01
2.200760917068122768e-01 6.448471865932461355e-01
2.211166406034776599e-01 4.164188728421649444e-01
2.221571895001430430e-01 6.122035079711594108e-01
2.231977383968084261e-01 6.179272194993075118e-01
2.242382872934738092e-01 3.965383659043624220e-01
2.252788361901391923e-01 7.407090646187377558e-01
2.263193850868045753e-01 7.875225383650459321e-01
2.273599339834699584e-01 7.902531578547851154e-01
2.284004828801353415e-01 8.864075647126341551e-01
2.294410317768007246e-01 9.025025368833965445e-01
2.304815806734661077e-01 6.247851383951896764e-01
2.315221295701314908e-01 6.320909603748461336e-01
2.325626784667968738e-01 5.281869034609059099e-01
2.336032273634622569e-01 7.595076456671812082e-01
2.346437762601276400e-01 7.610017301245157739e-01
2.356843251567930231e-01 6.695429358436406631e-01
2.367248740534584062e-01 7.687283111313760742e-01
2.377654229501237892e-01 5.019810394640877860e-01
2.388059718467891723e-01 3.642030157330538032e-01
2.398465207434545554e-01 7.229108520167564222e-01
2.408870696401199385e-01 8.218773258353380129e-01
2.419276185367853216e-01 9.589267131407090972e-01
2.429681674334507047e-01 1.174632174901315551e+00
2.440087163301160877e-01 1.378297941383625158e+00
2.450492652267814708e-01 1.670993769257020034e+00
2.460898141234468539e-01 1.470511077392671950e+00
2.471303630201122370e-01 1.330317356097008741e+00
2.481709119167776201e-01 1.515902721869988312e+00
2.492114608134430032e-01 1.499137307847110634e+00
2.502520097101083585e-01 1.561372097585895347e+00
2.512925586067737416e-01 1.730491652200054631e+00
2.523331075034391247e-01 1.610264478130009280e+00
2.533736564001045077e-01 1.473944030625876422e+00
2.544142052967698908e-01 1.236668056248959147e+00
2.554547541934352739e-01 1.641164636152158351e+00
2.564953030901006570e-01 1.682163939397611330e+00
2.575358519867660401e-01 1.510374418789766082e+00
2.585764008834314231e-01 1.868052060654516566e+00
2.596169497800968062e-01 1.850752443210133436e+00
2.606574986767621893e-01 1.821312446794081552e+00
2.616980475734275724e-01 1.662182556911020015e+00
2.627385964700929555e-01 1.759847385711832857e+00
2.637791453667583386e-01 1.750685952730776762e+00
2.648196942634237216e-01 1.765748156709754824e+00
2.658602431600891047e-01 1.946183796094551610e+00
2.669007920567544878e-01 1.917786022945961122e+00
2.679413409534198709e-01 1.724910995704622252e+00
2.689818898500852540e-01 1.474647454336249552e+00
2.700224387467506371e-01 1.535201148015470807e+00
2.710629876434160201e-01 1.765735524916454580e+00
2.721035365400814032e-01 1.603765609681467197e+00
2.731440854367467863e-01 1.446389471259589499e+00
2.741846343334121694e-01 1.509888305940329190e+00
2.752251832300775525e-01 1.721389499801102119e+00
2.762657321267429356e-01 1.588030189557496641e+00
2.773062810234083186e-01 1.467012796766194782e+00
2.783468299200737017e-01 1.481198725952335593e+00
2.793873788167390848e-01 1.687398558440417418e+00
2.804279277134044679e-01 1.651582563546551086e+00
2.814684766100698510e-01 1.435383916239800328e+00
2.825090255067352341e-01 1.313021183526704050e+00
2.835495744034006171e-01 1.325480090771712582e+00
2.845901233000660002e-01 1.359192453931338918e+00
2.856306721967313833e-01 1.354638619878524963e+00
2.866712210933967664e-01 1.099095638389908203e+00
2.877117699900621495e-01 9.397981796706602609e-01
2.887523188867275326e-01 7.763467007568962686e-01
2.897928677833929156e-01 1.062752144008534572e+00
2.908334166800582987e-01 1.199606002400891214e+00
2.918739655767236818e-01 9.651107371423677250e-01
2.929145144733890649e-01 9.482799586697119310e-01
2.939550633700544480e-01 7.997309132137608856e-01
2.949956122667198311e-01 7.154678004374410705e-01
2.960361611633852141e-01 8.446788377080629573e-01
2.970767100600505972e-01 8.768140098621231004e-01
2.981172589567159803e-01 1.012768453363893428e+00
2.991578078533813634e-01 9.228279948953925782e-01
3.001983567500468020e-01 9.889235655862975705e-01
3.012389056467121851e-01 1.026153683618254320e+00
3.022794545433775681e-01 7.384442060289515553e-01
3.033200034400429512e-01 2.993289038307160865e-01
3.043605523367083343e-01 2.579589493190752592e-01
3.054011012333737174e-01 4.517030403482245049e-01
3.064416501300391005e-01 6.852509151141639165e-01
3.074821990267044836e-01 6.200508206430903613e-01
3.085227479233698666e-01 4.440505600638893213e-01
3.095632968200352497e-01 5.779118381570675922e-01
3.106038457167006328e-01 7.693708107234300542e-01
3.116443946133660159e-01 6.003166493862650555e-01
3.126849435100313990e-01 5.751988159284238122e-01
3.137254924066967821e-01 5.692536516170427774e-01
3.147660413033621651e-01 4.974081649323487397e-01
3.158065902000275482e-01 4.521105252614781023e-01
3.168471390966929313e-01 2.482926343652067658e-01
3.178876879933583144e-01 1.200370328559827726e-01
3.189282368900236975e-01 3.631811219323743956e-01
3.199687857866890806e-01 3.429306062156562973e-01
3.210093346833544636e-01 1.626028778065915503e-01
3.220498835800198467e-01 2.980801058027537920e-01
3.230904324766852298e-01 5.095676492031557814e-01
3.241309813733506129e-01 4.137144332088418253e-01
3.251715302700159960e-01 4.293067946747335384e-01
3.262120791666813790e-01 5.087072296413523986e-01
3.272526280633467621e-01 1.865806804091683091e-01
3.282931769600121452e-01 2.363300506768624132e-01
3.293337258566775283e-01 4.209652144150339836e-01
3.303742747533429114e-01 4.714708632061004323e-01
3.314148236500082945e-01 5.593759559050184293e-01
3.324553725466736775e-01 4.782584689963975677e-01
3.334959214433390606e-01 7.384769321198128011e-01
3.345364703400044437e-01 7.227201802910734330e-01
3.355770192366698268e-01 6.438225428923693983e-01
3.366175681333352099e-01 3.939747447321302332e-01
3.376581170300005930e-01 2.706186960451759660e-01
3.386986659266659760e-01 3.563369802631086714e-01
3.397392148233313591e-01 3.291610656227952347e-01
3.407797637199967422e-01 5.137373626929999659e-01
3.418203126166621253e-01 5.912048677971100119e-01
3.428608615133275084e-01 5.601177571651874132e-01
3.439014104099928915e-01 6.920599349164895386e-01
3.449419593066582745e-01 6.955186342976666936e-01
3.459825082033236576e-01 6.849556704759685033e-01
3.470230570999890407e-01 6.038224373558698233e-01
3.480636059966544238e-01 5.457660429649351386e-01
3.491041548933198069e-01 6.432670784465770453e-01
3.501447037899851900e-01 6.958752917647110792e-01
3.511852526866505730e-01 5.789437825081726885e-01
3.522258015833159561e-01 6.255691354135954896e-01
3.532663504799813392e-01 6.023457622771886122e-01
3.543068993766467223e-01 4.560079052639167685e-01
3.553474482733121054e-01 5.632495131459762661e-01
3.563879971699774885e-01 7.252494134144740201e-01
3.574285460666428715e-01 6.513476192296145939e-01
3.584690949633082546e-01 7.387772293152110592e-01
3.595096438599736377e-01 5.447703799829781701e-01
3.605501927566390208e-01 5.989791621299538349e-01
3.615907416533044039e-01 7.602603538264958161e-01
3.626312905499697870e-01 6.548515528310119294e-01
3.636718394466351700e-01 5.414253300177307437e-01
3.647123883433005531e-01 4.963882438588633761e-01
3.657529372399659362e-01 4.836163581911918641e-01
3.667934861366313193e-01 3.585675601566151727e-01
3.678340350332967024e-01 3.368586938443414169e-01
3.688745839299620854e-01 4.224611147174890391e-01
3.699151328266274685e-01 7.857034070353208222e-01
3.709556817232928516e-01 7.246714779885756741e-01
3.719962306199582347e-01 6.289240266689795078e-01
3.730367795166236178e-01 7.317061633959696110e-01
3.740773284132890009e-01 7.771620157099050630e-01
3.751178773099543839e-01 7.758223635994987433e-01
3.761584262066197670e-01 7.507867345938237236e-01
3.771989751032851501e-01 6.462369666476774910e-01
3.782395239999505332e-01 3.646054862555061504e-01
3.792800728966159163e-01 4.997114860138971437e-01
3.803206217932812994e-01 6.702618431211959660e-01
3.813611706899466824e-01 6.442445788692623410e-01
3.824017195866120655e-01 4.228257878227665856e-01
3.834422684832774486e-01 5.420284309187834992e-01
3.844828173799428317e-01 6.620666372261325705e-01
3.855233662766082148e-01 5.727055956728790420e-01
3.865639151732735979e-01 4.483938458431815377e-01
3.876044640699389809e-01 4.122354648123369714e-01
3.886450129666043640e-01 3.630035209496114135e-01
3.896855618632697471e-01 4.075817638870091741e-01
3.907261107599351302e-01 4.847835216864773145e-01
3.917666596566005133e-01 5.528992678854045550e-01
3.928072085532658964e-01 4.282448413267161413e-01
3.938477574499312794e-01 4.819727093714512023e-01
3.948883063465966625e-01 4.355173304905797238e-01
3.959288552432620456e-01 2.683303660517424305e-01
3.969694041399274287e-01 3.542153790344784170e-01
3.980099530365928118e-01 3.594081114464984239e-01
3.990505019332581949e-01 3.501007055585887429e-01
4.000910508299235779e-01 4.522741174704947298e-01
4.011315997265889610e-01 5.059445654535075221e-01
4.021721486232543441e-01 4.548960855932406844e-01
4.032126975199197272e-01 3.999692683067408439e-01
4.042532464165851103e-01 3.389665102654078055e-01
4.052937953132504934e-01 3.518193342940030277e-01
4.063343442099158764e-01 5.283029436892761055e-01
4.073748931065812595e-01 4.881858984630440546e-01
4.084154420032466426e-01 4.193188385833934717e-01
4.094559908999120257e-01 3.560510532306686571e-01
4.104965397965774088e-01 2.980537166474732658e-01
4.115370886932427918e-01 2.419562845588707489e-01
4.125776375899081749e-01 3.431172712394250368e-01
4.136181864865735580e-01 3.967695349142630334e-01
4.146587353832389411e-01 2.949247722789856141e-01
4.156992842799043242e-01 3.206094438626472254e-01
4.167398331765697073e-01 3.277733170245866745e-01
4.177803820732350903e-01 1.800074636677280182e-01
4.188209309699004734e-01 5.375737982404160675e-02
4.198614798665658565e-01 2.063698169707812724e-01
4.209020287632312396e-01 2.497672483099400154e-01
4.219425776598966227e-01 3.622345260237196385e-01
4.229831265565620058e-01 2.718800847900695317e-01
4.240236754532273888e-01 2.131555059270588970e-01
4.250642243498927719e-01 3.626002266008470087e-01
4.261047732465581550e-01 3.020042542834104893e-01
4.271453221432235381e-01 2.656695689820409712e-01
4.281858710398889212e-01 2.315035937772798036e-01
4.292264199365543043e-01 3.776645750989118255e-01
4.302669688332196873e-01 3.880226453399160391e-01
4.313075177298850704e-01 4.929875745710745605e-01
4.323480666265504535e-01 4.218586856771722182e-01
4.333886155232158366e-01 3.251884425025401981e-01
4.344291644198812197e-01 4.058861780844402745e-01
