# q (1/Angstrom), Intensity (arb)
2.029070354705860696e-02 1.397074386586830769e+03
2.133125244372399004e-02 1.389763083583588696e+03
2.237180134038937659e-02 1.391151049746123590e+03
2.341235023705475968e-02 1.382893206621773743e+03
2.445289913372014276e-02 1.367533952813006181e+03
2.549344803038552584e-02 1.357655356451077523e+03
2.653399692705091240e-02 1.347751381063742201e+03
2.757454582371629548e-02 1.334350915336763592e+03
2.861509472038167856e-02 1.318898645075957802e+03
2.965564361704706164e-02 1.306536323123542388e+03
3.069619251371244473e-02 1.291420939032891283e+03
3.173674141037782781e-02 1.270143513376817054e+03
3.277729030704321089e-02 1.249753045841088351e+03
3.381783920370859398e-02 1.227855581373212999e+03
3.485838810037397706e-02 1.208436439790125632e+03
3.589893699703936014e-02 1.190188831895679641e+03
3.693948589370474322e-02 1.171012457047481803e+03
3.798003479037012631e-02 1.154152538738746671e+03
3.902058368703550939e-02 1.133036540331528613e+03
4.006113258370089247e-02 1.105632013912110779e+03
4.110168148036627556e-02 1.086163577279792889e+03
4.214223037703165864e-02 1.063467760812189454e+03
4.318277927369704866e-02 1.038704494477646222e+03
4.422332817036243174e-02 1.015387205325398554e+03
4.526387706702781483e-02 9.913297469932883814e+02
4.630442596369319791e-02 9.720441681951430155e+02
4.734497486035858099e-02 9.478751881445970184e+02
4.838552375702396408e-02 9.247054619637465294e+02
4.942607265368934716e-02 9.014779913144780039e+02
5.046662155035473024e-02 8.791369181869496288e+02
5.150717044702011332e-02 8.570561716949625861e+02
5.254771934368549641e-02 8.318899876313395225e+02
5.358826824035087949e-02 8.087270022144867880e+02
5.462881713701626257e-02 7.856232349502409988e+02
5.566936603368164566e-02 7.618201160259642393e+02
5.670991493034702874e-02 7.406688067249720007e+02
5.775046382701241182e-02 7.186352797492393165e+02
5.879101272367779490e-02 6.961801560341318691e+02
5.983156162034317799e-02 6.745621306117826634e+02
6.087211051700856107e-02 6.517905614502407161e+02
6.191265941367394415e-02 6.295147897412583688e+02
6.295320831033933417e-02 6.091895219214467261e+02
6.399375720700471726e-02 5.876375300287684240e+02
6.503430610367010034e-02 5.664047282425588037e+02
6.607485500033548342e-02 5.468947752713887667e+02
6.711540389700086651e-02 5.276003115865655673e+02
6.815595279366624959e-02 5.052979014486036249e+02
6.919650169033163267e-02 4.873567305366739220e+02
7.023705058699701576e-02 4.693503558086549674e+02
7.127759948366239884e-02 4.496287237199819629e+02
7.231814838032778192e-02 4.299286413471057244e+02
7.335869727699316500e-02 4.118610674019356566e+02
7.439924617365854809e-02 3.956505115508866197e+02
7.543979507032393117e-02 3.763120943883260452e+02
7.648034396698931425e-02 3.583239806194414996e+02
7.752089286365469734e-02 3.422500224618349876e+02
7.856144176032008042e-02 3.260403800511124359e+02
7.960199065698546350e-02 3.109591510522736826e+02
8.064253955365084658e-02 2.971679691719011771e+02
8.168308845031622967e-02 2.824408314478067155e+02
8.272363734698161275e-02 2.677648201718294558e+02
8.376418624364699583e-02 2.533414797920896433e+02
8.480473514031239279e-02 2.388324143802214792e+02
8.584528403697777588e-02 2.262714423291887158e+02
8.688583293364315896e-02 2.136840170038046551e+02
8.792638183030854204e-02 2.012788623248722786e+02
8.896693072697392513e-02 1.889029712851100271e+02
9.000747962363930821e-02 1.783715700607847339e+02
9.104802852030469129e-02 1.676518756998322885e+02
9.208857741697007437e-02 1.563324341235548331e+02
9.312912631363545746e-02 1.458936370044160356e+02
9.416967521030084054e-02 1.368837694094962671e+02
9.521022410696622362e-02 1.275343576365453941e+02
9.625077300363160671e-02 1.191630456294032854e+02
9.729132190029698979e-02 1.110923079203664656e+02
9.833187079696237287e-02 1.028452011734278386e+02
9.937241969362775595e-02 9.516430173609533938e+01
1.004129685902931390e-01 8.796395662789495873e+01
1.014535174869585221e-01 8.072782368102076589e+01
1.024940663836239052e-01 7.375403848335174928e+01
1.035346152802892883e-01 6.791022600804242870e+01
1.045751641769546714e-01 6.235790737069956435e+01
1.056157130736200545e-01 5.711199709126493929e+01
1.066562619702854375e-01 5.187896267349479018e+01
1.076968108669508206e-01 4.731832706682253331e+01
1.087373597636162037e-01 4.290211190471185887e+01
1.097779086602815868e-01 3.898597612934828760e+01
1.108184575569469699e-01 3.535516296111212853e+01
1.118590064536123529e-01 3.149038591988166047e+01
1.128995553502777360e-01 2.796473868340542879e+01
1.139401042469431191e-01 2.440088052526541418e+01
1.149806531436085022e-01 2.150544124737744767e+01
1.160212020402738853e-01 1.900337594207262271e+01
1.170617509369392684e-01 1.666806888603067449e+01
1.181022998336046514e-01 1.462667287110729575e+01
1.191428487302700345e-01 1.266637608591684483e+01
1.201833976269354176e-01 1.031308125037170242e+01
1.212239465236008007e-01 9.147225640349397224e+00
1.222644954202661838e-01 8.141448638937710314e+00
1.233050443169315669e-01 6.745123251187386870e+00
1.243455932135969499e-01 5.616948173060684724e+00
1.253861421102623330e-01 4.449658475334935304e+00
1.264266910069277161e-01 3.758724347243799002e+00
1.274672399035930992e-01 3.123895248412310366e+00
1.285077888002584823e-01 2.797886841581764372e+00
1.295483376969238654e-01 2.176482306840654246e+00
1.305888865935892484e-01 1.904934425906901652e+00
1.316294354902546315e-01 1.996042939534468985e+00
1.326699843869200146e-01 1.932869568769142177e+00
1.337105332835853977e-01 1.557248977742652585e+00
1.347510821802507808e-01 1.436343381020911636e+00
1.357916310769161639e-01 1.802958961054933695e+00
1.368321799735815469e-01 1.986512506711768822e+00
1.378727288702469300e-01 2.278161282653933029e+00
1.389132777669123131e-01 3.026849445482689305e+00
1.399538266635776962e-01 3.124932746791884597e+00
1.409943755602430793e-01 3.338084710580027092e+00
1.420349244569084624e-01 3.415714055507137914e+00
1.430754733535738454e-01 4.011956189687161611e+00
1.441160222502392285e-01 4.554580655260089372e+00
1.451565711469046116e-01 4.661649224368673572e+00
1.461971200435699947e-01 5.370693364456798236e+00
1.472376689402353778e-01 5.697911631824183587e+00
1.482782178369007609e-01 5.991278359900633177e+00
1.493187667335661439e-01 6.208382885878812374e+00
1.503593156302315270e-01 6.260434847887999865e+00
1.513998645268969101e-01 6.959254925846074968e+00
1.524404134235622932e-01 7.737153138559627052e+00
1.534809623202276763e-01 8.164695986907744896e+00
1.545215112168930593e-01 8.407219310205874763e+00
1.555620601135584424e-01 8.585265999585338648e+00
1.566026090102238255e-01 9.099798713889725832e+00
1.576431579068892086e-01 9.124918442433639143e+00
1.586837068035545917e-01 9.577427028104239071e+00
1.597242557002199748e-01 1.006877430496236059e+01
1.607648045968853578e-01 9.678341857365019507e+00
1.618053534935507409e-01 9.909102780864891713e+00
1.628459023902161240e-01 1.020964049114233774e+01
1.638864512868815071e-01 1.025006866906505820e+01
1.649270001835468902e-01 1.044734039731883257e+01
1.659675490802122733e-01 1.037069521122875670e+01
1.670080979768776563e-01 1.079083691551342383e+01
1.680486468735430672e-01 1.077356339852988043e+01
1.690891957702084503e-01 1.049008136583345419e+01
1.701297446668738333e-01 1.025565213199524095e+01
1.711702935635392164e-01 1.103207833834233043e+01
1.722108424602045995e-01 1.024189804514735158e+01
1.732513913568699826e-01 1.042323464451665416e+01
1.742919402535353657e-01 1.048904695444949908e+01
1.753324891502007488e-01 1.047720852828670246e+01
1.763730380468661318e-01 1.048596645277410033e+01
1.774135869435315149e-01 1.008036405047662498e+01
1.784541358401968980e-01 1.033533308777052895e+01
1.794946847368622811e-01 9.971428134931258569e+00
1.805352336335276642e-01 9.391040735029271502e+00
1.815757825301930473e-01 8.834139492669017102e+00
1.826163314268584303e-01 8.799852576360230216e+00
1.836568803235238134e-01 8.782881207930053336e+00
1.846974292201891965e-01 8.476295843046752765e+00
1.857379781168545796e-01 8.192455314661440724e+00
1.867785270135199627e-01 8.001327411755262631e+00
1.878190759101853458e-01 7.665709429344953918e+00
1.888596248068507288e-01 7.134218510698989490e+00
1.899001737035161119e-01 7.015463876231013529e+00
1.909407226001814950e-01 6.964028499123806171e+00
1.919812714968468781e-01 6.581061824572529417e+00
1.930218203935122612e-01 5.987935223182429212e+00
1.940623692901776443e-01 5.532174048168286618e+00
1.951029181868430273e-01 5.400777937144930263e+00
1.961434670835084104e-01 5.230000556062144312e+00
1.971840159801737935e-01 4.687162605531906223e+00
1.982245648768391766e-01 4.361456545623717318e+00
1.992651137735045597e-01 4.236877047000895402e+00
2.003056626701699428e-01 3.835343725108071311e+00
2.013462115668353813e-01 3.727170570125430515e+00
2.023867604635007644e-01 3.624222686099106028e+00
2.034273093601661475e-01 3.341648758927121321e+00
2.044678582568315306e-01 2.918956256967327079e+00
2.055084071534969137e-01 3.100494437005114179e+00
2.065489560501622968e-01 2.634598366188932062e+00
2.075895049468276798e-01 2.302753776424001586e+00
2.086300538434930629e-01 2.094081874093056683e+00
2.096706027401584460e-01 1.746664598491285858e+00
2.107111516368238291e-01 1.783120791982732101e+00
2.117517005334892122e-01 1.701715716741770024e+00
2.127922494301545953e-01 1.556991735602348825e+00
2.138327983268199783e-01 1.582993657830296996e+00
2.148733472234853614e-01 1.365277408413142268e+00
2.159138961201507445e-01 1.241566370278309961e+00
2.169544450168161276e-01 1.258211075445228033e+00
2.179949939134815107e-01 1.011492802613474851e+00
2.190355428101468938e-01 7.046002696145947652e-01
2.200760917068122768e-01 7.609580473895967145e-01
2.211166406034776599e-01 6.340701048400205764e-01
2.221571895001430430e-01 4.410382336130709291e-01
2.231977383968084261e-01 5.320952523652309196e-01
2.242382872934738092e-01 4.767187692824670364e-01
2.252788361901391923e-01 2.675647414512951627e-01
2.263193850868045753e-01 6.414254463230122383e-01
2.273599339834699584e-01 3.199034150925612607e-01
2.284004828801353415e-01 2.684327803313699690e-01
2.294410317768007246e-01 5.093571736717379395e-01
2.304815806734661077e-01 5.116991826613030980e-01
2.315221295701314908e-01 2.140055889426335511e-01
2.325626784667968738e-01 3.194061451184069256e-01
2.336032273634622569e-01 3.846404633125359851e-01
2.346437762601276400e-01 5.737836076797648843e-01
2.356843251567930231e-01 7.030025981433460913e-01
2.367248740534584062e-01 5.219262275738607570e-01
2.377654229501237892e-01 3.843557081911548323e-01
2.388059718467891723e-01 3.127448718910379455e-01
2.398465207434545554e-01 3.804537964048861909e-01
2.408870696401199385e-01 6.722789575616943125e-01
2.419276185367853216e-01 9.467442591817629705e-01
2.429681674334507047e-01 1.083037869600541825e+00
2.440087163301160877e-01 9.196358637574597594e-01
2.450492652267814708e-01 7.851095621009847036e-01
2.460898141234468539e-01 9.115939621765285494e-01
2.471303630201122370e-01 9.259705860594564797e-01
2.481709119167776201e-01 9.493457197039774087e-01
2.492114608134430032e-01 9.657057228968035645e-01
2.502520097101083585e-01 1.264729140508070060e+00
2.512925586067737416e-01 1.532599430947303887e+00
2.523331075034391247e-01 1.483821493498119537e+00
2.533736564001045077e-01 1.339676721031604956e+00
2.544142052967698908e-01 1.496648542802159199e+00
2.554547541934352739e-01 1.624938021483533390e+00
2.564953030901006570e-01 1.338544145726576318e+00
2.575358519867660401e-01 1.386800634375802588e+00
2.585764008834314231e-01 1.550832957842651183e+00
2.596169497800968062e-01 1.569935451842972896e+00
2.606574986767621893e-01 1.298213643915204329e+00
2.616980475734275724e-01 1.029549859826172309e+00
2.627385964700929555e-01 1.397468333544242824e+00
2.637791453667583386e-01 1.533910441100822197e+00
2.648196942634237216e-01 1.642603478893725821e+00
2.658602431600891047e-01 1.719730671856343207e+00
2.669007920567544878e-01 2.001803352212352394e+00
2.679413409534198709e-01 1.622112442892174045e+00
2.689818898500852540e-01 1.542285077650955571e+00
2.700224387467506371e-01 1.410200710026728643e+00
2.710629876434160201e-01 1.720788702649180379e+00
2.721035365400814032e-01 1.681310124658470073e+00
2.731440854367467863e-01 1.326634048108708441e+00
2.741846343334121694e-01 1.415737511430808837e+00
2.752251832300775525e-01 1.509611420384494807e+00
2.762657321267429356e-01 1.683783509814954726e+00
2.773062810234083186e-01 1.398093197818422340e+00
2.783468299200737017e-01 1.452032185259636066e+00
2.793873788167390848e-01 1.290561045359314818e+00
2.804279277134044679e-01 1.411561928228334040e+00
2.814684766100698510e-01 1.207611362819438483e+00
2.825090255067352341e-01 1.160884624518814690e+00
2.835495744034006171e-01 1.341197353629102196e+00
2.845901233000660002e-01 1.266206874164826246e+00
2.856306721967313833e-01 1.104305457001064639e+00
2.866712210933967664e-01 1.343716973823443794e+00
2.877117699900621495e-01 1.152264537306379566e+00
2.887523188867275326e-01 1.152179640174029629e+00
2.897928677833929156e-01 9.374780035329770556e-01
2.908334166800582987e-01 8.491790072459544092e-01
2.918739655767236818e-01 9.161662926310789601e-01
2.929145144733890649e-01 8.604495508913352353e-01
2.939550633700544480e-01 8.381817465431780079e-01
2.949956122667198311e-01 5.798301200948401402e-01
2.960361611633852141e-01 5.264283962421387741e-01
2.970767100600505972e-01 8.377709444044150189e-01
2.981172589567159803e-01 8.270080356797642196e-01
2.991578078533813634e-01 5.798460322689820146e-01
3.001983567500468020e-01 7.131829763281629653e-01
3.012389056467121851e-01 7.609410462955352727e-01
3.022794545433775681e-01 7.172739065887192567e-01
3.033200034400429512e-01 6.524884850400738401e-01
3.043605523367083343e-01 6.581008259374954150e-01
3.054011012333737174e-01 6.870556161628051939e-01
3.064416501300391005e-01 2.816147495356595698e-01
3.074821990267044836e-01 3.322287489515609593e-01
3.085227479233698666e-01 5.030579947130391361e-01
3.095632968200352497e-01 6.157485878528845546e-01
3.106038457167006328e-01 4.038544997019073435e-01
3.116443946133660159e-01 3.153896531749929011e-01
3.126849435100313990e-01 4.405912601161894315e-01
3.137254924066967821e-01 6.462343990059302712e-01
3.147660413033621651e-01 6.641249394890280655e-01
3.158065902000275482e-01 6.091515725891127886e-01
3.168471390966929313e-01 6.873453024633064956e-01
3.178876879933583144e-01 5.953586259457352980e-01
3.189282368900236975e-01 4.736365988430932816e-01
3.199687857866890806e-01 2.865398121710605039e-01
3.210093346833544636e-01 3.233095736147468813e-01
3.220498835800198467e-01 8.475932254492235529e-02
3.230904324766852298e-01 0.000000000000000000e+00
3.241309813733506129e-01 1.995130663169852880e-01
3.251715302700159960e-01 3.428002341887008697e-01
3.262120791666813790e-01 2.973480755848463275e-01
3.272526280633467621e-01 2.803487050399091629e-01
3.282931769600121452e-01 9.838536431575306551e-02
3.293337258566775283e-01 1.200286456918782108e-01
3.303742747533429114e-01 1.942202833424921948e-01
3.314148236500082945e-01 2.856110513198508727e-01
3.324553725466736775e-01 4.008453860934899637e-01
3.334959214433390606e-01 6.076098306340398381e-01
3.345364703400044437e-01 5.958636148631590856e-01
3.355770192366698268e-01 3.984577629848331526e-01
3.366175681333352099e-01 3.824423001447527781e-01
3.376581170300005930e-01 2.772574813017847362e-01
3.386986659266659760e-01 1.946757219328318911e-01
3.397392148233313591e-01 3.121926741492657698e-01
3.407797637199967422e-01 3.299968522866230103e-01
3.418203126166621253e-01 6.391918636773255002e-01
3.428608615133275084e-01 7.270988960371447263e-01
3.439014104099928915e-01 4.682887144656575629e-01
3.449419593066582745e-01 3.315451565635925135e-01
3.459825082033236576e-01 4.882849355534197855e-01
3.470230570999890407e-01 6.038032012402752002e-01
3.480636059966544238e-01 3.726371365631919730e-01
3.491041548933198069e-01 3.999284750879112948e-01
3.501447037899851900e-01 5.042703920087596714e-01
3.511852526866505730e-01 5.903706334257883270e-01
3.522258015833159561e-01 5.479677370871911535e-01
3.532663504799813392e-01 6.628072382371641424e-01
3.543068993766467223e-01 8.360626394467374212e-01
3.553474482733121054e-01 7.756830470395819077e-01
3.563879971699774885e-01 6.140645501709087739e-01
3.574285460666428715e-01 5.921117994689630848e-01
3.584690949633082546e-01 5.545702558979996866e-01
3.595096438599736377e-01 5.194793101664174628e-01
3.605501927566390208e-01 5.189075196448840188e-01
3.615907416533044039e-01 6.214430718473273885e-01
3.626312905499697870e-01 6.376580594282437175e-01
3.636718394466351700e-01 6.997116830730227832e-01
3.647123883433005531e-01 5.921752006946121583e-01
3.657529372399659362e-01 5.334942465612151352e-01
3.667934861366313193e-01 5.475269840977077251e-01
3.678340350332967024e-01 6.603276347415807379e-01
3.688745839299620854e-01 6.337608348577816741e-01
3.699151328266274685e-01 6.467310936756867079e-01
3.709556817232928516e-01 6.983265486872589634e-01
3.719962306199582347e-01 7.933920654808446216e-01
3.730367795166236178e-01 7.990296463356045820e-01
3.740773284132890009e-01 7.393755848398200214e-01
3.751178773099543839e-01 7.454797171111202658e-01
3.761584262066197670e-01 4.832264080031016817e-01
3.771989751032851501e-01 3.710349521767781766e-01
3.782395239999505332e-01 6.262682810218507257e-01
3.792800728966159163e-01 5.908676995908450635e-01
3.803206217932812994e-01 5.454365421622497934e-01
3.813611706899466824e-01 5.172773112717088395e-01
3.824017195866120655e-01 5.668627814547377852e-01
3.834422684832774486e-01 5.927068322969759606e-01
3.844828173799428317e-01 5.029733572825172416e-01
3.855233662766082148e-01 4.641785456477514060e-01
3.865639151732735979e-01 4.973055776451928978e-01
3.876044640699389809e-01 7.641774824474545369e-01
3.886450129666043640e-01 6.832512488150292995e-01
3.896855618632697471e-01 4.600772509449484460e-01
3.907261107599351302e-01 3.868782017559055930e-01
3.917666596566005133e-01 3.916830100965000838e-01
3.928072085532658964e-01 4.803062945027392061e-01
3.938477574499312794e-01 4.840739754193243982e-01
3.948883063465966625e-01 3.322154062878510672e-01
3.959288552432620456e-01 3.335202762116757924e-01
3.969694041399274287e-01 4.396811241352267530e-01
3.980099530365928118e-01 4.296550264101703931e-01
3.990505019332581949e-01 4.993714861924232196e-01
4.000910508299235779e-01 4.221116675387968087e-01
4.011315997265889610e-01 4.219008343054646559e-01
4.021721486232543441e-01 3.271338987387117925e-01
4.032126975199197272e-01 2.138343259562631715e-01
4.042532464165851103e-01 2.315426621672962426e-01
4.052937953132504934e-01 3.561122163372409943e-01
4.063343442099158764e-01 3.890647360598400439e-01
4.073748931065812595e-01 2.263973458932113658e-01
4.084154420032466426e-01 1.287313255839990234e-01
4.094559908999120257e-01 3.518457046297136515e-01
4.104965397965774088e-01 3.424088257579853689e-01
4.115370886932427918e-01 2.693068751060607724e-01
4.125776375899081749e-01 2.948043883875648419e-01
4.136181864865735580e-01 2.057948698466987025e-01
4.146587353832389411e-01 2.025138611832097979e-01
4.156992842799043242e-01 2.023987386796228805e-01
4.167398331765697073e-01 1.851666735773953576e-01
4.177803820732350903e-01 2.403145406862527977e-01
4.188209309699004734e-01 3.467735111860044128e-01
4.198614798665658565e-01 3.889478625713920223e-01
4.209020287632312396e-01 5.718887314105174369e-01
4.219425776598966227e-01 4.625727513250552647e-01
4.229831265565620058e-01 2.967254600195659009e-01
4.240236754532273888e-01 2.738194957279524999e-01
4.250642243498927719e-01 4.376445551436809467e-01
4.261047732465581550e-01 5.353146738989593700e-01
4.271453221432235381e-01 4.011705766919320126e-01
4.281858710398889212e-01 4.855247847451771293e-01
4.292264199365543043e-01 5.196187270433902938e-01
4.302669688332196873e-01 3.919222554441752493e-01
4.313075177298850704e-01 3.604571306455248703e-01
4.323480666265504535e-01 3.408534540805128188e-01
4.333886155232158366e-01 3.485965814255784778e-01
4.344291644198812197e-01 4.876576166276791469e-01
