# q (1/Angstrom), Intensity (arb)
2.029070354705860696e-02 1.395155365855111540e+03
2.133125244372399004e-02 1.393114986766613129e+03
2.237180134038937659e-02 1.387151275168198026e+03
2.341235023705475968e-02 1.380492171358724590e+03
2.445289913372014276e-02 1.369399954974948741e+03
2.549344803038552584e-02 1.365900127262963451e+03
2.653399692705091240e-02 1.346088483317987539e+03
2.757454582371629548e-02 1.322243583889324327e+03
2.861509472038167856e-02 1.305003379330821645e+03
2.965564361704706164e-02 1.294721264061327474e+03
3.069619251371244473e-02 1.283191116265338223e+03
3.173674141037782781e-02 1.265757757062160181e+03
3.277729030704321089e-02 1.245539728353468263e+03
3.381783920370859398e-02 1.221637819307247582e+03
3.485838810037397706e-02 1.201359043134548529e+03
3.589893699703936014e-02 1.185343489771396435e+03
3.693948589370474322e-02 1.167981267398857653e+03
3.798003479037012631e-02 1.143449026816665992e+03
3.902058368703550939e-02 1.121477344953776765e+03
4.006113258370089247e-02 1.100184274392150201e+03
4.110168148036627556e-02 1.080327707934668069e+03
4.214223037703165864e-02 1.058270805987177482e+03
4.318277927369704866e-02 1.037972551941998745e+03
4.422332817036243174e-02 1.012954063863555007e+03
4.526387706702781483e-02 9.893272327617199835e+02
4.630442596369319791e-02 9.694002657040560962e+02
4.734497486035858099e-02 9.450900492564525166e+02
4.838552375702396408e-02 9.221627205862756682e+02
4.942607265368934716e-02 8.993108472721324915e+02
5.046662155035473024e-02 8.778240176895110380e+02
5.150717044702011332e-02 8.538176513724987444e+02
5.254771934368549641e-02 8.291552892338623906e+02
5.358826824035087949e-02 8.054646199784848477e+02
5.462881713701626257e-02 7.823336092742644041e+02
5.566936603368164566e-02 7.598468590431917846e+02
5.670991493034702874e-02 7.398031489797375571e+02
5.775046382701241182e-02 7.171097655037648337e+02
5.879101272367779490e-02 6.920817036705484497e+02
5.983156162034317799e-02 6.678710366624123935e+02
6.087211051700856107e-02 6.481842666519850127e+02
6.191265941367394415e-02 6.276004162127859445e+02
6.295320831033933417e-02 6.042942597295575524e+02
6.399375720700471726e-02 5.833124550909133177e+02
6.503430610367010034e-02 5.631250289016873012e+02
6.607485500033548342e-02 5.445628783342056067e+02
6.711540389700086651e-02 5.243579269605929767e+02
6.815595279366624959e-02 5.039587007258195968e+02
6.919650169033163267e-02 4.860464077664075262e+02
7.023705058699701576e-02 4.653536371384466293e+02
7.127759948366239884e-02 4.462593711589519216e+02
7.231814838032778192e-02 4.268213153713345491e+02
7.335869727699316500e-02 4.103650268175920814e+02
7.439924617365854809e-02 3.937155429035537395e+02
7.543979507032393117e-02 3.742461650138370715e+02
7.648034396698931425e-02 3.568923431396934802e+02
7.752089286365469734e-02 3.395376035019621668e+02
7.856144176032008042e-02 3.247774203845354464e+02
7.960199065698546350e-02 3.107575850192830558e+02
8.064253955365084658e-02 2.946852187694371992e+02
8.168308845031622967e-02 2.781348160413661503e+02
8.272363734698161275e-02 2.641284515810402809e+02
8.376418624364699583e-02 2.513972973766136079e+02
8.480473514031239279e-02 2.375408243757099171e+02
8.584528403697777588e-02 2.232319176770810714e+02
8.688583293364315896e-02 2.103241842522469938e+02
8.792638183030854204e-02 1.976460890149176350e+02
8.896693072697392513e-02 1.867494161837424258e+02
9.000747962363930821e-02 1.764573097116161193e+02
9.104802852030469129e-02 1.664321894533080695e+02
9.208857741697007437e-02 1.562799762778639092e+02
9.312912631363545746e-02 1.457580841800698579e+02
9.416967521030084054e-02 1.347574211304850564e+02
9.521022410696622362e-02 1.265467192601476540e+02
9.625077300363160671e-02 1.183128503230472290e+02
9.729132190029698979e-02 1.097853717068303467e+02
9.833187079696237287e-02 1.014154207459654344e+02
9.937241969362775595e-02 9.301211767978276157e+01
1.004129685902931390e-01 8.573154685062671376e+01
1.014535174869585221e-01 7.855597474975928662e+01
1.024940663836239052e-01 7.240148139336154998e+01
1.035346152802892883e-01 6.733901366809044475e+01
1.045751641769546714e-01 6.211192167509561557e+01
1.056157130736200545e-01 5.581680327222740345e+01
1.066562619702854375e-01 5.073354237493820307e+01
1.076968108669508206e-01 4.668831120392628975e+01
1.087373597636162037e-01 4.171855850868264071e+01
1.097779086602815868e-01 3.704213704976179145e+01
1.108184575569469699e-01 3.291003577578510431e+01
1.118590064536123529e-01 2.992114803416532709e+01
1.128995553502777360e-01 2.691885078161192979e+01
1.139401042469431191e-01 2.408007609856696263e+01
1.149806531436085022e-01 2.102107862028403673e+01
1.160212020402738853e-01 1.879528547715928255e+01
1.170617509369392684e-01 1.684220387386054796e+01
1.181022998336046514e-01 1.464220655634125023e+01
1.191428487302700345e-01 1.206548263221605310e+01
1.201833976269354176e-01 1.036097374140619110e+01
1.212239465236008007e-01 8.909447766421827453e+00
1.222644954202661838e-01 7.819488809272073127e+00
1.233050443169315669e-01 6.591912359503332652e+00
1.243455932135969499e-01 5.309737261717472734e+00
1.253861421102623330e-01 4.167732196122877042e+00
1.264266910069277161e-01 3.557503724444153193e+00
1.274672399035930992e-01 2.930493469812034846e+00
1.285077888002584823e-01 2.521909173972204599e+00
1.295483376969238654e-01 2.234275439031215171e+00
1.305888865935892484e-01 1.983903894474444485e+00
1.316294354902546315e-01 1.671961945341458033e+00
1.326699843869200146e-01 1.090906738211259608e+00
1.337105332835853977e-01 1.374742915483849970e+00
1.347510821802507808e-01 1.494264339694900912e+00
1.357916310769161639e-01 1.544574717354372240e+00
1.368321799735815469e-01 1.764540476465121799e+00
1.378727288702469300e-01 2.199754451136499256e+00
1.389132777669123131e-01 2.282601895729591490e+00
1.399538266635776962e-01 2.892674025540571847e+00
1.409943755602430793e-01 3.368071934490103558e+00
1.420349244569084624e-01 3.102332604473552635e+00
1.430754733535738454e-01 3.571275779836582842e+00
1.441160222502392285e-01 4.364326085253523502e+00
1.451565711469046116e-01 4.790872764932927907e+00
1.461971200435699947e-01 4.786870626263713291e+00
1.472376689402353778e-01 5.306133740931393561e+00
1.482782178369007609e-01 5.855462207441448186e+00
1.493187667335661439e-01 6.431879402249620625e+00
1.503593156302315270e-01 6.708134214280924823e+00
1.513998645268969101e-01 6.981484256482403339e+00
1.524404134235622932e-01 7.389675576357319642e+00
1.534809623202276763e-01 7.335120782721389787e+00
1.545215112168930593e-01 7.800635650908375851e+00
1.555620601135584424e-01 8.749913415147602791e+00
1.566026090102238255e-01 8.839193256741239679e+00
1.576431579068892086e-01 9.095429863818068839e+00
1.586837068035545917e-01 9.547100424217354941e+00
1.597242557002199748e-01 9.671478903653785153e+00
1.607648045968853578e-01 9.653714096618159601e+00
1.618053534935507409e-01 9.873698866293310061e+00
1.628459023902161240e-01 1.006269859335812100e+01
1.638864512868815071e-01 1.019390012938306711e+01
1.649270001835468902e-01 1.013791381349616216e+01
1.659675490802122733e-01 1.048220541590912802e+01
1.670080979768776563e-01 1.052383885692234600e+01
1.680486468735430672e-01 1.059384847919564265e+01
1.690891957702084503e-01 1.089725061838885267e+01
1.701297446668738333e-01 1.100596761904746756e+01
1.711702935635392164e-01 1.077037685601897010e+01
1.722108424602045995e-01 1.038746993610070035e+01
1.732513913568699826e-01 1.055773460731418112e+01
1.742919402535353657e-01 1.039743096398312616e+01
1.753324891502007488e-01 9.753784701482622665e+00
1.763730380468661318e-01 9.851989409372727380e+00
1.774135869435315149e-01 9.906659296651973534e+00
1.784541358401968980e-01 1.010023228421704289e+01
1.794946847368622811e-01 9.745262577181513564e+00
1.805352336335276642e-01 9.311555282262048649e+00
1.815757825301930473e-01 8.979190474514950893e+00
1.826163314268584303e-01 8.749551755363285110e+00
1.836568803235238134e-01 8.264910198143226694e+00
1.846974292201891965e-01 8.160693366812054705e+00
1.857379781168545796e-01 8.354430425263199567e+00
1.867785270135199627e-01 7.794070271993177812e+00
1.878190759101853458e-01 7.216146766332954599e+00
1.888596248068507288e-01 6.672154046236364877e+00
1.899001737035161119e-01 6.708018038189216270e+00
1.909407226001814950e-01 6.758208884140074701e+00
1.919812714968468781e-01 6.140889727791986274e+00
1.930218203935122612e-01 5.719464839911779563e+00
1.940623692901776443e-01 5.760691185556368055e+00
1.951029181868430273e-01 5.284630454562037727e+00
1.961434670835084104e-01 4.976684442013272758e+00
1.971840159801737935e-01 4.853795245580855067e+00
1.982245648768391766e-01 4.537006997566827238e+00
1.992651137735045597e-01 4.013122343163136208e+00
2.003056626701699428e-01 4.101838641291227106e+00
2.013462115668353813e-01 3.740262072928963732e+00
2.023867604635007644e-01 3.285277452905933870e+00
2.034273093601661475e-01 2.910018565627634501e+00
2.044678582568315306e-01 2.494179844383545230e+00
2.055084071534969137e-01 2.256421299593778684e+00
2.065489560501622968e-01 2.538798878208829990e+00
2.075895049468276798e-01 2.638257597672321708e+00
2.086300538434930629e-01 2.518261045825621380e+00
2.096706027401584460e-01 2.114095919980101712e+00
2.107111516368238291e-01 1.611644070268816620e+00
2.117517005334892122e-01 1.480709623700228406e+00
2.127922494301545953e-01 1.045085195112996246e+00
2.138327983268199783e-01 7.431965194248491002e-01
2.148733472234853614e-01 8.906864875484217237e-01
2.159138961201507445e-01 7.777096614250496032e-01
2.169544450168161276e-01 5.624200311352147708e-01
2.179949939134815107e-01 6.053196415226835825e-01
2.190355428101468938e-01 7.306541018685415168e-01
2.200760917068122768e-01 3.569065155961723690e-01
2.211166406034776599e-01 9.925611044875992661e-02
2.221571895001430430e-01 2.684156469063587735e-01
2.231977383968084261e-01 1.524125081269964710e-01
2.242382872934738092e-01 3.397451363747236996e-01
2.252788361901391923e-01 5.075640231659406254e-01
2.263193850868045753e-01 3.390899389487280757e-01
2.273599339834699584e-01 2.705573485346306484e-01
2.284004828801353415e-01 3.437103491092976526e-01
2.294410317768007246e-01 3.717784798840462201e-01
2.304815806734661077e-01 7.522406949447528746e-01
2.315221295701314908e-01 6.198640789663087958e-01
2.325626784667968738e-01 3.907429820024361788e-01
2.336032273634622569e-01 1.960874395923291047e-01
2.346437762601276400e-01 3.225924335608567617e-01
2.356843251567930231e-01 6.640181465954029250e-01
2.367248740534584062e-01 7.093238232821832412e-01
2.377654229501237892e-01 4.255276192777266431e-01
2.388059718467891723e-01 4.665211627388110571e-01
2.398465207434545554e-01 5.731031359698022243e-01
2.408870696401199385e-01 5.955295214226161704e-01
2.419276185367853216e-01 2.451943927786182087e-01
2.429681674334507047e-01 3.542540660035236044e-01
2.440087163301160877e-01 4.109337048240853107e-01
2.450492652267814708e-01 7.030759996640014720e-01
2.460898141234468539e-01 6.407495839830694706e-01
2.471303630201122370e-01 8.237309024063215190e-01
2.481709119167776201e-01 1.179308845440864673e+00
2.492114608134430032e-01 1.075514064289627925e+00
2.502520097101083585e-01 1.000926480242526395e+00
2.512925586067737416e-01 9.207407818546826661e-01
2.523331075034391247e-01 1.277560690374745178e+00
2.533736564001045077e-01 1.568682475346111715e+00
2.544142052967698908e-01 1.481722704853591921e+00
2.554547541934352739e-01 1.324696284787730605e+00
2.564953030901006570e-01 1.341102103100404008e+00
2.575358519867660401e-01 1.603988487587280076e+00
2.585764008834314231e-01 1.601133321691580846e+00
2.596169497800968062e-01 1.836517175878409347e+00
2.606574986767621893e-01 1.643768903192899700e+00
2.616980475734275724e-01 1.548254958403973092e+00
2.627385964700929555e-01 1.581354312252067018e+00
2.637791453667583386e-01 1.130277780536204091e+00
2.648196942634237216e-01 1.231233618431950561e+00
2.658602431600891047e-01 1.541478387229673785e+00
2.669007920567544878e-01 1.630625093929914726e+00
2.679413409534198709e-01 1.671459783459841475e+00
2.689818898500852540e-01 1.353186084670770839e+00
2.700224387467506371e-01 1.468721611852451758e+00
2.710629876434160201e-01 1.659890954153141251e+00
2.721035365400814032e-01 1.653678307800472425e+00
2.731440854367467863e-01 1.462684192052083887e+00
2.741846343334121694e-01 1.417985519363767821e+00
2.752251832300775525e-01 1.641353806559457951e+00
2.762657321267429356e-01 1.564801623618702564e+00
2.773062810234083186e-01 1.446243345844880679e+00
2.783468299200737017e-01 1.123967770251049103e+00
2.793873788167390848e-01 1.128272304070137011e+00
2.804279277134044679e-01 1.319577229671850205e+00
2.814684766100698510e-01 1.482122765407051901e+00
2.825090255067352341e-01 1.277150475028708598e+00
2.835495744034006171e-01 1.167327858655202277e+00
2.845901233000660002e-01 1.100674976087969270e+00
2.856306721967313833e-01 1.192852018201328690e+00
2.866712210933967664e-01 1.192589058366987587e+00
2.877117699900621495e-01 1.174015445816166903e+00
2.887523188867275326e-01 9.089571406581349322e-01
2.897928677833929156e-01 6.486100300234163285e-01
2.908334166800582987e-01 5.932587973169916040e-01
2.918739655767236818e-01 6.796344230869628689e-01
2.929145144733890649e-01 5.831576954318400396e-01
2.939550633700544480e-01 3.785010964023705071e-01
2.949956122667198311e-01 6.594788678656904324e-01
2.960361611633852141e-01 7.054780668576370317e-01
2.970767100600505972e-01 4.467262170069972171e-01
2.981172589567159803e-01 3.622293380495946735e-01
2.991578078533813634e-01 6.396368860057570771e-01
3.001983567500468020e-01 8.327119173397434793e-01
3.012389056467121851e-01 5.535605124133837762e-01
3.022794545433775681e-01 3.395514133579915494e-01
3.033200034400429512e-01 5.451119762614702324e-01
3.043605523367083343e-01 2.888771572070645277e-01
3.054011012333737174e-01 1.993315274264659820e-01
3.064416501300391005e-01 1.917542636851017335e-01
3.074821990267044836e-01 6.036556696454091764e-01
3.085227479233698666e-01 5.664554966893504684e-01
3.095632968200352497e-01 4.342782326158776129e-01
3.106038457167006328e-01 3.755911019631064107e-01
3.116443946133660159e-01 5.082254196329181184e-01
3.126849435100313990e-01 4.443029722534355130e-01
3.137254924066967821e-01 3.725727764529018771e-01
3.147660413033621651e-01 3.120708599855070986e-01
3.158065902000275482e-01 2.760530381972330360e-01
3.168471390966929313e-01 4.719713701916425919e-01
3.178876879933583144e-01 2.827674396780466282e-01
3.189282368900236975e-01 2.539427651075421011e-01
3.199687857866890806e-01 2.312307737417782505e-01
3.210093346833544636e-01 1.448855165149041113e-01
3.220498835800198467e-01 1.913091297385740575e-01
3.230904324766852298e-01 2.665622725808560745e-01
3.241309813733506129e-01 8.810449913465134841e-03
3.251715302700159960e-01 1.797372119567413051e-01
3.262120791666813790e-01 1.292151343941227992e-01
3.272526280633467621e-01 2.803743650160015477e-01
3.282931769600121452e-01 3.852519818710398170e-01
3.293337258566775283e-01 4.980712306371515297e-02
3.303742747533429114e-01 0.000000000000000000e+00
3.314148236500082945e-01 2.907173039515953405e-01
3.324553725466736775e-01 3.072519296838187586e-01
3.334959214433390606e-01 1.787529181540179479e-01
3.345364703400044437e-01 2.215072956989594388e-01
3.355770192366698268e-01 4.315608149443974639e-01
3.366175681333352099e-01 3.041625881565011014e-01
3.376581170300005930e-01 4.419664440667574468e-01
3.386986659266659760e-01 5.257740813917450851e-01
3.397392148233313591e-01 3.989739113576966645e-01
3.407797637199967422e-01 1.729214464245849570e-01
3.418203126166621253e-01 1.704075174332295717e-01
3.428608615133275084e-01 1.327937330291710794e-01
3.439014104099928915e-01 2.760930064054285538e-01
3.449419593066582745e-01 4.896113177398042637e-01
3.459825082033236576e-01 4.917822992757550082e-01
3.470230570999890407e-01 4.468879711595263871e-01
3.480636059966544238e-01 4.396923470090285946e-01
3.491041548933198069e-01 4.888275637186900724e-01
3.501447037899851900e-01 3.121035479706470994e-01
3.511852526866505730e-01 5.321348347070440354e-01
3.522258015833159561e-01 5.258439596464370425e-01
3.532663504799813392e-01 3.104885174091940314e-01
3.543068993766467223e-01 4.740248316017137142e-01
3.553474482733121054e-01 4.596119058232162047e-01
3.563879971699774885e-01 4.784685701464646002e-01
3.574285460666428715e-01 5.803756915958295792e-01
3.584690949633082546e-01 5.542808618203558524e-01
3.595096438599736377e-01 7.400947276556557597e-01
3.605501927566390208e-01 5.068555725954908553e-01
3.615907416533044039e-01 3.821945213120372387e-01
3.626312905499697870e-01 4.275559601524712150e-01
3.636718394466351700e-01 5.122708861429003946e-01
3.647123883433005531e-01 5.738502439333856842e-01
3.657529372399659362e-01 5.753619065257140619e-01
3.667934861366313193e-01 4.127698333187552748e-01
3.678340350332967024e-01 3.099604718089068456e-01
3.688745839299620854e-01 5.374039653582585174e-01
3.699151328266274685e-01 7.163464107317842888e-01
3.709556817232928516e-01 5.647888787953050382e-01
3.719962306199582347e-01 4.064066594130544274e-01
3.730367795166236178e-01 2.241713962029336926e-01
3.740773284132890009e-01 2.108105526783496941e-01
3.751178773099543839e-01 3.368973528380863058e-01
3.761584262066197670e-01 5.165219743404882990e-01
3.771989751032851501e-01 5.393701334716460849e-01
3.782395239999505332e-01 5.822992892336884552e-01
3.792800728966159163e-01 5.694602096753769160e-01
3.803206217932812994e-01 3.827306699421981762e-01
3.813611706899466824e-01 3.484260005738697430e-01
3.824017195866120655e-01 4.022017930933472485e-01
3.834422684832774486e-01 2.986805138975370255e-01
3.844828173799428317e-01 1.671047438885757686e-01
3.855233662766082148e-01 2.617385523496693622e-01
3.865639151732735979e-01 4.903512789965951413e-01
3.876044640699389809e-01 2.640534989716307734e-01
3.886450129666043640e-01 2.567496101815329723e-01
3.896855618632697471e-01 4.182112573671155076e-01
3.907261107599351302e-01 4.213915921569331147e-01
3.917666596566005133e-01 4.607921904925760259e-01
3.928072085532658964e-01 4.302235563019465303e-01
3.938477574499312794e-01 4.200572063216370111e-01
3.948883063465966625e-01 2.094217304086107845e-01
3.959288552432620456e-01 9.932099422393392274e-02
3.969694041399274287e-01 2.017299733221378233e-01
3.980099530365928118e-01 3.573305924205349982e-01
3.990505019332581949e-01 4.825946903507016827e-01
4.000910508299235779e-01 2.617469324161483257e-01
4.011315997265889610e-01 1.601102825492084492e-01
4.021721486232543441e-01 1.299693801432120210e-01
4.032126975199197272e-01 2.047616539062993013e-01
4.042532464165851103e-01 2.582453209757886725e-01
4.052937953132504934e-01 2.036257351492736234e-01
4.063343442099158764e-01 2.314273162784417082e-01
4.073748931065812595e-01 1.446886237346269866e-01
4.084154420032466426e-01 1.330930237512717440e-01
4.094559908999120257e-01 1.745274248975867692e-01
4.104965397965774088e-01 3.068266715707501646e-01
4.115370886932427918e-01 1.927887347277170704e-01
4.125776375899081749e-01 1.953385830405558465e-01
4.136181864865735580e-01 1.667427260945366640e-01
4.146587353832389411e-01 3.075044171313123798e-01
4.156992842799043242e-01 3.724356743669900993e-01
4.167398331765697073e-01 3.086903947579209273e-01
4.177803820732350903e-01 2.756551002859062294e-01
4.188209309699004734e-01 2.792046816115849595e-01
4.198614798665658565e-01 1.610938639221757285e-01
4.209020287632312396e-01 7.983325134611618523e-02
4.219425776598966227e-01 4.844613994889712671e-02
4.229831265565620058e-01 2.813381835194945779e-01
4.240236754532273888e-01 2.357200348653378796e-01
4.250642243498927719e-01 2.795655373355963036e-01
4.261047732465581550e-01 2.964772885950672787e-01
4.271453221432235381e-01 3.040299922469813509e-01
4.281858710398889212e-01 3.085990356114756139e-01
4.292264199365543043e-01 2.330654534540279599e-01
4.302669688332196873e-01 4.523763424524744892e-01
4.313075177298850704e-01 4.094011365531322610e-01
4.323480666265504535e-01 3.612307669469103644e-01
4.333886155232158366e-01 3.125608334358496165e-01
4.344291644198812197e-01 2.945598557770026105e-01
