# q (1/Angstrom), Intensity (arb)
2.029070354705860696e-02 1.370770892848361882e+03
2.133125244372399004e-02 1.370666991002229224e+03
2.237180134038937659e-02 1.363692739664342298e+03
2.341235023705475968e-02 1.359159148259680251e+03
2.445289913372014276e-02 1.348210528933394698e+03
2.549344803038552584e-02 1.337857514807378038e+03
2.653399692705091240e-02 1.324028619971409171e+03
2.757454582371629548e-02 1.313016666984407721e+03
2.861509472038167856e-02 1.299733718974096064e+03
2.965564361704706164e-02 1.285628393616754920e+03
3.069619251371244473e-02 1.269452086018012551e+03
3.173674141037782781e-02 1.248700267022808930e+03
3.277729030704321089e-02 1.232328439378997700e+03
3.381783920370859398e-02 1.214084698904361858e+03
3.485838810037397706e-02 1.191582241864528442e+03
3.589893699703936014e-02 1.170382143428329982e+03
3.693948589370474322e-02 1.147416669956792020e+03
3.798003479037012631e-02 1.126922914771176920e+03
3.902058368703550939e-02 1.108886532091879644e+03
4.006113258370089247e-02 1.087593369925191837e+03
4.110168148036627556e-02 1.067312421238158777e+03
4.214223037703165864e-02 1.045611530955097578e+03
4.318277927369704866e-02 1.024273040783882834e+03
4.422332817036243174e-02 1.001164755156887395e+03
4.526387706702781483e-02 9.778948970055271275e+02
4.630442596369319791e-02 9.531664599452733455e+02
4.734497486035858099e-02 9.336301319367615861e+02
4.838552375702396408e-02 9.133982352503704760e+02
4.942607265368934716e-02 8.897592920816056221e+02
5.046662155035473024e-02 8.665740396209755545e+02
5.150717044702011332e-02 8.450603482227872973e+02
5.254771934368549641e-02 8.198591329759764221e+02
5.358826824035087949e-02 7.988122784203354740e+02
5.462881713701626257e-02 7.765805210882208485e+02
5.566936603368164566e-02 7.526235627912183190e+02
5.670991493034702874e-02 7.316177509974397708e+02
5.775046382701241182e-02 7.098441628174188054e+02
5.879101272367779490e-02 6.867771977244369737e+02
5.983156162034317799e-02 6.660099540338269435e+02
6.087211051700856107e-02 6.471902708678552472e+02
6.191265941367394415e-02 6.251818832333514138e+02
6.295320831033933417e-02 6.058201562084830130e+02
6.399375720700471726e-02 5.849754773595579991e+02
6.503430610367010034e-02 5.624038634042971125e+02
6.607485500033548342e-02 5.421539728739636530e+02
6.711540389700086651e-02 5.220396511916493409e+02
6.815595279366624959e-02 5.044124536006954145e+02
6.919650169033163267e-02 4.852173227613120048e+02
7.023705058699701576e-02 4.669119954238529431e+02
7.127759948366239884e-02 4.493037732161867552e+02
7.231814838032778192e-02 4.300290730804226200e+02
7.335869727699316500e-02 4.127704110662521657e+02
7.439924617365854809e-02 3.939968833283596723e+02
7.543979507032393117e-02 3.762962228586042102e+02
7.648034396698931425e-02 3.599761503341526350e+02
7.752089286365469734e-02 3.424209274804345569e+02
7.856144176032008042e-02 3.269748187459672977e+02
7.960199065698546350e-02 3.119673093277030489e+02
8.064253955365084658e-02 2.978777153055352755e+02
8.168308845031622967e-02 2.826186936115791468e+02
8.272363734698161275e-02 2.682051825210370453e+02
8.376418624364699583e-02 2.556923565485740255e+02
8.480473514031239279e-02 2.416888340999431932e+02
8.584528403697777588e-02 2.291873628700423922e+02
8.688583293364315896e-02 2.179032209814358794e+02
8.792638183030854204e-02 2.071188121146497565e+02
8.896693072697392513e-02 1.990613749478884529e+02
9.000747962363930821e-02 1.880193208451211149e+02
9.104802852030469129e-02 1.737939331602540278e+02
9.208857741697007437e-02 1.608296072856308569e+02
9.312912631363545746e-02 1.498844695136833991e+02
9.416967521030084054e-02 1.405340609923082127e+02
9.521022410696622362e-02 1.315515944170716693e+02
9.625077300363160671e-02 1.226131284956962872e+02
9.729132190029698979e-02 1.136932832379201557e+02
9.833187079696237287e-02 1.058677786940793339e+02
9.937241969362775595e-02 9.799812490419330402e+01
1.004129685902931390e-01 9.075288136517062298e+01
1.014535174869585221e-01 8.436361153202275887e+01
1.024940663836239052e-01 7.748865559961276972e+01
1.035346152802892883e-01 7.081295986234539441e+01
1.045751641769546714e-01 6.434025236051095931e+01
1.056157130736200545e-01 5.927960920167222980e+01
1.066562619702854375e-01 5.396435948012364747e+01
1.076968108669508206e-01 4.931786899007154545e+01
1.087373597636162037e-01 4.495945092226708795e+01
1.097779086602815868e-01 4.050049869649289036e+01
1.108184575569469699e-01 3.641871174790721710e+01
1.118590064536123529e-01 3.276104144117482520e+01
1.128995553502777360e-01 2.932553460621348052e+01
1.139401042469431191e-01 2.589679572087461423e+01
1.149806531436085022e-01 2.257207388250157010e+01
1.160212020402738853e-01 2.031299114662868277e+01
1.170617509369392684e-01 1.820260219498757692e+01
1.181022998336046514e-01 1.551202240656949982e+01
1.191428487302700345e-01 1.354618944427355842e+01
1.201833976269354176e-01 1.172537177517983764e+01
1.212239465236008007e-01 9.972283511045432647e+00
1.222644954202661838e-01 8.671147896951069356e+00
1.233050443169315669e-01 7.302218566341977635e+00
1.243455932135969499e-01 6.341221515834405409e+00
1.253861421102623330e-01 5.383418721662906137e+00
1.264266910069277161e-01 4.234462306465800907e+00
1.274672399035930992e-01 3.372830969949930591e+00
1.285077888002584823e-01 2.975791424559446341e+00
1.295483376969238654e-01 2.757573673898932043e+00
1.305888865935892484e-01 2.266987874000186309e+00
1.316294354902546315e-01 2.191395598244582743e+00
1.326699843869200146e-01 2.199943510193932639e+00
1.337105332835853977e-01 1.916731871760219974e+00
1.347510821802507808e-01 1.768337536440562019e+00
1.357916310769161639e-01 1.849743427875267798e+00
1.368321799735815469e-01 2.069745976524089315e+00
1.378727288702469300e-01 2.006056114342094077e+00
1.389132777669123131e-01 1.993814627288422514e+00
1.399538266635776962e-01 2.419782877205740590e+00
1.409943755602430793e-01 3.238596967664527426e+00
1.420349244569084624e-01 3.523885991326707767e+00
1.430754733535738454e-01 4.051391881078700408e+00
1.441160222502392285e-01 4.674879991553353875e+00
1.451565711469046116e-01 4.564056063674705399e+00
1.461971200435699947e-01 4.726901558249011259e+00
1.472376689402353778e-01 5.194034294777985394e+00
1.482782178369007609e-01 5.643538891027667148e+00
1.493187667335661439e-01 5.955097746172150153e+00
1.503593156302315270e-01 6.287307307562215897e+00
1.513998645268969101e-01 6.533699820005615777e+00
1.524404134235622932e-01 6.863380571704702504e+00
1.534809623202276763e-01 7.552859261450798556e+00
1.545215112168930593e-01 8.042059251518473673e+00
1.555620601135584424e-01 8.189433050539506098e+00
1.566026090102238255e-01 8.411321273730173687e+00
1.576431579068892086e-01 8.882610555233277694e+00
1.586837068035545917e-01 8.728985410522469124e+00
1.597242557002199748e-01 9.030455187706770914e+00
1.607648045968853578e-01 9.581753956745430401e+00
1.618053534935507409e-01 9.692427348802553411e+00
1.628459023902161240e-01 9.771422558503736866e+00
1.638864512868815071e-01 1.023987182519270789e+01
1.649270001835468902e-01 1.028254000208518448e+01
1.659675490802122733e-01 1.043297233633986210e+01
1.670080979768776563e-01 1.032120179754030787e+01
1.680486468735430672e-01 1.039185204529766793e+01
1.690891957702084503e-01 1.014937938858968636e+01
1.701297446668738333e-01 1.047026615444390529e+01
1.711702935635392164e-01 1.117313130687873013e+01
1.722108424602045995e-01 1.126674065244892731e+01
1.732513913568699826e-01 1.108687302601547842e+01
1.742919402535353657e-01 1.076242892698879317e+01
1.753324891502007488e-01 1.060501171805820064e+01
1.763730380468661318e-01 1.033801383692444276e+01
1.774135869435315149e-01 9.757002840792399212e+00
1.784541358401968980e-01 9.802897160493358797e+00
1.794946847368622811e-01 9.862116185533491119e+00
1.805352336335276642e-01 9.376128436361046425e+00
1.815757825301930473e-01 9.568758177659049124e+00
1.826163314268584303e-01 9.033988449089179085e+00
1.836568803235238134e-01 8.473491730480525064e+00
1.846974292201891965e-01 8.196474216605476926e+00
1.857379781168545796e-01 8.202256466142088698e+00
1.867785270135199627e-01 7.966485382477316080e+00
1.878190759101853458e-01 7.622528898841352429e+00
1.888596248068507288e-01 7.661369315146007608e+00
1.899001737035161119e-01 7.440523220500107726e+00
1.909407226001814950e-01 7.153423399598860755e+00
1.919812714968468781e-01 6.563104929999997950e+00
1.930218203935122612e-01 6.159607510863420288e+00
1.940623692901776443e-01 6.199887272920179271e+00
1.951029181868430273e-01 5.650270443399243447e+00
1.961434670835084104e-01 5.196975829553885262e+00
1.971840159801737935e-01 5.280131612909027439e+00
1.982245648768391766e-01 4.943345585672904718e+00
1.992651137735045597e-01 4.683348133067870123e+00
2.003056626701699428e-01 3.955820311394472100e+00
2.013462115668353813e-01 3.896433203763034925e+00
2.023867604635007644e-01 3.776446005310287291e+00
2.034273093601661475e-01 3.385523569948251321e+00
2.044678582568315306e-01 3.003718812352261125e+00
2.055084071534969137e-01 2.769003694413722627e+00
2.065489560501622968e-01 2.749766145751678437e+00
2.075895049468276798e-01 2.708899169437327004e+00
2.086300538434930629e-01 2.460786255512765308e+00
2.096706027401584460e-01 2.063737660483990766e+00
2.107111516368238291e-01 1.787397333917287057e+00
2.117517005334892122e-01 1.636074851676433184e+00
2.127922494301545953e-01 1.432086860787006088e+00
2.138327983268199783e-01 1.462315367912736974e+00
2.148733472234853614e-01 1.172206055084778598e+00
2.159138961201507445e-01 9.392856994944018822e-01
2.169544450168161276e-01 1.018994216786722973e+00
2.179949939134815107e-01 9.086022718492650085e-01
2.190355428101468938e-01 7.939316277947341405e-01
2.200760917068122768e-01 1.049104658237627774e+00
2.211166406034776599e-01 7.127496820186145499e-01
2.221571895001430430e-01 2.576922613242480509e-01
2.231977383968084261e-01 5.246339427350221740e-01
2.242382872934738092e-01 7.401974819826513396e-01
2.252788361901391923e-01 4.817735218372760642e-01
2.263193850868045753e-01 1.747802606834909511e-01
2.273599339834699584e-01 3.576119440310918662e-01
2.284004828801353415e-01 2.810627429463394833e-01
2.294410317768007246e-01 3.053287949365248721e-01
2.304815806734661077e-01 1.897120121831292749e-01
2.315221295701314908e-01 3.848956495450650550e-01
2.325626784667968738e-01 6.071778112130061800e-01
2.336032273634622569e-01 6.702610440610854425e-01
2.346437762601276400e-01 2.100990160408642282e-01
2.356843251567930231e-01 2.795285900956407943e-01
2.367248740534584062e-01 6.733070532912073247e-01
2.377654229501237892e-01 7.143008290563486185e-01
2.388059718467891723e-01 7.281274794189727118e-01
2.398465207434545554e-01 7.295413531218351011e-01
2.408870696401199385e-01 8.714652849487976027e-01
2.419276185367853216e-01 7.538388970777205600e-01
2.429681674334507047e-01 7.461512332497548527e-01
2.440087163301160877e-01 6.797085998631189341e-01
2.450492652267814708e-01 7.269431280855442878e-01
2.460898141234468539e-01 1.003031862019177822e+00
2.471303630201122370e-01 1.050152106454181222e+00
2.481709119167776201e-01 1.124028166596549028e+00
2.492114608134430032e-01 1.240512260117586862e+00
2.502520097101083585e-01 9.161536792397626527e-01
2.512925586067737416e-01 1.259120531144990451e+00
2.523331075034391247e-01 1.162810197393753242e+00
2.533736564001045077e-01 1.397327773390085071e+00
2.544142052967698908e-01 1.474582650585112731e+00
2.554547541934352739e-01 1.544302502171682079e+00
2.564953030901006570e-01 1.603979495507541486e+00
2.575358519867660401e-01 1.432916743837001405e+00
2.585764008834314231e-01 1.289136635818024956e+00
2.596169497800968062e-01 1.619696994906984600e+00
2.606574986767621893e-01 1.549652332605695904e+00
2.616980475734275724e-01 1.449218396506019246e+00
2.627385964700929555e-01 1.487451337947376828e+00
2.637791453667583386e-01 1.536474989253157730e+00
2.648196942634237216e-01 1.661304513324441956e+00
2.658602431600891047e-01 1.836726154407251954e+00
2.669007920567544878e-01 1.924748127745520065e+00
2.679413409534198709e-01 1.675740596563944251e+00
2.689818898500852540e-01 1.390331345561740761e+00
2.700224387467506371e-01 1.633140871581950648e+00
2.710629876434160201e-01 1.760658023683678408e+00
2.721035365400814032e-01 1.675668240493724426e+00
2.731440854367467863e-01 1.588661299906675595e+00
2.741846343334121694e-01 1.506361574610753706e+00
2.752251832300775525e-01 1.351370332767999116e+00
2.762657321267429356e-01 8.963705482674804159e-01
2.773062810234083186e-01 9.503529377410409040e-01
2.783468299200737017e-01 7.369977758782262356e-01
2.793873788167390848e-01 1.442962701371747869e+00
2.804279277134044679e-01 1.455346313391896018e+00
2.814684766100698510e-01 1.439059337787309545e+00
2.825090255067352341e-01 1.317853863050551411e+00
2.835495744034006171e-01 1.206716424363982298e+00
2.845901233000660002e-01 1.230310767521302751e+00
2.856306721967313833e-01 1.295469042030276796e+00
2.866712210933967664e-01 1.269812671333856002e+00
2.877117699900621495e-01 1.309585646338835119e+00
2.887523188867275326e-01 1.373708493036637890e+00
2.897928677833929156e-01 1.359964188217169578e+00
2.908334166800582987e-01 9.906336398370321206e-01
2.918739655767236818e-01 9.859748463029127663e-01
2.929145144733890649e-01 1.051927357524625961e+00
2.939550633700544480e-01 9.399380101369807505e-01
2.949956122667198311e-01 8.522571139850398936e-01
2.960361611633852141e-01 1.011550615115172747e+00
2.970767100600505972e-01 8.757111302141353804e-01
2.981172589567159803e-01 6.420003314304878472e-01
2.991578078533813634e-01 7.994973914938654502e-01
3.001983567500468020e-01 5.824315562513255884e-01
3.012389056467121851e-01 5.527842417216568549e-01
3.022794545433775681e-01 6.144553693820036244e-01
3.033200034400429512e-01 6.795991751718979401e-01
3.043605523367083343e-01 5.999390068935319675e-01
3.054011012333737174e-01 4.115828282638993585e-01
3.064416501300391005e-01 1.185973583975794554e-01
3.074821990267044836e-01 1.060997546455446638e-01
3.085227479233698666e-01 3.599671541486664239e-01
3.095632968200352497e-01 4.820302691997149225e-01
3.106038457167006328e-01 4.768103174172537706e-01
3.116443946133660159e-01 1.587974556391564818e-01
3.126849435100313990e-01 1.996684212931540969e-01
3.137254924066967821e-01 3.083853904588274020e-01
3.147660413033621651e-01 2.684146141580683320e-01
3.158065902000275482e-01 2.226090565097678109e-01
3.168471390966929313e-01 2.533699938208222591e-01
3.178876879933583144e-01 3.782908261845250308e-01
3.189282368900236975e-01 2.749921197579965337e-01
3.199687857866890806e-01 1.887677481988525585e-01
3.210093346833544636e-01 1.605501503225212900e-01
3.220498835800198467e-01 7.130780073185150059e-02
3.230904324766852298e-01 1.734401087890518056e-01
3.241309813733506129e-01 3.105798149195777569e-01
3.251715302700159960e-01 3.224619965972017610e-01
3.262120791666813790e-01 1.851096999702832591e-01
3.272526280633467621e-01 3.354211350205176245e-01
3.282931769600121452e-01 2.222496869256005425e-01
3.293337258566775283e-01 2.116612408764879660e-01
3.303742747533429114e-01 3.261799368318349934e-01
3.314148236500082945e-01 2.458654307175116571e-01
3.324553725466736775e-01 2.460488020197999504e-01
3.334959214433390606e-01 3.201218760097575000e-01
3.345364703400044437e-01 3.359915447509571607e-01
3.355770192366698268e-01 2.499856553009216498e-01
3.366175681333352099e-01 5.902788914487011596e-01
3.376581170300005930e-01 3.010695985752001036e-01
3.386986659266659760e-01 1.505764160363298743e-01
3.397392148233313591e-01 3.923147029055620294e-01
3.407797637199967422e-01 5.699737563935585172e-01
3.418203126166621253e-01 4.461006816909005579e-01
3.428608615133275084e-01 2.372126708235846593e-01
3.439014104099928915e-01 3.910012959972313240e-01
3.449419593066582745e-01 4.080562306881141410e-01
3.459825082033236576e-01 3.521552448070295327e-01
3.470230570999890407e-01 6.014288014121866865e-01
3.480636059966544238e-01 5.746709374625389444e-01
3.491041548933198069e-01 4.609634782527756158e-01
3.501447037899851900e-01 4.888661988323157459e-01
3.511852526866505730e-01 5.979693808140105205e-01
3.522258015833159561e-01 4.951073357248994000e-01
3.532663504799813392e-01 3.848155236723620476e-01
3.543068993766467223e-01 3.456224685083988390e-01
3.553474482733121054e-01 4.151577775597488085e-01
3.563879971699774885e-01 4.687484097834300201e-01
3.574285460666428715e-01 6.739290266856023948e-01
3.584690949633082546e-01 7.714711114326213703e-01
3.595096438599736377e-01 6.973904431077571076e-01
3.605501927566390208e-01 5.875847218753555978e-01
3.615907416533044039e-01 8.091662027840804683e-01
3.626312905499697870e-01 6.457555294373094057e-01
3.636718394466351700e-01 6.366451057754183296e-01
3.647123883433005531e-01 5.583664778605204049e-01
3.657529372399659362e-01 4.489055769520895467e-01
3.667934861366313193e-01 5.434547579475363932e-01
3.678340350332967024e-01 5.121509583368499818e-01
3.688745839299620854e-01 5.052715569704524512e-01
3.699151328266274685e-01 6.078974745537024660e-01
3.709556817232928516e-01 6.454108543836554190e-01
3.719962306199582347e-01 6.657908420514644376e-01
3.730367795166236178e-01 6.475976228316753236e-01
3.740773284132890009e-01 4.848205865563173234e-01
3.751178773099543839e-01 4.590410888756366603e-01
3.761584262066197670e-01 5.414905051430345395e-01
3.771989751032851501e-01 5.852516959424143295e-01
3.782395239999505332e-01 6.173970207498626905e-01
3.792800728966159163e-01 5.908364959094001279e-01
3.803206217932812994e-01 4.192678151769051453e-01
3.813611706899466824e-01 3.016724032483324436e-01
3.824017195866120655e-01 5.526236511271562790e-01
3.834422684832774486e-01 6.016303492885874959e-01
3.844828173799428317e-01 3.893836737152902572e-01
3.855233662766082148e-01 3.530652723536462645e-01
3.865639151732735979e-01 2.818820133584658549e-01
3.876044640699389809e-01 3.670278161583624410e-01
3.886450129666043640e-01 5.003648346243707579e-01
3.896855618632697471e-01 3.246748917955066815e-01
3.907261107599351302e-01 4.437824442504769706e-01
3.917666596566005133e-01 4.043081242438582024e-01
3.928072085532658964e-01 2.506776172153557525e-01
3.938477574499312794e-01 2.705012512170839045e-01
3.948883063465966625e-01 3.867089324947059481e-01
3.959288552432620456e-01 2.423952393591015664e-01
3.969694041399274287e-01 3.092695835342631483e-01
3.980099530365928118e-01 5.417566401293463230e-01
3.990505019332581949e-01 4.412959833224938677e-01
4.000910508299235779e-01 3.429979185491767169e-01
4.011315997265889610e-01 4.998339579006767508e-01
4.021721486232543441e-01 5.246061891640536601e-01
4.032126975199197272e-01 4.730070025733823513e-01
4.042532464165851103e-01 5.208662019273155863e-01
4.052937953132504934e-01 3.865767773310722077e-01
4.063343442099158764e-01 3.154453539139687734e-01
4.073748931065812595e-01 3.363775326080933326e-01
4.084154420032466426e-01 1.807845857824936786e-01
4.094559908999120257e-01 4.668184862558923953e-01
4.104965397965774088e-01 3.061467551573393564e-01
4.115370886932427918e-01 2.205121739501407774e-01
4.125776375899081749e-01 2.285211813274656834e-01
4.136181864865735580e-01 3.112361008611408408e-01
4.146587353832389411e-01 3.115111169029489702e-01
4.156992842799043242e-01 6.233486040182540933e-01
4.167398331765697073e-01 3.931795931395534183e-01
4.177803820732350903e-01 1.600334895717807626e-01
4.188209309699004734e-01 2.965312362876524332e-01
4.198614798665658565e-01 1.462001938440344873e-01
4.209020287632312396e-01 2.226337250928978051e-01
4.219425776598966227e-01 2.438226103297580494e-01
4.229831265565620058e-01 2.847807292063038176e-01
4.240236754532273888e-01 3.883465605832689960e-01
4.250642243498927719e-01 3.260040730119868613e-01
4.261047732465581550e-01 3.579726736828838796e-01
4.271453221432235381e-01 3.804182784117990934e-01
4.281858710398889212e-01 4.228063739699798873e-01
4.292264199365543043e-01 3.779087535894980476e-01
4.302669688332196873e-01 3.016184245564623723e-01
4.313075177298850704e-01 2.853441122981799083e-01
4.323480666265504535e-01 3.175465715615146678e-01
4.333886155232158366e-01 1.720226017923920381e-01
4.344291644198812197e-01 2.428051247868907581e-01
