# q (1/Angstrom), Intensity (arb)
2.029070354705860696e-02 1.404866139975544229e+03
2.133125244372399004e-02 1.398886146321881142e+03
2.237180134038937659e-02 1.394998952661875364e+03
2.341235023705475968e-02 1.379998152600865296e+03
2.445289913372014276e-02 1.370503537059683367e+03
2.549344803038552584e-02 1.362776339778350348e+03
2.653399692705091240e-02 1.350025010413121663e+03
2.757454582371629548e-02 1.337920161544258690e+03
2.861509472038167856e-02 1.325406710810374307e+03
2.965564361704706164e-02 1.308031233999126243e+03
3.069619251371244473e-02 1.288021422506153158e+03
3.173674141037782781e-02 1.270225310541818544e+03
3.277729030704321089e-02 1.253860787728091736e+03
3.381783920370859398e-02 1.236740159488503423e+03
3.485838810037397706e-02 1.213995370038814826e+03
3.589893699703936014e-02 1.192236718118545014e+03
3.693948589370474322e-02 1.174554561967886457e+03
3.798003479037012631e-02 1.147833932361604184e+03
3.902058368703550939e-02 1.128202543811946725e+03
4.006113258370089247e-02 1.109116195804772360e+03
4.110168148036627556e-02 1.086251570025747469e+03
4.214223037703165864e-02 1.063251317790492067e+03
4.318277927369704866e-02 1.041298824409738927e+03
4.422332817036243174e-02 1.022592967909449499e+03
4.526387706702781483e-02 9.961452658660335828e+02
4.630442596369319791e-02 9.729224752709114910e+02
4.734497486035858099e-02 9.504415684161066338e+02
4.838552375702396408e-02 9.287593095801340723e+02
4.942607265368934716e-02 9.035697444824535296e+02
5.046662155035473024e-02 8.813948805364417467e+02
5.150717044702011332e-02 8.591591523793985061e+02
5.254771934368549641e-02 8.354262456573347890e+02
5.358826824035087949e-02 8.127208206049912178e+02
5.462881713701626257e-02 7.924966024002894756e+02
5.566936603368164566e-02 7.715285152288880681e+02
5.670991493034702874e-02 7.473945053989264125e+02
5.775046382701241182e-02 7.223081168864413257e+02
5.879101272367779490e-02 7.012510516554181095e+02
5.983156162034317799e-02 6.794561885919533779e+02
6.087211051700856107e-02 6.534980215781569086e+02
6.191265941367394415e-02 6.335956153529622270e+02
6.295320831033933417e-02 6.132311492551345964e+02
6.399375720700471726e-02 5.933747011052876132e+02
6.503430610367010034e-02 5.721410380361101033e+02
6.607485500033548342e-02 5.504238086284098017e+02
6.711540389700086651e-02 5.316497459905303913e+02
6.815595279366624959e-02 5.113928406187225733e+02
6.919650169033163267e-02 4.913276949031159688e+02
7.023705058699701576e-02 4.727646086983631335e+02
7.127759948366239884e-02 4.522607549005028886e+02
7.231814838032778192e-02 4.342674824545260321e+02
7.335869727699316500e-02 4.150225550597592132e+02
7.439924617365854809e-02 3.986661270634023708e+02
7.543979507032393117e-02 3.816196542723256471e+02
7.648034396698931425e-02 3.646999617384648218e+02
7.752089286365469734e-02 3.489344615872258828e+02
7.856144176032008042e-02 3.322312340403971689e+02
7.960199065698546350e-02 3.154930582846959055e+02
8.064253955365084658e-02 3.013108203974067578e+02
8.168308845031622967e-02 2.867248962768429692e+02
8.272363734698161275e-02 2.706836375181673588e+02
8.376418624364699583e-02 2.563255689850207091e+02
8.480473514031239279e-02 2.428955532060075484e+02
8.584528403697777588e-02 2.300721861496363090e+02
8.688583293364315896e-02 2.179026572710195637e+02
8.792638183030854204e-02 2.066245070088289708e+02
8.896693072697392513e-02 1.943626470313282084e+02
9.000747962363930821e-02 1.813546874011041155e+02
9.104802852030469129e-02 1.695178945220287687e+02
9.208857741697007437e-02 1.600944443941401119e+02
9.312912631363545746e-02 1.506213626728972770e+02
9.416967521030084054e-02 1.403946353978215029e+02
9.521022410696622362e-02 1.308348261165081681e+02
9.625077300363160671e-02 1.218614557136181276e+02
9.729132190029698979e-02 1.137617737823097173e+02
9.833187079696237287e-02 1.059607213929224656e+02
9.937241969362775595e-02 9.806310326479427886e+01
1.004129685902931390e-01 9.068034546677372987e+01
1.014535174869585221e-01 8.436866964242520339e+01
1.024940663836239052e-01 7.714670929691627066e+01
1.035346152802892883e-01 7.030387516810944248e+01
1.045751641769546714e-01 6.376965544788028240e+01
1.056157130736200545e-01 5.885620860819571476e+01
1.066562619702854375e-01 5.357166558187577721e+01
1.076968108669508206e-01 4.787013980552084291e+01
1.087373597636162037e-01 4.332972552339947470e+01
1.097779086602815868e-01 3.947320105884047337e+01
1.108184575569469699e-01 3.578766449268852057e+01
1.118590064536123529e-01 3.155583119898417976e+01
1.128995553502777360e-01 2.799420514426990536e+01
1.139401042469431191e-01 2.570769720605307640e+01
1.149806531436085022e-01 2.286968446662860543e+01
1.160212020402738853e-01 2.027268244841608436e+01
1.170617509369392684e-01 1.747466031091335026e+01
1.181022998336046514e-01 1.512380825255904426e+01
1.191428487302700345e-01 1.319605614568465057e+01
1.201833976269354176e-01 1.152414598332177320e+01
1.212239465236008007e-01 9.597062184590001266e+00
1.222644954202661838e-01 8.140292088985070507e+00
1.233050443169315669e-01 6.651093313842174837e+00
1.243455932135969499e-01 5.940527969219559168e+00
1.253861421102623330e-01 4.921154165806186143e+00
1.264266910069277161e-01 3.884099809160268535e+00
1.274672399035930992e-01 3.057315376841451382e+00
1.285077888002584823e-01 2.641454836995301036e+00
1.295483376969238654e-01 2.166907443860807803e+00
1.305888865935892484e-01 1.579786212934223499e+00
1.316294354902546315e-01 1.755918660205821880e+00
1.326699843869200146e-01 1.764639522993697085e+00
1.337105332835853977e-01 1.659582883623542671e+00
1.347510821802507808e-01 1.771862921764608245e+00
1.357916310769161639e-01 2.119304358529078058e+00
1.368321799735815469e-01 2.243407009046556766e+00
1.378727288702469300e-01 2.064276071377037169e+00
1.389132777669123131e-01 2.099310743228130605e+00
1.399538266635776962e-01 2.456410334232309367e+00
1.409943755602430793e-01 3.288662703169840995e+00
1.420349244569084624e-01 3.879928843414617745e+00
1.430754733535738454e-01 3.858932693703941652e+00
1.441160222502392285e-01 3.945106616115715781e+00
1.451565711469046116e-01 4.474292820036090745e+00
1.461971200435699947e-01 4.708509008853809519e+00
1.472376689402353778e-01 4.823396492512998179e+00
1.482782178369007609e-01 5.492820607081426942e+00
1.493187667335661439e-01 6.172761831625479090e+00
1.503593156302315270e-01 6.957327992867377020e+00
1.513998645268969101e-01 7.156371317011419819e+00
1.524404134235622932e-01 7.184253993470079536e+00
1.534809623202276763e-01 7.531596166437566353e+00
1.545215112168930593e-01 7.950452301011843304e+00
1.555620601135584424e-01 8.335181275728160699e+00
1.566026090102238255e-01 9.074136385410938033e+00
1.576431579068892086e-01 9.165974444542882793e+00
1.586837068035545917e-01 9.133082581733994232e+00
1.597242557002199748e-01 9.812751068337895788e+00
1.607648045968853578e-01 1.016158129880511751e+01
1.618053534935507409e-01 1.030937142892927483e+01
1.628459023902161240e-01 1.051568621605213139e+01
1.638864512868815071e-01 1.046266285631576665e+01
1.649270001835468902e-01 1.034478719433710836e+01
1.659675490802122733e-01 1.053559107359019009e+01
1.670080979768776563e-01 1.050075958788377761e+01
1.680486468735430672e-01 1.039045676696897402e+01
1.690891957702084503e-01 1.091567962578939088e+01
1.701297446668738333e-01 1.086787474797005970e+01
1.711702935635392164e-01 1.073403113402175180e+01
1.722108424602045995e-01 1.074416869869425284e+01
1.732513913568699826e-01 1.032723573071073986e+01
1.742919402535353657e-01 1.068680456138676149e+01
1.753324891502007488e-01 1.067918441973481691e+01
1.763730380468661318e-01 1.040933336226406070e+01
1.774135869435315149e-01 1.033201212673749581e+01
1.784541358401968980e-01 1.006434453556382991e+01
1.794946847368622811e-01 1.007141906723216707e+01
1.805352336335276642e-01 9.977161003759118074e+00
1.815757825301930473e-01 9.461660980305541813e+00
1.826163314268584303e-01 8.875035507820005165e+00
1.836568803235238134e-01 8.694291837787606170e+00
1.846974292201891965e-01 8.292997871251682085e+00
1.857379781168545796e-01 7.937301106371855042e+00
1.867785270135199627e-01 7.753806838328593187e+00
1.878190759101853458e-01 7.627343053718259824e+00
1.888596248068507288e-01 7.452140644219529264e+00
1.899001737035161119e-01 7.328223970270251186e+00
1.909407226001814950e-01 7.014080944029110753e+00
1.919812714968468781e-01 6.600491526073568593e+00
1.930218203935122612e-01 6.353148517438029330e+00
1.940623692901776443e-01 5.923654976199113520e+00
1.951029181868430273e-01 5.256218163829046830e+00
1.961434670835084104e-01 5.106584634421643898e+00
1.971840159801737935e-01 5.070439756415570542e+00
1.982245648768391766e-01 4.720438982003276607e+00
1.992651137735045597e-01 4.280379260376097506e+00
2.003056626701699428e-01 4.182629192542130170e+00
2.013462115668353813e-01 4.165755852484483768e+00
2.023867604635007644e-01 3.955209953179124938e+00
2.034273093601661475e-01 3.479466880473992774e+00
2.044678582568315306e-01 2.792657482649051559e+00
2.055084071534969137e-01 2.365022930284283120e+00
2.065489560501622968e-01 2.502338037968481643e+00
2.075895049468276798e-01 2.746642390991173244e+00
2.086300538434930629e-01 2.312493295634329371e+00
2.096706027401584460e-01 1.949099669580281358e+00
2.107111516368238291e-01 1.890024299109423822e+00
2.117517005334892122e-01 1.790681555769793931e+00
2.127922494301545953e-01 1.383518457280452196e+00
2.138327983268199783e-01 1.473889757428125336e+00
2.148733472234853614e-01 1.373826771436888805e+00
2.159138961201507445e-01 1.016608167527568440e+00
2.169544450168161276e-01 7.100422977533398239e-01
2.179949939134815107e-01 5.747520035960569373e-01
2.190355428101468938e-01 6.955660265703116352e-01
2.200760917068122768e-01 8.764256930129654677e-01
2.211166406034776599e-01 8.566682015020923302e-01
2.221571895001430430e-01 7.038460971260924737e-01
2.231977383968084261e-01 6.352774478516884926e-01
2.242382872934738092e-01 6.328509042154415454e-01
2.252788361901391923e-01 4.182263477636460891e-01
2.263193850868045753e-01 4.763308786320230581e-01
2.273599339834699584e-01 4.005337253593239666e-01
2.284004828801353415e-01 2.977148842284194075e-01
2.294410317768007246e-01 8.061658173857821907e-02
2.304815806734661077e-01 4.825274190865869173e-02
2.315221295701314908e-01 2.883798780265713901e-01
2.325626784667968738e-01 2.531297160002878854e-01
2.336032273634622569e-01 5.587478046354021899e-01
2.346437762601276400e-01 3.246616062870053554e-01
2.356843251567930231e-01 1.506351435144495099e-01
2.367248740534584062e-01 2.823545396651390149e-01
2.377654229501237892e-01 4.037203274868730318e-01
2.388059718467891723e-01 5.037946433411946145e-01
2.398465207434545554e-01 6.494717665897340453e-01
2.408870696401199385e-01 8.523601540591805303e-01
2.419276185367853216e-01 7.928133901047367260e-01
2.429681674334507047e-01 9.928629996094464616e-01
2.440087163301160877e-01 6.438828495296107235e-01
2.450492652267814708e-01 6.466582433272236585e-01
2.460898141234468539e-01 7.246881471590995716e-01
2.471303630201122370e-01 7.960579973822099475e-01
2.481709119167776201e-01 1.101167536755784937e+00
2.492114608134430032e-01 9.239019197170605935e-01
2.502520097101083585e-01 1.075221427121743289e+00
2.512925586067737416e-01 1.078572933994397687e+00
2.523331075034391247e-01 1.323854788281241923e+00
2.533736564001045077e-01 1.363961802644173105e+00
2.544142052967698908e-01 1.272483289645698790e+00
2.554547541934352739e-01 1.378282833879417524e+00
2.564953030901006570e-01 1.263288229185011602e+00
2.575358519867660401e-01 1.308092716693849411e+00
2.585764008834314231e-01 1.418873972665529948e+00
2.596169497800968062e-01 1.478641680448760098e+00
2.606574986767621893e-01 1.484680455151437428e+00
2.616980475734275724e-01 1.558933869020815877e+00
2.627385964700929555e-01 1.796582397307510348e+00
2.637791453667583386e-01 1.630314036381996345e+00
2.648196942634237216e-01 1.676610417677618869e+00
2.658602431600891047e-01 1.526769228084422281e+00
2.669007920567544878e-01 1.528359831454249473e+00
2.679413409534198709e-01 1.602927373723399995e+00
2.689818898500852540e-01 1.667783144610837098e+00
2.700224387467506371e-01 1.588938692380644113e+00
2.710629876434160201e-01 1.546650472540797239e+00
2.721035365400814032e-01 1.489294667936142957e+00
2.731440854367467863e-01 1.470348975926526691e+00
2.741846343334121694e-01 1.622546147699392094e+00
2.752251832300775525e-01 1.626441875418233707e+00
2.762657321267429356e-01 1.294153882071935158e+00
2.773062810234083186e-01 1.441094107319795370e+00
2.783468299200737017e-01 1.693981162402209861e+00
2.793873788167390848e-01 1.716808078464403309e+00
2.804279277134044679e-01 1.657902445862838192e+00
2.814684766100698510e-01 1.635342794095993924e+00
2.825090255067352341e-01 1.504377219455086845e+00
2.835495744034006171e-01 1.424017183686160593e+00
2.845901233000660002e-01 1.270793372948112676e+00
2.856306721967313833e-01 1.107645397935925757e+00
2.866712210933967664e-01 9.800383522278970361e-01
2.877117699900621495e-01 1.311131147945580722e+00
2.887523188867275326e-01 1.339818820989890469e+00
2.897928677833929156e-01 1.299486049125231801e+00
2.908334166800582987e-01 1.054374824096210972e+00
2.918739655767236818e-01 9.691026470890875544e-01
2.929145144733890649e-01 7.630283211153603418e-01
2.939550633700544480e-01 6.430824346841497174e-01
2.949956122667198311e-01 6.663737123977249155e-01
2.960361611633852141e-01 4.124071654559529065e-01
2.970767100600505972e-01 4.804714303002199927e-01
2.981172589567159803e-01 6.827325434275763882e-01
2.991578078533813634e-01 6.567120224028961673e-01
3.001983567500468020e-01 7.358720268362084482e-01
3.012389056467121851e-01 5.949741815657851873e-01
3.022794545433775681e-01 5.271492455004533895e-01
3.033200034400429512e-01 4.450099230293247388e-01
3.043605523367083343e-01 3.745751040160065770e-01
3.054011012333737174e-01 6.067404840256180876e-01
3.064416501300391005e-01 5.087775024071703456e-01
3.074821990267044836e-01 5.484883294660249931e-01
3.085227479233698666e-01 6.688786164132096701e-01
3.095632968200352497e-01 6.612731803687879051e-01
3.106038457167006328e-01 2.349083314843980475e-01
3.116443946133660159e-01 5.121459159279950768e-02
3.126849435100313990e-01 9.568259150529456747e-02
3.137254924066967821e-01 4.037423314398154162e-01
3.147660413033621651e-01 3.445171940379658793e-01
3.158065902000275482e-01 2.854226793360332692e-01
3.168471390966929313e-01 4.135412643175655489e-01
3.178876879933583144e-01 3.580389443417324458e-01
3.189282368900236975e-01 7.813013487396247569e-02
3.199687857866890806e-01 5.274700027673162595e-02
3.210093346833544636e-01 1.710328313361841879e-02
3.220498835800198467e-01 2.056325845765627491e-02
3.230904324766852298e-01 1.475861408600813718e-01
3.241309813733506129e-01 1.685398574777465797e-01
3.251715302700159960e-01 2.663634408964909994e-01
3.262120791666813790e-01 3.026844176161560540e-01
3.272526280633467621e-01 2.404523077550528853e-01
3.282931769600121452e-01 1.606067748767223691e-01
3.293337258566775283e-01 3.026831296907808166e-01
3.303742747533429114e-01 2.698982638414761936e-01
3.314148236500082945e-01 1.450195077333553684e-01
3.324553725466736775e-01 3.867595310937872455e-01
3.334959214433390606e-01 1.162552971453862938e-01
3.345364703400044437e-01 1.017381346122938623e-01
3.355770192366698268e-01 3.021306101546237244e-01
3.366175681333352099e-01 4.641288157170713191e-01
3.376581170300005930e-01 3.815011700700452479e-01
3.386986659266659760e-01 4.401945933147004553e-01
3.397392148233313591e-01 4.282827963091726531e-01
3.407797637199967422e-01 4.096841666219006584e-01
3.418203126166621253e-01 4.182384439774899931e-01
3.428608615133275084e-01 3.708437298173272723e-01
3.439014104099928915e-01 2.133078445859126759e-01
3.449419593066582745e-01 3.818997078217698515e-01
3.459825082033236576e-01 6.576786272618839746e-01
3.470230570999890407e-01 6.359997121581493218e-01
3.480636059966544238e-01 3.665669682442107558e-01
3.491041548933198069e-01 4.661194499808480884e-01
3.501447037899851900e-01 3.076509918694618761e-01
3.511852526866505730e-01 3.630502051613824221e-01
3.522258015833159561e-01 2.984219096169020702e-01
3.532663504799813392e-01 3.820080061135051608e-01
3.543068993766467223e-01 7.606991152339404039e-01
3.553474482733121054e-01 6.656003977597713117e-01
3.563879971699774885e-01 6.259307706493189016e-01
3.574285460666428715e-01 6.176449190921253773e-01
3.584690949633082546e-01 5.033915679305778212e-01
3.595096438599736377e-01 4.341379725100900089e-01
3.605501927566390208e-01 5.380992244530027335e-01
3.615907416533044039e-01 5.654410985410684987e-01
3.626312905499697870e-01 3.864691059716918176e-01
3.636718394466351700e-01 3.491934825058464753e-01
3.647123883433005531e-01 5.660884432649311293e-01
3.657529372399659362e-01 5.526881473067675188e-01
3.667934861366313193e-01 4.664433901267521776e-01
3.678340350332967024e-01 3.493276077888545217e-01
3.688745839299620854e-01 5.507211567823411258e-01
3.699151328266274685e-01 5.784549552305477960e-01
3.709556817232928516e-01 5.727382927500102028e-01
3.719962306199582347e-01 3.681104415733607027e-01
3.730367795166236178e-01 4.379746896259000266e-01
3.740773284132890009e-01 5.184639089685347813e-01
3.751178773099543839e-01 4.981516880225242971e-01
3.761584262066197670e-01 3.644763741030452309e-01
3.771989751032851501e-01 2.316133857221949199e-01
3.782395239999505332e-01 1.827491466379669305e-01
3.792800728966159163e-01 3.069639133605690517e-01
3.803206217932812994e-01 4.204160236032841169e-01
3.813611706899466824e-01 6.029575333342052090e-01
3.824017195866120655e-01 4.774309715969025092e-01
3.834422684832774486e-01 5.524005423961817485e-01
3.844828173799428317e-01 5.454066742563803416e-01
3.855233662766082148e-01 3.394424628885204243e-01
3.865639151732735979e-01 3.924754420244944697e-01
3.876044640699389809e-01 4.629331609214233367e-01
3.886450129666043640e-01 4.621700237172419179e-01
3.896855618632697471e-01 2.897919125485337588e-01
3.907261107599351302e-01 4.402049512249845975e-01
3.917666596566005133e-01 3.048630939840784038e-01
3.928072085532658964e-01 2.562368425140846284e-01
3.938477574499312794e-01 4.222631597895833977e-01
3.948883063465966625e-01 3.456222439682719028e-01
3.959288552432620456e-01 4.154805066113205214e-01
3.969694041399274287e-01 3.753047760306280622e-01
3.980099530365928118e-01 2.204990872375311994e-01
3.990505019332581949e-01 3.190259133037791628e-01
4.000910508299235779e-01 2.574116048736279083e-01
4.011315997265889610e-01 1.404163144757326620e-01
4.021721486232543441e-01 1.445857897791960056e-01
4.032126975199197272e-01 2.660535206432612654e-01
4.042532464165851103e-01 9.610143916120605923e-02
4.052937953132504934e-01 1.754318535103323029e-01
4.063343442099158764e-01 4.079642377048742219e-01
4.073748931065812595e-01 5.116534107065824344e-01
4.084154420032466426e-01 3.846481768631910825e-01
4.094559908999120257e-01 2.822049993351924968e-01
4.104965397965774088e-01 1.329667042093234386e-01
4.115370886932427918e-01 5.573693223807296704e-02
4.125776375899081749e-01 1.199194309797100289e-01
4.136181864865735580e-01 2.678560550879289792e-01
4.146587353832389411e-01 2.260996526940388662e-01
4.156992842799043242e-01 3.924509346629356799e-01
4.167398331765697073e-01 5.365707739719027813e-01
4.177803820732350903e-01 5.102807746364454999e-01
4.188209309699004734e-01 3.974022322625643255e-01
4.198614798665658565e-01 3.619273056051142134e-01
4.209020287632312396e-01 3.193122719889309735e-01
4.219425776598966227e-01 3.466788061642027685e-01
4.229831265565620058e-01 4.893148665399564834e-01
4.240236754532273888e-01 2.404786960942537632e-01
4.250642243498927719e-01 4.025212883345687942e-01
4.261047732465581550e-01 4.283243616492420358e-01
4.271453221432235381e-01 3.530292683209559357e-01
4.281858710398889212e-01 2.632519447367194232e-01
4.292264199365543043e-01 8.114632571917113069e-02
4.302669688332196873e-01 2.385206392890033555e-01
4.313075177298850704e-01 2.056817560951706980e-01
4.323480666265504535e-01 1.979464159796577860e-01
4.333886155232158366e-01 3.277924374391503193e-01
4.344291644198812197e-01 3.468221377786377957e-01
