# q (1/Angstrom), Intensity (arb)
2.029070354705860696e-02 1.392296161871296135e+03
2.133125244372399004e-02 1.385269831971867916e+03
2.237180134038937659e-02 1.379702149317414978e+03
2.341235023705475968e-02 1.368821929549213792e+03
2.445289913372014276e-02 1.362089578602957772e+03
2.549344803038552584e-02 1.355053338441323149e+03
2.653399692705091240e-02 1.341170990168017397e+03
2.757454582371629548e-02 1.324204375447916163e+03
2.861509472038167856e-02 1.310807290763690617e+03
2.965564361704706164e-02 1.292812927222117878e+03
3.069619251371244473e-02 1.271250373698254180e+03
3.173674141037782781e-02 1.257938030018562586e+03
3.277729030704321089e-02 1.242596025218383829e+03
3.381783920370859398e-02 1.218172543580412366e+03
3.485838810037397706e-02 1.197469980811330743e+03
3.589893699703936014e-02 1.180090503584359794e+03
3.693948589370474322e-02 1.159642211388590795e+03
3.798003479037012631e-02 1.138402027093016386e+03
3.902058368703550939e-02 1.117722641529559951e+03
4.006113258370089247e-02 1.099385614826694336e+03
4.110168148036627556e-02 1.073997619172082068e+03
4.214223037703165864e-02 1.054019724033276589e+03
4.318277927369704866e-02 1.031896222629975910e+03
4.422332817036243174e-02 1.007577571288274385e+03
4.526387706702781483e-02 9.857298055934403465e+02
4.630442596369319791e-02 9.609698475280287084e+02
4.734497486035858099e-02 9.406254085431070280e+02
4.838552375702396408e-02 9.200432928600520199e+02
4.942607265368934716e-02 8.963364335037077808e+02
5.046662155035473024e-02 8.704879183248434629e+02
5.150717044702011332e-02 8.480340976685516807e+02
5.254771934368549641e-02 8.236676945030869774e+02
5.358826824035087949e-02 7.999558994474127758e+02
5.462881713701626257e-02 7.810387376697042328e+02
5.566936603368164566e-02 7.597213698022796962e+02
5.670991493034702874e-02 7.377240993039449677e+02
5.775046382701241182e-02 7.141771833655681121e+02
5.879101272367779490e-02 6.915421254223319920e+02
5.983156162034317799e-02 6.703671348950437050e+02
6.087211051700856107e-02 6.486924437780628523e+02
6.191265941367394415e-02 6.264374408106382361e+02
6.295320831033933417e-02 6.053280113022658497e+02
6.399375720700471726e-02 5.825980831107680160e+02
6.503430610367010034e-02 5.614537134149719577e+02
6.607485500033548342e-02 5.398177919259093187e+02
6.711540389700086651e-02 5.198190439129565448e+02
6.815595279366624959e-02 5.016521053965832380e+02
6.919650169033163267e-02 4.822253155205369808e+02
7.023705058699701576e-02 4.638070340154447422e+02
7.127759948366239884e-02 4.443915915588315215e+02
7.231814838032778192e-02 4.242717847959523851e+02
7.335869727699316500e-02 4.058501237433387132e+02
7.439924617365854809e-02 3.896624992351286210e+02
7.543979507032393117e-02 3.727847803463503737e+02
7.648034396698931425e-02 3.547090568369948755e+02
7.752089286365469734e-02 3.389002230105344324e+02
7.856144176032008042e-02 3.243035134807983013e+02
7.960199065698546350e-02 3.065357298496903127e+02
8.064253955365084658e-02 2.915200956900858955e+02
8.168308845031622967e-02 2.792369036228122354e+02
8.272363734698161275e-02 2.645502016958092213e+02
8.376418624364699583e-02 2.497408187033527724e+02
8.480473514031239279e-02 2.374852916261722555e+02
8.584528403697777588e-02 2.236457742031497276e+02
8.688583293364315896e-02 2.097203493166509816e+02
8.792638183030854204e-02 1.979558993533343028e+02
8.896693072697392513e-02 1.867753347287761869e+02
9.000747962363930821e-02 1.754436454233622840e+02
9.104802852030469129e-02 1.644884027706516463e+02
9.208857741697007437e-02 1.540718292636360900e+02
9.312912631363545746e-02 1.439801529818375059e+02
9.416967521030084054e-02 1.345617039783624875e+02
9.521022410696622362e-02 1.259673910419239462e+02
9.625077300363160671e-02 1.178306611335145249e+02
9.729132190029698979e-02 1.098797459694535519e+02
9.833187079696237287e-02 1.011077566107354357e+02
9.937241969362775595e-02 9.338340996070689926e+01
1.004129685902931390e-01 8.635173385116699762e+01
1.014535174869585221e-01 7.887009682654625919e+01
1.024940663836239052e-01 7.218914099585050792e+01
1.035346152802892883e-01 6.671388852779247713e+01
1.045751641769546714e-01 6.069168832208142561e+01
1.056157130736200545e-01 5.513598007870320572e+01
1.066562619702854375e-01 5.060774772155098589e+01
1.076968108669508206e-01 4.609970587051040525e+01
1.087373597636162037e-01 4.115582068061906540e+01
1.097779086602815868e-01 3.699250960205309013e+01
1.108184575569469699e-01 3.375167327012954388e+01
1.118590064536123529e-01 2.999289723443099831e+01
1.128995553502777360e-01 2.688330322377188253e+01
1.139401042469431191e-01 2.393975744712977871e+01
1.149806531436085022e-01 2.115668763968025701e+01
1.160212020402738853e-01 1.847058834623350521e+01
1.170617509369392684e-01 1.601965399558017111e+01
1.181022998336046514e-01 1.379890590688690821e+01
1.191428487302700345e-01 1.243418882983760199e+01
1.201833976269354176e-01 1.090098425860286824e+01
1.212239465236008007e-01 9.257021710613521748e+00
1.222644954202661838e-01 7.147112134627207070e+00
1.233050443169315669e-01 6.363109543287933434e+00
1.243455932135969499e-01 5.515204899792166771e+00
1.253861421102623330e-01 4.377668034477970593e+00
1.264266910069277161e-01 3.890777728272311720e+00
1.274672399035930992e-01 3.782960780701934311e+00
1.285077888002584823e-01 2.856237458472477897e+00
1.295483376969238654e-01 2.405541413911791437e+00
1.305888865935892484e-01 1.704259731700226155e+00
1.316294354902546315e-01 1.590937042116870259e+00
1.326699843869200146e-01 1.880155679184980499e+00
1.337105332835853977e-01 1.587776469648964905e+00
1.347510821802507808e-01 1.852824970990873510e+00
1.357916310769161639e-01 2.050483918175437736e+00
1.368321799735815469e-01 2.359278032002563918e+00
1.378727288702469300e-01 2.045539177086908467e+00
1.389132777669123131e-01 2.179473916780715115e+00
1.399538266635776962e-01 2.636605338233678708e+00
1.409943755602430793e-01 2.993610126337927113e+00
1.420349244569084624e-01 3.019958996761523906e+00
1.430754733535738454e-01 3.443692537108631768e+00
1.441160222502392285e-01 4.063939708428328856e+00
1.451565711469046116e-01 4.942648925290960449e+00
1.461971200435699947e-01 4.994698673239611253e+00
1.472376689402353778e-01 5.423163863550719554e+00
1.482782178369007609e-01 6.220880281533055722e+00
1.493187667335661439e-01 6.527920011519320553e+00
1.503593156302315270e-01 6.765526007541446063e+00
1.513998645268969101e-01 7.042157953576989371e+00
1.524404134235622932e-01 7.486632338764337646e+00
1.534809623202276763e-01 8.031683586896278371e+00
1.545215112168930593e-01 8.204903161185306715e+00
1.555620601135584424e-01 8.877497825609751203e+00
1.566026090102238255e-01 9.438744267320451797e+00
1.576431579068892086e-01 9.544299990954833390e+00
1.586837068035545917e-01 9.608774528328574149e+00
1.597242557002199748e-01 9.760249933014087276e+00
1.607648045968853578e-01 1.021044127217105313e+01
1.618053534935507409e-01 1.025329607039294899e+01
1.628459023902161240e-01 1.013236044852643403e+01
1.638864512868815071e-01 1.020269190953155203e+01
1.649270001835468902e-01 1.056838808506476113e+01
1.659675490802122733e-01 1.067286100062911203e+01
1.670080979768776563e-01 1.075767204141918398e+01
1.680486468735430672e-01 1.065530058500719690e+01
1.690891957702084503e-01 1.058940032905844930e+01
1.701297446668738333e-01 1.081974197321012099e+01
1.711702935635392164e-01 1.080615836810267893e+01
1.722108424602045995e-01 1.054261079191752515e+01
1.732513913568699826e-01 1.060209304576888911e+01
1.742919402535353657e-01 1.023668641783400091e+01
1.753324891502007488e-01 1.027052492566176056e+01
1.763730380468661318e-01 1.037900479560839528e+01
1.774135869435315149e-01 1.029087054940059431e+01
1.784541358401968980e-01 9.802335738964337963e+00
1.794946847368622811e-01 9.054025291379296903e+00
1.805352336335276642e-01 8.815135406269924090e+00
1.815757825301930473e-01 9.119679982267491880e+00
1.826163314268584303e-01 8.919238710183421404e+00
1.836568803235238134e-01 8.491218785789328649e+00
1.846974292201891965e-01 8.437397949987797574e+00
1.857379781168545796e-01 8.086272985651433487e+00
1.867785270135199627e-01 7.856235450859642810e+00
1.878190759101853458e-01 7.812858060782559733e+00
1.888596248068507288e-01 7.453233816275826484e+00
1.899001737035161119e-01 7.047054308712873194e+00
1.909407226001814950e-01 6.788449934825031562e+00
1.919812714968468781e-01 6.407101702098927376e+00
1.930218203935122612e-01 6.218963190004853203e+00
1.940623692901776443e-01 5.581729539188032163e+00
1.951029181868430273e-01 5.692339232183410758e+00
1.961434670835084104e-01 5.320641887499558464e+00
1.971840159801737935e-01 4.541200852044610770e+00
1.982245648768391766e-01 3.855244488434863115e+00
1.992651137735045597e-01 3.809708338179149223e+00
2.003056626701699428e-01 3.845862391638309674e+00
2.013462115668353813e-01 3.610656073714224590e+00
2.023867604635007644e-01 3.366316710286543668e+00
2.034273093601661475e-01 3.311426222091210292e+00
2.044678582568315306e-01 3.085852606702907508e+00
2.055084071534969137e-01 2.543211624462692555e+00
2.065489560501622968e-01 2.173922240137809325e+00
2.075895049468276798e-01 2.031088849447531430e+00
2.086300538434930629e-01 1.913401997790263209e+00
2.096706027401584460e-01 2.149136688822515850e+00
2.107111516368238291e-01 2.203627324610941685e+00
2.117517005334892122e-01 1.617771025418885955e+00
2.127922494301545953e-01 1.460905322882489088e+00
2.138327983268199783e-01 1.315668803529426611e+00
2.148733472234853614e-01 1.063686411442379409e+00
2.159138961201507445e-01 1.055576293286584644e+00
2.169544450168161276e-01 1.033940087059050938e+00
2.179949939134815107e-01 1.047160339967344811e+00
2.190355428101468938e-01 8.455531896478412079e-01
2.200760917068122768e-01 8.336140825179860769e-01
2.211166406034776599e-01 6.762867056896268991e-01
2.221571895001430430e-01 3.985476078511389630e-01
2.231977383968084261e-01 2.564952408899436875e-01
2.242382872934738092e-01 4.190064544677305491e-01
2.252788361901391923e-01 2.632073284313278805e-01
2.263193850868045753e-01 3.763560371433527507e-02
2.273599339834699584e-01 3.094718436107015691e-01
2.284004828801353415e-01 6.691482735001272886e-01
2.294410317768007246e-01 5.762876063979831542e-01
2.304815806734661077e-01 5.213594859175323393e-01
2.315221295701314908e-01 6.012771181578848712e-01
2.325626784667968738e-01 7.107537370847261116e-01
2.336032273634622569e-01 7.713996150025721477e-01
2.346437762601276400e-01 4.057974862000612859e-01
2.356843251567930231e-01 5.070806255729749523e-01
2.367248740534584062e-01 6.207868859616780810e-01
2.377654229501237892e-01 8.867933676153541001e-01
2.388059718467891723e-01 6.997578522760932174e-01
2.398465207434545554e-01 5.213381330656901014e-01
2.408870696401199385e-01 7.429020785671838212e-01
2.419276185367853216e-01 1.016557337955621421e+00
2.429681674334507047e-01 9.402455156094369215e-01
2.440087163301160877e-01 1.024232358681182120e+00
2.450492652267814708e-01 1.002033476288858083e+00
2.460898141234468539e-01 7.364840147070381704e-01
2.471303630201122370e-01 1.090479266472843989e+00
2.481709119167776201e-01 1.137117222581522924e+00
2.492114608134430032e-01 1.121899517979692007e+00
2.502520097101083585e-01 1.277566195635714053e+00
2.512925586067737416e-01 1.377608151707701012e+00
2.523331075034391247e-01 1.127176633747595247e+00
2.533736564001045077e-01 1.075004024209004427e+00
2.544142052967698908e-01 1.390307164043402821e+00
2.554547541934352739e-01 1.482020651575965076e+00
2.564953030901006570e-01 1.413942980597997945e+00
2.575358519867660401e-01 1.620145945083020678e+00
2.585764008834314231e-01 1.828503450824328525e+00
2.596169497800968062e-01 1.619694509131367255e+00
2.606574986767621893e-01 1.570473840006378907e+00
2.616980475734275724e-01 1.495460207672092423e+00
2.627385964700929555e-01 1.869607431948214327e+00
2.637791453667583386e-01 2.061980919805968426e+00
2.648196942634237216e-01 2.192099322429296393e+00
2.658602431600891047e-01 1.894392946496175512e+00
2.669007920567544878e-01 1.632714766315654487e+00
2.679413409534198709e-01 1.677203635102191726e+00
2.689818898500852540e-01 1.555180983408661177e+00
2.700224387467506371e-01 1.442824743777205043e+00
2.710629876434160201e-01 1.765462706781029567e+00
2.721035365400814032e-01 1.676461332100906532e+00
2.731440854367467863e-01 1.625609496493048312e+00
2.741846343334121694e-01 1.532910308500476049e+00
2.752251832300775525e-01 1.520519668153813342e+00
2.762657321267429356e-01 1.225930889014438918e+00
2.773062810234083186e-01 1.211513178884647601e+00
2.783468299200737017e-01 1.430809244151390658e+00
2.793873788167390848e-01 1.511035551566425994e+00
2.804279277134044679e-01 1.344979776028054630e+00
2.814684766100698510e-01 1.313211763024945355e+00
2.825090255067352341e-01 1.380837006471026029e+00
2.835495744034006171e-01 1.342330507769975867e+00
2.845901233000660002e-01 1.205900885183414317e+00
2.856306721967313833e-01 1.350234946224428967e+00
2.866712210933967664e-01 1.185465621733378327e+00
2.877117699900621495e-01 1.113859072131589301e+00
2.887523188867275326e-01 1.029221959759418326e+00
2.897928677833929156e-01 1.024286128921712447e+00
2.908334166800582987e-01 9.785330082830867582e-01
2.918739655767236818e-01 7.914859194818646415e-01
2.929145144733890649e-01 8.267314447146922873e-01
2.939550633700544480e-01 1.130476848533060519e+00
2.949956122667198311e-01 9.591560078861931515e-01
2.960361611633852141e-01 8.814150885720337669e-01
2.970767100600505972e-01 6.652562914890012280e-01
2.981172589567159803e-01 5.165814668050039415e-01
2.991578078533813634e-01 5.427909438623714777e-01
3.001983567500468020e-01 6.131961420003904095e-01
3.012389056467121851e-01 6.225968489442443854e-01
3.022794545433775681e-01 7.068261319150579425e-01
3.033200034400429512e-01 3.168213941221225127e-01
3.043605523367083343e-01 4.337451637019569262e-01
3.054011012333737174e-01 6.844632451740721990e-01
3.064416501300391005e-01 3.669359334742559042e-01
3.074821990267044836e-01 1.479753887789279077e-01
3.085227479233698666e-01 1.588381058640990773e-01
3.095632968200352497e-01 5.472207499792780538e-01
3.106038457167006328e-01 5.968657560975678678e-01
3.116443946133660159e-01 3.624390116403866102e-01
3.126849435100313990e-01 5.162505616055206303e-01
3.137254924066967821e-01 5.039790584513994531e-01
3.147660413033621651e-01 3.058822821037985307e-01
3.158065902000275482e-01 0.000000000000000000e+00
3.168471390966929313e-01 2.818917880689824074e-01
3.178876879933583144e-01 5.246227283426989629e-01
3.189282368900236975e-01 4.137527101843438970e-01
3.199687857866890806e-01 3.591954668091617009e-01
3.210093346833544636e-01 3.629397340974698238e-01
3.220498835800198467e-01 2.579340677947428162e-01
3.230904324766852298e-01 2.385208635241333752e-01
3.241309813733506129e-01 4.426969149356843047e-01
3.251715302700159960e-01 4.813623016706607416e-01
3.262120791666813790e-01 2.962765613054401115e-01
3.272526280633467621e-01 4.399349074510006119e-01
3.282931769600121452e-01 6.004368060344908997e-01
3.293337258566775283e-01 4.450234781440265408e-01
3.303742747533429114e-01 4.098261160290448402e-01
3.314148236500082945e-01 5.089489106702558274e-01
3.324553725466736775e-01 5.982603969187643145e-01
3.334959214433390606e-01 4.457113987251588583e-01
3.345364703400044437e-01 3.741406928299326751e-01
3.355770192366698268e-01 5.377511685008542486e-01
3.366175681333352099e-01 4.575019278683782886e-01
3.376581170300005930e-01 3.781447329741602914e-01
3.386986659266659760e-01 3.558404950983096171e-01
3.397392148233313591e-01 3.768688585008774794e-01
3.407797637199967422e-01 3.279429606998931490e-01
3.418203126166621253e-01 5.878790572383785218e-01
3.428608615133275084e-01 6.750919087680991026e-01
3.439014104099928915e-01 5.353284475851580737e-01
3.449419593066582745e-01 4.038764588088561425e-01
3.459825082033236576e-01 6.526048859886763864e-01
3.470230570999890407e-01 6.184593373076268108e-01
3.480636059966544238e-01 6.353256535413720485e-01
3.491041548933198069e-01 3.486079037122031821e-01
3.501447037899851900e-01 4.336950733365476651e-01
3.511852526866505730e-01 5.531736536303029084e-01
3.522258015833159561e-01 6.178999251390386860e-01
3.532663504799813392e-01 6.181864868128776891e-01
3.543068993766467223e-01 6.699007576026652089e-01
3.553474482733121054e-01 4.388329854872701219e-01
3.563879971699774885e-01 4.444248081360910874e-01
3.574285460666428715e-01 7.573076110844887410e-01
3.584690949633082546e-01 6.855920724801229937e-01
3.595096438599736377e-01 5.086618387337757952e-01
3.605501927566390208e-01 7.998866498454226814e-01
3.615907416533044039e-01 7.713257162196001104e-01
3.626312905499697870e-01 6.069368342019743068e-01
3.636718394466351700e-01 5.105265304194368525e-01
3.647123883433005531e-01 5.180063444015878815e-01
3.657529372399659362e-01 2.920129747600270775e-01
3.667934861366313193e-01 3.732346446024621400e-01
3.678340350332967024e-01 3.880730702110142261e-01
3.688745839299620854e-01 4.442000131882117842e-01
3.699151328266274685e-01 6.690737640809985010e-01
3.709556817232928516e-01 6.612247508154105446e-01
3.719962306199582347e-01 7.672729085275982186e-01
3.730367795166236178e-01 6.618148049756982232e-01
3.740773284132890009e-01 5.827977652525930807e-01
3.751178773099543839e-01 5.341527763445341748e-01
3.761584262066197670e-01 7.088648196212048447e-01
3.771989751032851501e-01 7.097005328621932563e-01
3.782395239999505332e-01 4.767799088148265696e-01
3.792800728966159163e-01 4.483419578672851458e-01
3.803206217932812994e-01 6.463510118223325662e-01
3.813611706899466824e-01 7.659389156607581128e-01
3.824017195866120655e-01 6.124062117359549973e-01
3.834422684832774486e-01 3.285010936984171792e-01
3.844828173799428317e-01 3.980405143552907532e-01
3.855233662766082148e-01 3.805829837700507312e-01
3.865639151732735979e-01 5.458260891354100863e-01
3.876044640699389809e-01 4.637380736046488039e-01
3.886450129666043640e-01 2.356403301441716280e-01
3.896855618632697471e-01 2.337246757835913513e-01
3.907261107599351302e-01 4.457326745183785022e-01
3.917666596566005133e-01 4.007569006643372234e-01
3.928072085532658964e-01 4.749578627740191905e-01
3.938477574499312794e-01 4.546057384290627112e-01
3.948883063465966625e-01 3.180863356599736846e-01
3.959288552432620456e-01 3.649602750058384970e-01
3.969694041399274287e-01 2.673225729255825911e-01
3.980099530365928118e-01 1.570652910563872240e-01
3.990505019332581949e-01 3.062802986941655092e-01
4.000910508299235779e-01 2.110605783536172453e-01
4.011315997265889610e-01 3.096423131571057752e-01
4.021721486232543441e-01 2.939844413670762435e-01
4.032126975199197272e-01 2.442484119173649049e-01
4.042532464165851103e-01 3.643324661168563239e-01
4.052937953132504934e-01 3.978715806889390194e-01
4.063343442099158764e-01 2.590450868596541056e-01
4.073748931065812595e-01 2.989134852193231495e-01
4.084154420032466426e-01 2.130721674391793385e-01
4.094559908999120257e-01 1.536521550869309749e-01
4.104965397965774088e-01 5.160184653538983923e-01
4.115370886932427918e-01 5.351933153949062216e-01
4.125776375899081749e-01 5.342683201392333103e-01
4.136181864865735580e-01 2.880071009933402593e-01
4.146587353832389411e-01 3.824103565693626194e-01
4.156992842799043242e-01 3.839080144333166800e-01
4.167398331765697073e-01 3.797221578395237884e-01
4.177803820732350903e-01 3.277497147115120413e-01
4.188209309699004734e-01 4.008259624519610043e-01
4.198614798665658565e-01 5.052624853331728616e-01
4.209020287632312396e-01 4.097977352699544440e-01
4.219425776598966227e-01 3.445086014100304794e-01
4.229831265565620058e-01 4.694215498132479070e-01
4.240236754532273888e-01 4.944888357661163525e-01
4.250642243498927719e-01 3.471426842307216987e-01
4.261047732465581550e-01 4.387545539413544304e-01
4.271453221432235381e-01 3.774157168110825467e-01
4.281858710398889212e-01 2.267715292605387845e-01
4.292264199365543043e-01 2.777661462570080175e-01
4.302669688332196873e-01 3.019257942377251425e-01
4.313075177298850704e-01 3.070023246727018318e-01
4.323480666265504535e-01 3.761247294748883974e-01
4.333886155232158366e-01 4.412313748039800032e-01
4.344291644198812197e-01 4.057520540415353594e-01
