# q (1/Angstrom), Intensity (arb)
2.029070354705860696e-02 1.398566387063702678e+03
2.133125244372399004e-02 1.393890260304448248e+03
2.237180134038937659e-02 1.389208987554678515e+03
2.341235023705475968e-02 1.380747023141978161e+03
2.445289913372014276e-02 1.368959276479438813e+03
2.549344803038552584e-02 1.354981007536678817e+03
2.653399692705091240e-02 1.335348253290049342e+03
2.757454582371629548e-02 1.323411124781343915e+03
2.861509472038167856e-02 1.307092971201335786e+03
2.965564361704706164e-02 1.292133053975907160e+03
3.069619251371244473e-02 1.276448145854557879e+03
3.173674141037782781e-02 1.262136804885328957e+03
3.277729030704321089e-02 1.245603973502433746e+03
3.381783920370859398e-02 1.224579942906429551e+03
3.485838810037397706e-02 1.208152454397443989e+03
3.589893699703936014e-02 1.185276427454993836e+03
3.693948589370474322e-02 1.163363997619833526e+03
3.798003479037012631e-02 1.143643307661371864e+03
3.902058368703550939e-02 1.120539355449020377e+03
4.006113258370089247e-02 1.101871098857382094e+03
4.110168148036627556e-02 1.078764379737378704e+03
4.214223037703165864e-02 1.053772916896471770e+03
4.318277927369704866e-02 1.033152111679288737e+03
4.422332817036243174e-02 1.009914869392083574e+03
4.526387706702781483e-02 9.893743859056882002e+02
4.630442596369319791e-02 9.696520385713768064e+02
4.734497486035858099e-02 9.469396116097842651e+02
4.838552375702396408e-02 9.236184207604455878e+02
4.942607265368934716e-02 9.021419375782671750e+02
5.046662155035473024e-02 8.777380121833863313e+02
5.150717044702011332e-02 8.535926647795274675e+02
5.254771934368549641e-02 8.272407366772295063e+02
5.358826824035087949e-02 8.059846616420428518e+02
5.462881713701626257e-02 7.855990550154929224e+02
5.566936603368164566e-02 7.664679013849954572e+02
5.670991493034702874e-02 7.436000570282027411e+02
5.775046382701241182e-02 7.194306189038804860e+02
5.879101272367779490e-02 6.955398474676558180e+02
5.983156162034317799e-02 6.760215071184220506e+02
6.087211051700856107e-02 6.566438516958787659e+02
6.191265941367394415e-02 6.347198672815264899e+02
6.295320831033933417e-02 6.123934622333005109e+02
6.399375720700471726e-02 5.877563960104356511e+02
6.503430610367010034e-02 5.684496072629648324e+02
6.607485500033548342e-02 5.486649873565868347e+02
6.711540389700086651e-02 5.306871952881974721e+02
6.815595279366624959e-02 5.095889717153417564e+02
6.919650169033163267e-02 4.912812106802933272e+02
7.023705058699701576e-02 4.731137150516536281e+02
7.127759948366239884e-02 4.533599580032068843e+02
7.231814838032778192e-02 4.326771268680005846e+02
7.335869727699316500e-02 4.154754984233453570e+02
7.439924617365854809e-02 3.980152622933850921e+02
7.543979507032393117e-02 3.801586763695709124e+02
7.648034396698931425e-02 3.631969072264002989e+02
7.752089286365469734e-02 3.450393652985530366e+02
7.856144176032008042e-02 3.297091404335201332e+02
7.960199065698546350e-02 3.143802940155612760e+02
8.064253955365084658e-02 2.987191913594527932e+02
8.168308845031622967e-02 2.840306988312250951e+02
8.272363734698161275e-02 2.708850295448464749e+02
8.376418624364699583e-02 2.565527432345180614e+02
8.480473514031239279e-02 2.431875937434810453e+02
8.584528403697777588e-02 2.303443372123864776e+02
8.688583293364315896e-02 2.166982492221523557e+02
8.792638183030854204e-02 2.048877641117618680e+02
8.896693072697392513e-02 1.941310583232922511e+02
9.000747962363930821e-02 1.833199686202854366e+02
9.104802852030469129e-02 1.725683930559749797e+02
9.208857741697007437e-02 1.622029419583948595e+02
9.312912631363545746e-02 1.513009871295722064e+02
9.416967521030084054e-02 1.409590159673362564e+02
9.521022410696622362e-02 1.312755603420766590e+02
9.625077300363160671e-02 1.225380775317168798e+02
9.729132190029698979e-02 1.136040484208308641e+02
9.833187079696237287e-02 1.053452938993537487e+02
9.937241969362775595e-02 9.724365598303633362e+01
1.004129685902931390e-01 9.042921292399157096e+01
1.014535174869585221e-01 8.382660600055515943e+01
1.024940663836239052e-01 7.718885325992863500e+01
1.035346152802892883e-01 7.098068398137797885e+01
1.045751641769546714e-01 6.437779146368814054e+01
1.056157130736200545e-01 5.881006810735952683e+01
1.066562619702854375e-01 5.317529877899615798e+01
1.076968108669508206e-01 4.906477269053065982e+01
1.087373597636162037e-01 4.443909883076096179e+01
1.097779086602815868e-01 4.030693951079327064e+01
1.108184575569469699e-01 3.647173165601356004e+01
1.118590064536123529e-01 3.238642204249271828e+01
1.128995553502777360e-01 2.863102773352681396e+01
1.139401042469431191e-01 2.570092646670766356e+01
1.149806531436085022e-01 2.264562147800705816e+01
1.160212020402738853e-01 2.000042550987523526e+01
1.170617509369392684e-01 1.788616102637855931e+01
1.181022998336046514e-01 1.551895859957885193e+01
1.191428487302700345e-01 1.342601018164849336e+01
1.201833976269354176e-01 1.145019574270853724e+01
1.212239465236008007e-01 9.565605981803791735e+00
1.222644954202661838e-01 8.274372744669364010e+00
1.233050443169315669e-01 7.480507267253983628e+00
1.243455932135969499e-01 5.816146399215696761e+00
1.253861421102623330e-01 5.403012353484385244e+00
1.264266910069277161e-01 4.426611422782698924e+00
1.274672399035930992e-01 3.335057602835554746e+00
1.285077888002584823e-01 2.875498799678538830e+00
1.295483376969238654e-01 2.499922107597036813e+00
1.305888865935892484e-01 2.213306460576689005e+00
1.316294354902546315e-01 2.442119789109710837e+00
1.326699843869200146e-01 2.001269826894990445e+00
1.337105332835853977e-01 1.584389572093151344e+00
1.347510821802507808e-01 1.499699847168912470e+00
1.357916310769161639e-01 1.898139883229326585e+00
1.368321799735815469e-01 2.107846874395505665e+00
1.378727288702469300e-01 2.011070068814611034e+00
1.389132777669123131e-01 1.897916950644045642e+00
1.399538266635776962e-01 2.139077191826856961e+00
1.409943755602430793e-01 3.067302162549424338e+00
1.420349244569084624e-01 3.611059749717881573e+00
1.430754733535738454e-01 3.948317027920808187e+00
1.441160222502392285e-01 4.350015465264661430e+00
1.451565711469046116e-01 4.605492478528731226e+00
1.461971200435699947e-01 4.829435069936899083e+00
1.472376689402353778e-01 5.208099292920280732e+00
1.482782178369007609e-01 5.906181574197916007e+00
1.493187667335661439e-01 6.518186341188112465e+00
1.503593156302315270e-01 6.897481796446250257e+00
1.513998645268969101e-01 7.323211754329811640e+00
1.524404134235622932e-01 7.701440793633040016e+00
1.534809623202276763e-01 7.809205324500418044e+00
1.545215112168930593e-01 8.370958732297872018e+00
1.555620601135584424e-01 8.588776306157129170e+00
1.566026090102238255e-01 9.045150681946068971e+00
1.576431579068892086e-01 9.062023986635523443e+00
1.586837068035545917e-01 9.065280837219972909e+00
1.597242557002199748e-01 9.664483761193679356e+00
1.607648045968853578e-01 9.709709267183804116e+00
1.618053534935507409e-01 1.004129581266042948e+01
1.628459023902161240e-01 1.016495093388522974e+01
1.638864512868815071e-01 1.055341766414315430e+01
1.649270001835468902e-01 1.082333679665917359e+01
1.659675490802122733e-01 1.059740443676134802e+01
1.670080979768776563e-01 1.064027042270151924e+01
1.680486468735430672e-01 1.092153059194131259e+01
1.690891957702084503e-01 1.074461947693165342e+01
1.701297446668738333e-01 1.058180447619731979e+01
1.711702935635392164e-01 1.075152704254414715e+01
1.722108424602045995e-01 1.114989978115941938e+01
1.732513913568699826e-01 1.089486012181589913e+01
1.742919402535353657e-01 1.086580448640902929e+01
1.753324891502007488e-01 1.055437878854365863e+01
1.763730380468661318e-01 1.045511717511429595e+01
1.774135869435315149e-01 1.029247409826550452e+01
1.784541358401968980e-01 1.011178636136750342e+01
1.794946847368622811e-01 1.012211556395135759e+01
1.805352336335276642e-01 1.000976023825196748e+01
1.815757825301930473e-01 9.845728529941457197e+00
1.826163314268584303e-01 9.338855013898669455e+00
1.836568803235238134e-01 8.689907196080245200e+00
1.846974292201891965e-01 8.460844263733388715e+00
1.857379781168545796e-01 8.426252256117646056e+00
1.867785270135199627e-01 8.295779214873210350e+00
1.878190759101853458e-01 7.826901831153019629e+00
1.888596248068507288e-01 7.533375232939128807e+00
1.899001737035161119e-01 7.746724620966499941e+00
1.909407226001814950e-01 7.184022190857398016e+00
1.919812714968468781e-01 6.768073251183270855e+00
1.930218203935122612e-01 6.855959037658898581e+00
1.940623692901776443e-01 6.142227368628649486e+00
1.951029181868430273e-01 5.357668796045189197e+00
1.961434670835084104e-01 5.355476516850906421e+00
1.971840159801737935e-01 5.344469032037526546e+00
1.982245648768391766e-01 5.056104254579558699e+00
1.992651137735045597e-01 4.713691590564252465e+00
2.003056626701699428e-01 4.115343571076181206e+00
2.013462115668353813e-01 3.820061876872443918e+00
2.023867604635007644e-01 3.703675206605272052e+00
2.034273093601661475e-01 3.636793771584326151e+00
2.044678582568315306e-01 3.494728846465040561e+00
2.055084071534969137e-01 2.952707293486714235e+00
2.065489560501622968e-01 2.578091935883009000e+00
2.075895049468276798e-01 2.501942652459064220e+00
2.086300538434930629e-01 2.525343374973321176e+00
2.096706027401584460e-01 2.356539073808775697e+00
2.107111516368238291e-01 1.961497282408629417e+00
2.117517005334892122e-01 1.729346407359816595e+00
2.127922494301545953e-01 1.599785365658235037e+00
2.138327983268199783e-01 1.563122819073008429e+00
2.148733472234853614e-01 1.197185224493036770e+00
2.159138961201507445e-01 1.212774854701645921e+00
2.169544450168161276e-01 1.257719764508717475e+00
2.179949939134815107e-01 1.186352306348744889e+00
2.190355428101468938e-01 1.141735718883964523e+00
2.200760917068122768e-01 1.011043855629587540e+00
2.211166406034776599e-01 5.822056763114389355e-01
2.221571895001430430e-01 3.889043993245380193e-01
2.231977383968084261e-01 3.977334234536655799e-01
2.242382872934738092e-01 7.981639097286894469e-01
2.252788361901391923e-01 6.494595808477043875e-01
2.263193850868045753e-01 1.400853697650035201e-01
2.273599339834699584e-01 4.299484378109426075e-01
2.284004828801353415e-01 5.124071175164885972e-01
2.294410317768007246e-01 4.678827625356021258e-01
2.304815806734661077e-01 4.588960794791887565e-01
2.315221295701314908e-01 5.512767488519294545e-01
2.325626784667968738e-01 5.523771225798661533e-01
2.336032273634622569e-01 3.555316607393308459e-01
2.346437762601276400e-01 2.934010647423761498e-01
2.356843251567930231e-01 2.758034487468172813e-01
2.367248740534584062e-01 1.820621515657201428e-01
2.377654229501237892e-01 2.016568276220311873e-01
2.388059718467891723e-01 5.227167440192275194e-01
2.398465207434545554e-01 8.841217655160065192e-01
2.408870696401199385e-01 9.782983339463555694e-01
2.419276185367853216e-01 8.812988368540999318e-01
2.429681674334507047e-01 9.359916368169081125e-01
2.440087163301160877e-01 9.127098150745993621e-01
2.450492652267814708e-01 1.029308556720376799e+00
2.460898141234468539e-01 1.121551337100669343e+00
2.471303630201122370e-01 1.357243440050250882e+00
2.481709119167776201e-01 1.745527812362571041e+00
2.492114608134430032e-01 1.612473456242330627e+00
2.502520097101083585e-01 1.147572542636726922e+00
2.512925586067737416e-01 1.184718600768466246e+00
2.523331075034391247e-01 1.271958193388147862e+00
2.533736564001045077e-01 1.544058875824390498e+00
2.544142052967698908e-01 1.595316007570549033e+00
2.554547541934352739e-01 1.688957763305094062e+00
2.564953030901006570e-01 1.499759549950798743e+00
2.575358519867660401e-01 1.567481655722954059e+00
2.585764008834314231e-01 1.514592905909974974e+00
2.596169497800968062e-01 1.675572776560372290e+00
2.606574986767621893e-01 1.428631518592244021e+00
2.616980475734275724e-01 1.444012585214711208e+00
2.627385964700929555e-01 1.775923727571509403e+00
2.637791453667583386e-01 1.817705386014736746e+00
2.648196942634237216e-01 1.555566729857616792e+00
2.658602431600891047e-01 1.746364183147903759e+00
2.669007920567544878e-01 1.806233855172621361e+00
2.679413409534198709e-01 1.693833888853138347e+00
2.689818898500852540e-01 1.572018910815600634e+00
2.700224387467506371e-01 1.715920662265546071e+00
2.710629876434160201e-01 1.869887937731082417e+00
2.721035365400814032e-01 1.780137187824543332e+00
2.731440854367467863e-01 1.711060258551501789e+00
2.741846343334121694e-01 1.748755052050679382e+00
2.752251832300775525e-01 1.423675651772796868e+00
2.762657321267429356e-01 7.035320807928009401e-01
2.773062810234083186e-01 9.007839241461681468e-01
2.783468299200737017e-01 8.536841628365472445e-01
2.793873788167390848e-01 1.615604094184366346e+00
2.804279277134044679e-01 1.764035414493292819e+00
2.814684766100698510e-01 1.351275703325878652e+00
2.825090255067352341e-01 1.342600008503943343e+00
2.835495744034006171e-01 1.366625438421696259e+00
2.845901233000660002e-01 1.482003142520717631e+00
2.856306721967313833e-01 1.398922734371051746e+00
2.866712210933967664e-01 1.251232251347349944e+00
2.877117699900621495e-01 1.312432511393438972e+00
2.887523188867275326e-01 1.346403253960488655e+00
2.897928677833929156e-01 1.138380556772162322e+00
2.908334166800582987e-01 1.098549997293854830e+00
2.918739655767236818e-01 1.296847430107931132e+00
2.929145144733890649e-01 1.214788344660291841e+00
2.939550633700544480e-01 1.016582973374191567e+00
2.949956122667198311e-01 9.839515279242121437e-01
2.960361611633852141e-01 9.951424942129314388e-01
2.970767100600505972e-01 7.748385111105449141e-01
2.981172589567159803e-01 7.160177634445403783e-01
2.991578078533813634e-01 7.206160977064719475e-01
3.001983567500468020e-01 5.400878334925423019e-01
3.012389056467121851e-01 5.321896488230031252e-01
3.022794545433775681e-01 5.568802297694439574e-01
3.033200034400429512e-01 6.159635284451070447e-01
3.043605523367083343e-01 6.396638454061260859e-01
3.054011012333737174e-01 4.828618401909636759e-01
3.064416501300391005e-01 4.687920669911100902e-01
3.074821990267044836e-01 3.225674850246811332e-01
3.085227479233698666e-01 4.248674265707599318e-01
3.095632968200352497e-01 6.642655187788015780e-01
3.106038457167006328e-01 4.358247016922156547e-01
3.116443946133660159e-01 4.884244752710884541e-01
3.126849435100313990e-01 4.013297384121301548e-01
3.137254924066967821e-01 2.998600310409678116e-01
3.147660413033621651e-01 2.954274324672141461e-01
3.158065902000275482e-01 4.288500258182850189e-01
3.168471390966929313e-01 5.331851456163931857e-01
3.178876879933583144e-01 2.412295644332616007e-01
3.189282368900236975e-01 2.336656947651647442e-01
3.199687857866890806e-01 3.422394238321011528e-01
3.210093346833544636e-01 2.061698042409005893e-01
3.220498835800198467e-01 6.290716318186539979e-02
3.230904324766852298e-01 2.794829695920668655e-01
3.241309813733506129e-01 3.345037698680073390e-01
3.251715302700159960e-01 4.407340665398180590e-01
3.262120791666813790e-01 4.145616641269462832e-01
3.272526280633467621e-01 3.216047916565862863e-01
3.282931769600121452e-01 2.977324632736220167e-01
3.293337258566775283e-01 3.211559694409267252e-01
3.303742747533429114e-01 2.306667877294010793e-01
3.314148236500082945e-01 3.068868839975493756e-01
3.324553725466736775e-01 2.862396670772398011e-01
3.334959214433390606e-01 3.943162850301114020e-01
3.345364703400044437e-01 3.177880613311678815e-01
3.355770192366698268e-01 5.113483989352225478e-01
3.366175681333352099e-01 6.131374352592331434e-01
3.376581170300005930e-01 4.680435934937570153e-01
3.386986659266659760e-01 2.573662079519429824e-01
3.397392148233313591e-01 5.553834282587217785e-01
3.407797637199967422e-01 5.311692993111485350e-01
3.418203126166621253e-01 4.087304003846874423e-01
3.428608615133275084e-01 4.967677432350363631e-01
3.439014104099928915e-01 5.337456764538117682e-01
3.449419593066582745e-01 4.817642833501203370e-01
3.459825082033236576e-01 3.464603862592596784e-01
3.470230570999890407e-01 4.689743688538960953e-01
3.480636059966544238e-01 4.332275849637596821e-01
3.491041548933198069e-01 5.517483261581688225e-01
3.501447037899851900e-01 4.790631396781570572e-01
3.511852526866505730e-01 4.334324366475463819e-01
3.522258015833159561e-01 5.597006189684492483e-01
3.532663504799813392e-01 6.290106725761646089e-01
3.543068993766467223e-01 7.177070183107758794e-01
3.553474482733121054e-01 6.021652014359162308e-01
3.563879971699774885e-01 5.232984946458962838e-01
3.574285460666428715e-01 5.956816792511432368e-01
3.584690949633082546e-01 6.208618383983370848e-01
3.595096438599736377e-01 5.206581605730242757e-01
3.605501927566390208e-01 4.611876404245656147e-01
3.615907416533044039e-01 6.370212997059141458e-01
3.626312905499697870e-01 7.518712689438231678e-01
3.636718394466351700e-01 6.894987368406617634e-01
3.647123883433005531e-01 6.067130400050402272e-01
3.657529372399659362e-01 3.850709867474648718e-01
3.667934861366313193e-01 5.822371327804347629e-01
3.678340350332967024e-01 4.802396574646010663e-01
3.688745839299620854e-01 4.724436400679188353e-01
3.699151328266274685e-01 4.744265247476491254e-01
3.709556817232928516e-01 2.999168178132656237e-01
3.719962306199582347e-01 3.200568702321326953e-01
3.730367795166236178e-01 3.343194938421945039e-01
3.740773284132890009e-01 3.651089453924925010e-01
3.751178773099543839e-01 2.689920980894591196e-01
3.761584262066197670e-01 4.420106839557398359e-01
3.771989751032851501e-01 4.575335293890816502e-01
3.782395239999505332e-01 5.379355291450735876e-01
3.792800728966159163e-01 5.889388315593642176e-01
3.803206217932812994e-01 4.919588370796894594e-01
3.813611706899466824e-01 5.130322968703886488e-01
3.824017195866120655e-01 6.374596310953464240e-01
3.834422684832774486e-01 4.342818232097762632e-01
3.844828173799428317e-01 4.083935983474340503e-01
3.855233662766082148e-01 4.674424252780688960e-01
3.865639151732735979e-01 5.771606186977784603e-01
3.876044640699389809e-01 4.987673230403935065e-01
3.886450129666043640e-01 4.810470793660854838e-01
3.896855618632697471e-01 5.056967682225739225e-01
3.907261107599351302e-01 3.935385101304156308e-01
3.917666596566005133e-01 4.679774548629218600e-01
3.928072085532658964e-01 4.957148870890755177e-01
3.938477574499312794e-01 4.943951844408047691e-01
3.948883063465966625e-01 4.873442607391602621e-01
3.959288552432620456e-01 2.690902900701388489e-01
3.969694041399274287e-01 4.626671170758420715e-01
3.980099530365928118e-01 4.541954018621474631e-01
3.990505019332581949e-01 3.597665040705813055e-01
4.000910508299235779e-01 3.077948026922499025e-01
4.011315997265889610e-01 4.072300361708691696e-01
4.021721486232543441e-01 4.860483477132966357e-01
4.032126975199197272e-01 5.147745589913768072e-01
4.042532464165851103e-01 3.908867768876866933e-01
4.052937953132504934e-01 3.813808185317704158e-01
4.063343442099158764e-01 4.089578317684363640e-01
4.073748931065812595e-01 1.780864074038319700e-01
4.084154420032466426e-01 9.844582205919039097e-02
4.094559908999120257e-01 2.093944666837579405e-01
4.104965397965774088e-01 1.453251047768802096e-01
4.115370886932427918e-01 0.000000000000000000e+00
4.125776375899081749e-01 3.958053545115802763e-02
4.136181864865735580e-01 3.448463805419343942e-01
4.146587353832389411e-01 2.705935710765956514e-01
4.156992842799043242e-01 5.887968372571918962e-01
4.167398331765697073e-01 4.274005857720517554e-01
4.177803820732350903e-01 1.972595658970277555e-01
4.188209309699004734e-01 3.074409651812999300e-01
4.198614798665658565e-01 2.301391362593143697e-01
4.209020287632312396e-01 1.510471556876993304e-01
4.219425776598966227e-01 1.907363068185894406e-01
4.229831265565620058e-01 1.706669182895019787e-01
4.240236754532273888e-01 3.109527107770304610e-01
4.250642243498927719e-01 3.771424502723021988e-01
4.261047732465581550e-01 5.346459900729954029e-01
4.271453221432235381e-01 4.100478087147578776e-01
4.281858710398889212e-01 3.473419058529252368e-01
4.292264199365543043e-01 2.907719670862860539e-01
4.302669688332196873e-01 2.925043998728291683e-01
4.313075177298850704e-01 2.006272525849652766e-01
4.323480666265504535e-01 2.654874157147339986e-01
4.333886155232158366e-01 4.751515627694224975e-01
4.344291644198812197e-01 5.838700953594759824e-01
