# q (1/Angstrom), Intensity (arb)
2.029070354705860696e-02 4.201492061104926279e+02
2.133125244372399004e-02 4.219279459026024597e+02
2.237180134038937659e-02 4.207416909907504987e+02
2.341235023705475968e-02 4.178754737537725532e+02
2.445289913372014276e-02 4.163914067172252089e+02
2.549344803038552584e-02 4.141720779132377857e+02
2.653399692705091240e-02 4.125025248242543512e+02
2.757454582371629548e-02 4.110658881880416402e+02
2.861509472038167856e-02 4.070912410872480791e+02
2.965564361704706164e-02 4.025167418023740993e+02
3.069619251371244473e-02 3.969377591035334945e+02
3.173674141037782781e-02 3.927770174363158731e+02
3.277729030704321089e-02 3.898412266514926614e+02
3.381783920370859398e-02 3.860381678346104763e+02
3.485838810037397706e-02 3.775060943052012021e+02
3.589893699703936014e-02 3.729801753321204387e+02
3.693948589370474322e-02 3.707872082178455457e+02
3.798003479037012631e-02 3.661465765997574522e+02
3.902058368703550939e-02 3.592154344845381502e+02
4.006113258370089247e-02 3.526505268880056860e+02
4.110168148036627556e-02 3.437102959126358996e+02
4.214223037703165864e-02 3.384237970503018573e+02
4.318277927369704866e-02 3.327623691597627271e+02
4.422332817036243174e-02 3.252600444807678741e+02
4.526387706702781483e-02 3.176858635998527802e+02
4.630442596369319791e-02 3.114082572956891681e+02
4.734497486035858099e-02 3.058132005405203131e+02
4.838552375702396408e-02 2.970986021260426924e+02
4.942607265368934716e-02 2.908139055401190944e+02
5.046662155035473024e-02 2.858716187292859559e+02
5.150717044702011332e-02 2.797215322694443671e+02
5.254771934368549641e-02 2.726732888110798285e+02
5.358826824035087949e-02 2.664612318552211718e+02
5.462881713701626257e-02 2.593757067926115951e+02
5.566936603368164566e-02 2.534507557104282682e+02
5.670991493034702874e-02 2.473659641283893791e+02
5.775046382701241182e-02 2.421699332553517081e+02
5.879101272367779490e-02 2.340701543152749196e+02
5.983156162034317799e-02 2.282274558324953375e+02
6.087211051700856107e-02 2.202534493494881076e+02
6.191265941367394415e-02 2.139759856273935839e+02
6.295320831033933417e-02 2.078637732809629881e+02
6.399375720700471726e-02 2.006972491073302365e+02
6.503430610367010034e-02 1.946648996048672302e+02
6.607485500033548342e-02 1.888181585663780595e+02
6.711540389700086651e-02 1.835562961703123221e+02
6.815595279366624959e-02 1.771307476570978849e+02
6.919650169033163267e-02 1.707819671429533912e+02
7.023705058699701576e-02 1.651558447259426430e+02
7.127759948366239884e-02 1.598142223082212467e+02
7.231814838032778192e-02 1.543718755437712673e+02
7.335869727699316500e-02 1.486007906654991757e+02
7.439924617365854809e-02 1.428470951147435244e+02
7.543979507032393117e-02 1.377202569126396838e+02
7.648034396698931425e-02 1.330852609730277436e+02
7.752089286365469734e-02 1.279947644245990830e+02
7.856144176032008042e-02 1.235397291378731381e+02
7.960199065698546350e-02 1.192820327501444098e+02
8.064253955365084658e-02 1.156220731442684411e+02
8.168308845031622967e-02 1.114801219441613682e+02
8.272363734698161275e-02 1.084230201612427891e+02
8.376418624364699583e-02 1.085418985801818508e+02
8.480473514031239279e-02 1.241798495854836233e+02
8.584528403697777588e-02 1.633554915491333759e+02
8.688583293364315896e-02 2.023333450051163425e+02
8.792638183030854204e-02 2.158920905787068136e+02
8.896693072697392513e-02 2.503050628450521913e+02
9.000747962363930821e-02 4.130583316477665790e+02
9.104802852030469129e-02 6.837856713277026302e+02
9.208857741697007437e-02 7.597024277743871608e+02
9.312912631363545746e-02 5.268992141779754093e+02
9.416967521030084054e-02 2.973966541689614473e+02
9.521022410696622362e-02 2.129378172665016962e+02
9.625077300363160671e-02 1.893432018557520564e+02
9.729132190029698979e-02 1.758995281270039754e+02
9.833187079696237287e-02 1.588144234607163980e+02
9.937241969362775595e-02 1.374140832787545605e+02
1.004129685902931390e-01 1.167282092621093881e+02
1.014535174869585221e-01 1.003426694495101401e+02
1.024940663836239052e-01 9.114835821555323037e+01
1.035346152802892883e-01 9.482301444869563056e+01
1.045751641769546714e-01 1.166822034116289331e+02
1.056157130736200545e-01 1.322675948940815260e+02
1.066562619702854375e-01 1.114916130864743025e+02
1.076968108669508206e-01 7.116531589795599189e+01
1.087373597636162037e-01 4.436239612778584274e+01
1.097779086602815868e-01 3.255157143951188203e+01
1.108184575569469699e-01 2.696250422525019275e+01
1.118590064536123529e-01 2.349990819284383292e+01
1.128995553502777360e-01 2.119258895507180540e+01
1.139401042469431191e-01 1.866235871972353522e+01
1.149806531436085022e-01 1.641511502433449721e+01
1.160212020402738853e-01 1.457736592073406001e+01
1.170617509369392684e-01 1.336705171962249494e+01
1.181022998336046514e-01 1.205014039703537065e+01
1.191428487302700345e-01 1.094037011252745373e+01
1.201833976269354176e-01 9.606059224030744303e+00
1.212239465236008007e-01 8.378911681444130011e+00
1.222644954202661838e-01 7.549941035799733413e+00
1.233050443169315669e-01 6.925662355670844761e+00
1.243455932135969499e-01 6.500866042779335885e+00
1.253861421102623330e-01 5.750413435901343462e+00
1.264266910069277161e-01 4.365152453775152708e+00
1.274672399035930992e-01 4.148654282111095881e+00
1.285077888002584823e-01 4.218705702029858173e+00
1.295483376969238654e-01 3.369626440645589582e+00
1.305888865935892484e-01 2.469102058304848413e+00
1.316294354902546315e-01 2.224534644717969911e+00
1.326699843869200146e-01 2.094981971042528812e+00
1.337105332835853977e-01 2.227054882774098132e+00
1.347510821802507808e-01 2.462397574446846704e+00
1.357916310769161639e-01 2.376284449470769999e+00
1.368321799735815469e-01 1.577139408038188861e+00
1.378727288702469300e-01 1.487576654670942133e+00
1.389132777669123131e-01 1.518238457986413437e+00
1.399538266635776962e-01 1.384734552072359293e+00
1.409943755602430793e-01 1.358999183859179283e+00
1.420349244569084624e-01 1.445685406973382214e+00
1.430754733535738454e-01 1.748334525495451430e+00
1.441160222502392285e-01 1.474911252174223364e+00
1.451565711469046116e-01 1.555212083504756038e+00
1.461971200435699947e-01 2.580039778161488329e+00
1.472376689402353778e-01 4.339582982427042879e+00
1.482782178369007609e-01 7.579587657455672201e+00
1.493187667335661439e-01 1.127962180457926777e+01
1.503593156302315270e-01 1.115634706632073048e+01
1.513998645268969101e-01 7.851524958116367969e+00
1.524404134235622932e-01 5.164826183671696214e+00
1.534809623202276763e-01 4.021991823315030246e+00
1.545215112168930593e-01 3.481109693935437122e+00
1.555620601135584424e-01 3.511058169002428286e+00
1.566026090102238255e-01 3.994065836891852683e+00
1.576431579068892086e-01 3.950723754250496711e+00
1.586837068035545917e-01 4.384779468882630482e+00
1.597242557002199748e-01 4.170540894190711612e+00
1.607648045968853578e-01 4.629957440373594579e+00
1.618053534935507409e-01 5.028865959677119690e+00
1.628459023902161240e-01 4.789738829353154870e+00
1.638864512868815071e-01 5.062211892791541601e+00
1.649270001835468902e-01 5.194005274068189237e+00
1.659675490802122733e-01 5.216719543748993715e+00
1.670080979768776563e-01 5.479245413167411982e+00
1.680486468735430672e-01 5.633980897065512750e+00
1.690891957702084503e-01 5.597405879787608285e+00
1.701297446668738333e-01 5.861571827500142717e+00
1.711702935635392164e-01 6.981938849289498705e+00
1.722108424602045995e-01 9.412665503450636351e+00
1.732513913568699826e-01 1.617628406542326047e+01
1.742919402535353657e-01 2.880910285272117477e+01
1.753324891502007488e-01 3.835636898279815910e+01
1.763730380468661318e-01 3.449807874655760287e+01
1.774135869435315149e-01 2.331586484406560444e+01
1.784541358401968980e-01 1.528692125433281035e+01
1.794946847368622811e-01 1.168883485988078519e+01
1.805352336335276642e-01 1.004578742902266342e+01
1.815757825301930473e-01 1.062705916145256779e+01
1.826163314268584303e-01 1.243216850053204325e+01
1.836568803235238134e-01 1.212348662947803035e+01
1.846974292201891965e-01 9.645190121589106269e+00
1.857379781168545796e-01 6.863819064116544411e+00
1.867785270135199627e-01 5.208389586390875792e+00
1.878190759101853458e-01 4.122829215756375731e+00
1.888596248068507288e-01 3.986802994812450152e+00
1.899001737035161119e-01 4.054244603194334218e+00
1.909407226001814950e-01 3.650969955945662093e+00
1.919812714968468781e-01 3.694995122293491363e+00
1.930218203935122612e-01 3.523112958120176330e+00
1.940623692901776443e-01 2.939731597382426287e+00
1.951029181868430273e-01 3.068130926224167609e+00
1.961434670835084104e-01 3.081980443486113330e+00
1.971840159801737935e-01 2.863223449383827557e+00
1.982245648768391766e-01 2.699366162200270480e+00
1.992651137735045597e-01 2.744542436031274235e+00
2.003056626701699428e-01 2.389235377613992739e+00
2.013462115668353813e-01 2.534800137047387381e+00
2.023867604635007644e-01 2.455699271959812080e+00
2.034273093601661475e-01 2.348734184985186602e+00
2.044678582568315306e-01 2.101839395225869822e+00
2.055084071534969137e-01 1.780139969839765968e+00
2.065489560501622968e-01 1.872758479941285970e+00
2.075895049468276798e-01 1.828632436965193619e+00
2.086300538434930629e-01 1.861099894068704685e+00
2.096706027401584460e-01 2.012818914814562987e+00
2.107111516368238291e-01 2.126302117222312660e+00
2.117517005334892122e-01 2.066419383265095888e+00
2.127922494301545953e-01 1.946386346138734069e+00
2.138327983268199783e-01 1.740869310645301482e+00
2.148733472234853614e-01 1.705956724206302511e+00
2.159138961201507445e-01 1.313227012556058781e+00
2.169544450168161276e-01 9.627317849404519734e-01
2.179949939134815107e-01 1.000957552726895017e+00
2.190355428101468938e-01 1.166360279990648507e+00
2.200760917068122768e-01 1.006309885911182533e+00
2.211166406034776599e-01 8.597713502848058909e-01
2.221571895001430430e-01 9.222035321699202370e-01
2.231977383968084261e-01 7.164632137531405931e-01
2.242382872934738092e-01 6.547671395945329209e-01
2.252788361901391923e-01 4.291342943845180002e-01
2.263193850868045753e-01 4.059122628345086525e-01
2.273599339834699584e-01 3.336248795188403449e-01
2.284004828801353415e-01 1.883548110447961221e-01
2.294410317768007246e-01 5.177364054384376857e-01
2.304815806734661077e-01 2.218253332648743026e-01
2.315221295701314908e-01 4.599824506371028576e-01
2.325626784667968738e-01 4.445606157001442682e-01
2.336032273634622569e-01 3.776349625057378034e-01
2.346437762601276400e-01 6.009591231913660181e-01
2.356843251567930231e-01 4.208281334728027900e-01
2.367248740534584062e-01 3.228240453881383587e-01
2.377654229501237892e-01 7.870734970520594231e-01
2.388059718467891723e-01 6.512775752633501725e-01
2.398465207434545554e-01 5.860391735319794293e-01
2.408870696401199385e-01 4.785659294791386742e-01
2.419276185367853216e-01 1.586674677302681857e-01
2.429681674334507047e-01 3.426143777781689437e-01
2.440087163301160877e-01 6.838404718000994365e-01
2.450492652267814708e-01 6.137610510369029271e-01
2.460898141234468539e-01 7.006585726884217991e-01
2.471303630201122370e-01 5.452438057962787354e-01
2.481709119167776201e-01 4.117474868338177885e-01
2.492114608134430032e-01 2.915963648679245068e-01
2.502520097101083585e-01 4.970468360739985769e-01
2.512925586067737416e-01 3.553312438768010395e-01
2.523331075034391247e-01 2.263137941347039828e-01
2.533736564001045077e-01 3.533286162435977928e-01
2.544142052967698908e-01 7.748581553296602920e-01
2.554547541934352739e-01 7.170659497222473533e-01
2.564953030901006570e-01 5.997970387334241593e-01
2.575358519867660401e-01 1.056964386975845827e+00
2.585764008834314231e-01 1.688918379622592170e+00
2.596169497800968062e-01 1.997193544434185952e+00
2.606574986767621893e-01 1.722001264351572303e+00
2.616980475734275724e-01 1.578572256453643519e+00
2.627385964700929555e-01 8.859755244563416454e-01
2.637791453667583386e-01 7.012776850708632992e-01
2.648196942634237216e-01 8.919989341593570487e-01
2.658602431600891047e-01 8.926222071421037185e-01
2.669007920567544878e-01 1.096992974410735400e+00
2.679413409534198709e-01 1.016521429457682757e+00
2.689818898500852540e-01 9.686944188893313878e-01
2.700224387467506371e-01 1.013446713475911309e+00
2.710629876434160201e-01 1.044364770242786733e+00
2.721035365400814032e-01 1.356072117435221713e+00
2.731440854367467863e-01 1.811931561588700390e+00
2.741846343334121694e-01 2.286668189260939954e+00
2.752251832300775525e-01 2.434288113525280295e+00
2.762657321267429356e-01 2.030493517050498298e+00
2.773062810234083186e-01 1.690560110498616098e+00
2.783468299200737017e-01 1.156354775115357114e+00
2.793873788167390848e-01 8.903336316661238925e-01
2.804279277134044679e-01 9.900213125512138390e-01
2.814684766100698510e-01 9.637495591648814752e-01
2.825090255067352341e-01 1.012915275276743188e+00
2.835495744034006171e-01 1.233926127007283213e+00
2.845901233000660002e-01 5.233189001187881217e-01
2.856306721967313833e-01 5.991279009352155072e-01
2.866712210933967664e-01 7.754810063854336022e-01
2.877117699900621495e-01 7.576342526015444889e-01
2.887523188867275326e-01 8.481690389800391472e-01
2.897928677833929156e-01 5.759916922907670767e-01
2.908334166800582987e-01 6.158391453112344038e-01
2.918739655767236818e-01 8.208400737484957688e-01
2.929145144733890649e-01 9.088640569279569092e-01
2.939550633700544480e-01 7.280937129289775100e-01
2.949956122667198311e-01 9.261671037357110947e-01
2.960361611633852141e-01 7.870840083411607679e-01
2.970767100600505972e-01 7.957469607995051319e-01
2.981172589567159803e-01 8.596523746070445782e-01
2.991578078533813634e-01 6.633155960449101940e-01
3.001983567500468020e-01 5.179566840265366068e-01
3.012389056467121851e-01 4.842953130256439920e-01
3.022794545433775681e-01 4.595298991894019025e-01
3.033200034400429512e-01 4.340724947780962850e-01
3.043605523367083343e-01 7.217101756130510637e-01
3.054011012333737174e-01 6.102696230832371782e-01
3.064416501300391005e-01 3.764242801665353966e-01
3.074821990267044836e-01 4.185012016721998407e-01
3.085227479233698666e-01 7.050551576805084153e-01
3.095632968200352497e-01 3.483205634945818474e-01
3.106038457167006328e-01 4.549856781202699096e-01
3.116443946133660159e-01 6.182495884126133490e-01
3.126849435100313990e-01 4.429262992508320451e-01
3.137254924066967821e-01 4.780364921722117799e-01
3.147660413033621651e-01 4.829295302341130025e-01
3.158065902000275482e-01 5.733107401771988521e-01
3.168471390966929313e-01 5.914229975961440289e-01
3.178876879933583144e-01 6.041375058084170746e-01
3.189282368900236975e-01 4.911522873769698094e-01
3.199687857866890806e-01 4.465240961152403543e-01
3.210093346833544636e-01 5.178464414823551465e-01
3.220498835800198467e-01 5.150953395459900719e-01
3.230904324766852298e-01 3.536595794665515768e-01
3.241309813733506129e-01 3.250989800299599608e-01
3.251715302700159960e-01 2.497052257623053606e-01
3.262120791666813790e-01 0.000000000000000000e+00
3.272526280633467621e-01 1.562234560225270741e-01
3.282931769600121452e-01 3.253742862194251018e-01
3.293337258566775283e-01 3.673124001569902930e-01
3.303742747533429114e-01 2.791612629282482771e-01
3.314148236500082945e-01 4.541052240423475439e-01
3.324553725466736775e-01 4.737556656893389118e-01
3.334959214433390606e-01 2.466350942441586369e-01
3.345364703400044437e-01 1.571249298689920693e-01
3.355770192366698268e-01 2.074060052351534011e-01
3.366175681333352099e-01 3.355116093861134630e-01
3.376581170300005930e-01 4.271688821219044030e-01
3.386986659266659760e-01 2.378479745665877942e-01
3.397392148233313591e-01 3.476169281285095281e-01
3.407797637199967422e-01 4.507564681229752068e-01
3.418203126166621253e-01 3.768903861801611299e-01
3.428608615133275084e-01 1.392269941535246858e-01
3.439014104099928915e-01 2.932517677867991779e-01
3.449419593066582745e-01 3.041535061120193006e-01
3.459825082033236576e-01 4.995604618305655720e-01
3.470230570999890407e-01 5.837880220833859823e-01
3.480636059966544238e-01 4.094097216407313056e-01
3.491041548933198069e-01 3.041817995356943527e-01
3.501447037899851900e-01 4.535140592055562081e-01
3.511852526866505730e-01 4.354962258900378913e-01
3.522258015833159561e-01 4.927758224668501441e-01
3.532663504799813392e-01 5.810579696799251792e-01
3.543068993766467223e-01 6.010156306100107315e-01
3.553474482733121054e-01 6.096678714839214308e-01
3.563879971699774885e-01 5.050377100094891603e-01
3.574285460666428715e-01 1.533034375727346799e-01
3.584690949633082546e-01 7.136552839362053646e-02
3.595096438599736377e-01 2.349526124649230496e-01
3.605501927566390208e-01 1.591658784000493654e-01
3.615907416533044039e-01 7.026459288633901679e-02
3.626312905499697870e-01 3.109549092030512440e-01
3.636718394466351700e-01 3.818261636889701549e-01
3.647123883433005531e-01 3.009349517718113987e-01
3.657529372399659362e-01 5.480389918566146434e-01
3.667934861366313193e-01 6.064955689783815274e-01
3.678340350332967024e-01 6.227905836489782132e-01
3.688745839299620854e-01 4.511702616214208206e-01
3.699151328266274685e-01 4.128562705735951965e-01
3.709556817232928516e-01 2.129732102735601984e-01
3.719962306199582347e-01 2.316087614429491737e-01
3.730367795166236178e-01 5.089592502515181138e-01
3.740773284132890009e-01 5.936079283657100802e-01
3.751178773099543839e-01 5.675012961875083306e-01
3.761584262066197670e-01 5.747562440045257404e-01
3.771989751032851501e-01 5.991257621065351202e-01
3.782395239999505332e-01 7.176266993849473863e-01
3.792800728966159163e-01 5.238443282596492168e-01
3.803206217932812994e-01 5.119903031354127165e-01
3.813611706899466824e-01 3.607337020932348537e-01
3.824017195866120655e-01 4.134839302860839894e-01
3.834422684832774486e-01 4.952460639627105365e-01
3.844828173799428317e-01 6.485622067387133427e-01
3.855233662766082148e-01 5.300307015892613549e-01
3.865639151732735979e-01 2.282825470714300309e-01
3.876044640699389809e-01 1.691385975643484585e-01
3.886450129666043640e-01 3.016209367863673663e-01
3.896855618632697471e-01 5.744412106394420903e-01
3.907261107599351302e-01 4.944065813338340831e-01
3.917666596566005133e-01 6.004475142820560052e-01
3.928072085532658964e-01 7.006895370862054051e-01
3.938477574499312794e-01 5.166285350697776835e-01
3.948883063465966625e-01 3.829405258843650017e-01
3.959288552432620456e-01 4.403900884609441846e-01
3.969694041399274287e-01 4.970461271340660403e-01
3.980099530365928118e-01 5.496280752313111861e-01
3.990505019332581949e-01 3.620488092640528066e-01
4.000910508299235779e-01 2.994847847878752134e-01
4.011315997265889610e-01 5.181532360338003684e-01
4.021721486232543441e-01 3.683933363864291266e-01
4.032126975199197272e-01 3.354735856513535452e-01
4.042532464165851103e-01 2.682811811792582546e-01
4.052937953132504934e-01 3.889810533935254000e-01
4.063343442099158764e-01 4.748515593852715710e-01
4.073748931065812595e-01 4.493954519210703324e-01
4.084154420032466426e-01 3.188330586373275821e-01
4.094559908999120257e-01 4.248409151130623229e-01
4.104965397965774088e-01 3.302322430644046847e-01
4.115370886932427918e-01 3.701017804797004374e-01
4.125776375899081749e-01 2.583167729052497918e-01
4.136181864865735580e-01 1.987306827313410906e-01
4.146587353832389411e-01 3.387794903157939075e-01
4.156992842799043242e-01 1.785348647958571178e-01
4.167398331765697073e-01 1.662206703118442874e-01
4.177803820732350903e-01 1.512317226760231392e-01
4.188209309699004734e-01 1.162239106835478708e-01
4.198614798665658565e-01 1.093391471614530985e-01
4.209020287632312396e-01 2.612014845261860785e-01
4.219425776598966227e-01 2.058713264197109538e-01
4.229831265565620058e-01 8.973246612373131370e-02
4.240236754532273888e-01 2.161590039885297188e-02
4.250642243498927719e-01 1.378688415923114974e-01
4.261047732465581550e-01 3.502046077232492394e-01
4.271453221432235381e-01 3.115884936205084443e-01
4.281858710398889212e-01 2.464200933541000893e-01
4.292264199365543043e-01 2.570034413810837748e-01
4.302669688332196873e-01 2.114378924723538944e-01
4.313075177298850704e-01 1.458672131623295343e-01
4.323480666265504535e-01 6.241774546451139827e-02
4.333886155232158366e-01 1.763661848899964468e-01
4.344291644198812197e-01 1.830229243543612938e-01
