# q (1/Angstrom), Intensity (arb)
2.029070354705860696e-02 4.517066916556045726e+02
2.133125244372399004e-02 4.551513716161277898e+02
2.237180134038937659e-02 4.543467033756086266e+02
2.341235023705475968e-02 4.557346682715975703e+02
2.445289913372014276e-02 4.536872446661974436e+02
2.549344803038552584e-02 4.548318878657428286e+02
2.653399692705091240e-02 4.516821643867205580e+02
2.757454582371629548e-02 4.453547760708323722e+02
2.861509472038167856e-02 4.425968316822878137e+02
2.965564361704706164e-02 4.401202404447936374e+02
3.069619251371244473e-02 4.371601837908682455e+02
3.173674141037782781e-02 4.333986320809146946e+02
3.277729030704321089e-02 4.315823684978690267e+02
3.381783920370859398e-02 4.238976382045015612e+02
3.485838810037397706e-02 4.170272067798920261e+02
3.589893699703936014e-02 4.104491642806598861e+02
3.693948589370474322e-02 4.052356392701693721e+02
3.798003479037012631e-02 3.988143034136236906e+02
3.902058368703550939e-02 3.930431694226595596e+02
4.006113258370089247e-02 3.866705988254395834e+02
4.110168148036627556e-02 3.788912297075968354e+02
4.214223037703165864e-02 3.729282150495653809e+02
4.318277927369704866e-02 3.676054794293328314e+02
4.422332817036243174e-02 3.616712644317150875e+02
4.526387706702781483e-02 3.533968325819131451e+02
4.630442596369319791e-02 3.469788280865154775e+02
4.734497486035858099e-02 3.396883143135635805e+02
4.838552375702396408e-02 3.335078038422534519e+02
4.942607265368934716e-02 3.285360274664912481e+02
5.046662155035473024e-02 3.211434361408815334e+02
5.150717044702011332e-02 3.124327774148036383e+02
5.254771934368549641e-02 3.054845111254469998e+02
5.358826824035087949e-02 2.986488872212102592e+02
5.462881713701626257e-02 2.902537449680323789e+02
5.566936603368164566e-02 2.827305302056779510e+02
5.670991493034702874e-02 2.759655115016527702e+02
5.775046382701241182e-02 2.695547087496433392e+02
5.879101272367779490e-02 2.631090331337571797e+02
5.983156162034317799e-02 2.562432710052830771e+02
6.087211051700856107e-02 2.479701245134954775e+02
6.191265941367394415e-02 2.405789972180922405e+02
6.295320831033933417e-02 2.344878794738997954e+02
6.399375720700471726e-02 2.285808734802801894e+02
6.503430610367010034e-02 2.230002053697583051e+02
6.607485500033548342e-02 2.159571906766724965e+02
6.711540389700086651e-02 2.075218875576516098e+02
6.815595279366624959e-02 2.010852077581196795e+02
6.919650169033163267e-02 1.953208220970180093e+02
7.023705058699701576e-02 1.890110444491618296e+02
7.127759948366239884e-02 1.829391765530183420e+02
7.231814838032778192e-02 1.773382382255809091e+02
7.335869727699316500e-02 1.714616048603078582e+02
7.439924617365854809e-02 1.659108915598147860e+02
7.543979507032393117e-02 1.590449504461525976e+02
7.648034396698931425e-02 1.529279025456156091e+02
7.752089286365469734e-02 1.479459027337329076e+02
7.856144176032008042e-02 1.427309154413675856e+02
7.960199065698546350e-02 1.366398538098541735e+02
8.064253955365084658e-02 1.315593500570199126e+02
8.168308845031622967e-02 1.284076106009578666e+02
8.272363734698161275e-02 1.244585817220474837e+02
8.376418624364699583e-02 1.197202517427741810e+02
8.480473514031239279e-02 1.158623112164448514e+02
8.584528403697777588e-02 1.150760224046859292e+02
8.688583293364315896e-02 1.262208010270772434e+02
8.792638183030854204e-02 1.575384279429267167e+02
8.896693072697392513e-02 1.876014061029578670e+02
9.000747962363930821e-02 1.937393043833469903e+02
9.104802852030469129e-02 2.114312345876672339e+02
9.208857741697007437e-02 3.274628011927078433e+02
9.312912631363545746e-02 5.448297421119775663e+02
9.416967521030084054e-02 6.192097402406973288e+02
9.521022410696622362e-02 4.338136027110592181e+02
9.625077300363160671e-02 2.445063979773327105e+02
9.729132190029698979e-02 1.819838708785104018e+02
9.833187079696237287e-02 1.655474334919892385e+02
9.937241969362775595e-02 1.555896341426636127e+02
1.004129685902931390e-01 1.418805597917809393e+02
1.014535174869585221e-01 1.249923714770285414e+02
1.024940663836239052e-01 1.074391263594168038e+02
1.035346152802892883e-01 9.267597749295919130e+01
1.045751641769546714e-01 8.277581683285117720e+01
1.056157130736200545e-01 8.044110607126496859e+01
1.066562619702854375e-01 9.320678995435659431e+01
1.076968108669508206e-01 1.109783788672214371e+02
1.087373597636162037e-01 1.056942068891209203e+02
1.097779086602815868e-01 7.435140700781022360e+01
1.108184575569469699e-01 4.668385545285575944e+01
1.118590064536123529e-01 3.393568694456195800e+01
1.128995553502777360e-01 2.810004346430884681e+01
1.139401042469431191e-01 2.493833067758085775e+01
1.149806531436085022e-01 2.253069965136828756e+01
1.160212020402738853e-01 2.043611932620995475e+01
1.170617509369392684e-01 1.900755497097663493e+01
1.181022998336046514e-01 1.687211212468279342e+01
1.191428487302700345e-01 1.488366980696046937e+01
1.201833976269354176e-01 1.299551451841843885e+01
1.212239465236008007e-01 1.191127523582584047e+01
1.222644954202661838e-01 1.114516453529700613e+01
1.233050443169315669e-01 1.022282681980509977e+01
1.243455932135969499e-01 8.627261847496590974e+00
1.253861421102623330e-01 7.812832146923682330e+00
1.264266910069277161e-01 6.967565920694305248e+00
1.274672399035930992e-01 6.190839443275756082e+00
1.285077888002584823e-01 5.857423073646508271e+00
1.295483376969238654e-01 4.747688358170591982e+00
1.305888865935892484e-01 4.801414118507459250e+00
1.316294354902546315e-01 4.439957717806770177e+00
1.326699843869200146e-01 3.808563109774961930e+00
1.337105332835853977e-01 3.508113720787058298e+00
1.347510821802507808e-01 3.189730714340551998e+00
1.357916310769161639e-01 2.389021284593987104e+00
1.368321799735815469e-01 2.485041992797249577e+00
1.378727288702469300e-01 2.626070352862079460e+00
1.389132777669123131e-01 2.255889117581101999e+00
1.399538266635776962e-01 2.104627737859154024e+00
1.409943755602430793e-01 1.699541226730566734e+00
1.420349244569084624e-01 1.528475690217934613e+00
1.430754733535738454e-01 1.422737328655490074e+00
1.441160222502392285e-01 1.918226375555370566e+00
1.451565711469046116e-01 2.120719707009072863e+00
1.461971200435699947e-01 1.977135997959344138e+00
1.472376689402353778e-01 1.958653173351589061e+00
1.482782178369007609e-01 2.237095214479055016e+00
1.493187667335661439e-01 2.293933266733844789e+00
1.503593156302315270e-01 2.757004998966237963e+00
1.513998645268969101e-01 4.732478171071285544e+00
1.524404134235622932e-01 7.729165441967364103e+00
1.534809623202276763e-01 9.320084557172869211e+00
1.545215112168930593e-01 7.147042331526300529e+00
1.555620601135584424e-01 4.655733331353427928e+00
1.566026090102238255e-01 3.585960227287959157e+00
1.576431579068892086e-01 2.977095116024568000e+00
1.586837068035545917e-01 2.959835816458728175e+00
1.597242557002199748e-01 3.255037220692013733e+00
1.607648045968853578e-01 3.755549846879247866e+00
1.618053534935507409e-01 3.742739970190118726e+00
1.628459023902161240e-01 4.113600748697528786e+00
1.638864512868815071e-01 4.301813578955570705e+00
1.649270001835468902e-01 4.713426930270166793e+00
1.659675490802122733e-01 4.731401646913262482e+00
1.670080979768776563e-01 4.584103165775022859e+00
1.680486468735430672e-01 4.871600180928528090e+00
1.690891957702084503e-01 4.909060707593059902e+00
1.701297446668738333e-01 5.303701480595432116e+00
1.711702935635392164e-01 4.847471299196964623e+00
1.722108424602045995e-01 4.863685201166482841e+00
1.732513913568699826e-01 5.084691874715435489e+00
1.742919402535353657e-01 5.173653357160084454e+00
1.753324891502007488e-01 5.649830534766461909e+00
1.763730380468661318e-01 7.635146306328820742e+00
1.774135869435315149e-01 1.247861847130162261e+01
1.784541358401968980e-01 2.269803509655265117e+01
1.794946847368622811e-01 3.150141454814341557e+01
1.805352336335276642e-01 2.799601164233566664e+01
1.815757825301930473e-01 1.802371069879594856e+01
1.826163314268584303e-01 1.183646611291001705e+01
1.836568803235238134e-01 9.320851962626253595e+00
1.846974292201891965e-01 8.261513520557269175e+00
1.857379781168545796e-01 8.653529914631342024e+00
1.867785270135199627e-01 1.022250862897604406e+01
1.878190759101853458e-01 1.046419045655505542e+01
1.888596248068507288e-01 8.128985147075653117e+00
1.899001737035161119e-01 5.918348653087939226e+00
1.909407226001814950e-01 4.471583776089627094e+00
1.919812714968468781e-01 4.418329094557062575e+00
1.930218203935122612e-01 4.158665077173591129e+00
1.940623692901776443e-01 3.646193035926312831e+00
1.951029181868430273e-01 3.597856948419455136e+00
1.961434670835084104e-01 3.456531875821571731e+00
1.971840159801737935e-01 3.152257930103175454e+00
1.982245648768391766e-01 3.491288849010015127e+00
1.992651137735045597e-01 3.493321977279592261e+00
2.003056626701699428e-01 3.078609617861228998e+00
2.013462115668353813e-01 2.701642729225017803e+00
2.023867604635007644e-01 2.802332212057656591e+00
2.034273093601661475e-01 2.653566311927257004e+00
2.044678582568315306e-01 2.701706678888172064e+00
2.055084071534969137e-01 2.573658753315594794e+00
2.065489560501622968e-01 2.413812029170422591e+00
2.075895049468276798e-01 2.290615551611150380e+00
2.086300538434930629e-01 2.554509360382912320e+00
2.096706027401584460e-01 2.362361854364344538e+00
2.107111516368238291e-01 1.802174785776816890e+00
2.117517005334892122e-01 1.816520132421850064e+00
2.127922494301545953e-01 1.962003984102107523e+00
2.138327983268199783e-01 1.878507659774257377e+00
2.148733472234853614e-01 1.977351245300845051e+00
2.159138961201507445e-01 2.151684913872674798e+00
2.169544450168161276e-01 2.014924534864793060e+00
2.179949939134815107e-01 1.710545709893509070e+00
2.190355428101468938e-01 1.740427438010485162e+00
2.200760917068122768e-01 1.256134904935468199e+00
2.211166406034776599e-01 1.133861293693936290e+00
2.221571895001430430e-01 8.989846001779220330e-01
2.231977383968084261e-01 1.037356013383671893e+00
2.242382872934738092e-01 1.012340003924283138e+00
2.252788361901391923e-01 8.602555330004939549e-01
2.263193850868045753e-01 1.011120970910177164e+00
2.273599339834699584e-01 7.720558111660764666e-01
2.284004828801353415e-01 8.668114461749638622e-01
2.294410317768007246e-01 6.633722317011816472e-01
2.304815806734661077e-01 7.565745144907438657e-01
2.315221295701314908e-01 8.447054017585777785e-01
2.325626784667968738e-01 4.169336074851841545e-01
2.336032273634622569e-01 5.094911852331627244e-01
2.346437762601276400e-01 4.220635920790130058e-01
2.356843251567930231e-01 5.606291429799448167e-01
2.367248740534584062e-01 6.524590368158982301e-01
2.377654229501237892e-01 5.058274248025682596e-01
2.388059718467891723e-01 3.590319138572866109e-01
2.398465207434545554e-01 5.257362570367725141e-01
2.408870696401199385e-01 5.801498260867745671e-01
2.419276185367853216e-01 6.166559905150492682e-01
2.429681674334507047e-01 5.407691065181055023e-01
2.440087163301160877e-01 6.358854249854175578e-01
2.450492652267814708e-01 8.573397979037942207e-01
2.460898141234468539e-01 7.813262323405076870e-01
2.471303630201122370e-01 4.636608027288247058e-01
2.481709119167776201e-01 2.507624368918470736e-01
2.492114608134430032e-01 2.183051756237830432e-01
2.502520097101083585e-01 4.573275121549542632e-01
2.512925586067737416e-01 5.829918335492934034e-01
2.523331075034391247e-01 6.485386683024607635e-01
2.533736564001045077e-01 3.945745141834606784e-01
2.544142052967698908e-01 5.590271861721269886e-01
2.554547541934352739e-01 8.000716905705083093e-01
2.564953030901006570e-01 5.084639783646025535e-01
2.575358519867660401e-01 5.140165449508060647e-01
2.585764008834314231e-01 7.915137254950188606e-01
2.596169497800968062e-01 1.013957725523923159e+00
2.606574986767621893e-01 6.535809870721891457e-01
2.616980475734275724e-01 7.247291495434033948e-01
2.627385964700929555e-01 1.050756225086196594e+00
2.637791453667583386e-01 1.223725246210594975e+00
2.648196942634237216e-01 1.414332389589755934e+00
2.658602431600891047e-01 1.387997320586190853e+00
2.669007920567544878e-01 1.204283015774919363e+00
2.679413409534198709e-01 8.150862715880826670e-01
2.689818898500852540e-01 9.607047773982912986e-01
2.700224387467506371e-01 9.213826420312116738e-01
2.710629876434160201e-01 8.993918170134627132e-01
2.721035365400814032e-01 8.142356601626516976e-01
2.731440854367467863e-01 9.083362616435373127e-01
2.741846343334121694e-01 9.767842523456380377e-01
2.752251832300775525e-01 7.529411293131502703e-01
2.762657321267429356e-01 7.786092620367526251e-01
2.773062810234083186e-01 1.337049268704149085e+00
2.783468299200737017e-01 1.124034943559980348e+00
2.793873788167390848e-01 1.525538194186104590e+00
2.804279277134044679e-01 2.031718727257878498e+00
2.814684766100698510e-01 2.162209924814980866e+00
2.825090255067352341e-01 1.660907156755573766e+00
2.835495744034006171e-01 9.729781315503416295e-01
2.845901233000660002e-01 5.676702776879132273e-01
2.856306721967313833e-01 7.746974008630935771e-01
2.866712210933967664e-01 7.117747817074047134e-01
2.877117699900621495e-01 6.374763149205868729e-01
2.887523188867275326e-01 7.927172515876783621e-01
2.897928677833929156e-01 8.668287362794337980e-01
2.908334166800582987e-01 1.130847633524620477e+00
2.918739655767236818e-01 1.010316455294518079e+00
2.929145144733890649e-01 6.364508664512698033e-01
2.939550633700544480e-01 6.528100660122326815e-01
2.949956122667198311e-01 4.279086732533627924e-01
2.960361611633852141e-01 5.045707463008852756e-01
2.970767100600505972e-01 6.622635976081951981e-01
2.981172589567159803e-01 6.598428124071311629e-01
2.991578078533813634e-01 5.844395365309793533e-01
3.001983567500468020e-01 5.634063579004795486e-01
3.012389056467121851e-01 7.199237544898764440e-01
3.022794545433775681e-01 6.958220132984749284e-01
3.033200034400429512e-01 7.336791588171998058e-01
3.043605523367083343e-01 7.693888417238312627e-01
3.054011012333737174e-01 6.338933055221041002e-01
3.064416501300391005e-01 6.927899918092137455e-01
3.074821990267044836e-01 5.556251883635177080e-01
3.085227479233698666e-01 6.478657001263599113e-01
3.095632968200352497e-01 5.367734868661244718e-01
3.106038457167006328e-01 4.780603956909317276e-01
3.116443946133660159e-01 7.969429286037517102e-01
3.126849435100313990e-01 1.019646816185606042e+00
3.137254924066967821e-01 7.895545250761699663e-01
3.147660413033621651e-01 3.165531056381851727e-01
3.158065902000275482e-01 5.419779792748755654e-01
3.168471390966929313e-01 8.460136389362347131e-01
3.178876879933583144e-01 4.815662599840564440e-01
3.189282368900236975e-01 4.664170145776473930e-01
3.199687857866890806e-01 6.480528823077200684e-01
3.210093346833544636e-01 5.122896368557974256e-01
3.220498835800198467e-01 3.694369930040188876e-01
3.230904324766852298e-01 5.089465291828041416e-01
3.241309813733506129e-01 4.702136645084742383e-01
3.251715302700159960e-01 3.072037605535840044e-01
3.262120791666813790e-01 3.258911683717578001e-01
3.272526280633467621e-01 3.177724145171580972e-01
3.282931769600121452e-01 2.818587707967665779e-01
3.293337258566775283e-01 3.722704748898166827e-01
3.303742747533429114e-01 4.754393778242445023e-01
3.314148236500082945e-01 3.802379647800329110e-01
3.324553725466736775e-01 1.980257744185003332e-01
3.334959214433390606e-01 1.905345067562045358e-01
3.345364703400044437e-01 4.871791793546265126e-02
3.355770192366698268e-01 6.242062839688600207e-02
3.366175681333352099e-01 2.336900243333666083e-01
3.376581170300005930e-01 3.414459236829969768e-02
3.386986659266659760e-01 1.098241389178582494e-01
3.397392148233313591e-01 3.169479734556723827e-01
3.407797637199967422e-01 2.812927162401734904e-01
3.418203126166621253e-01 1.367527455633776867e-01
3.428608615133275084e-01 2.029942684679610920e-01
3.439014104099928915e-01 3.152892970940506245e-01
3.449419593066582745e-01 3.981596092324366509e-01
3.459825082033236576e-01 3.295164673020920532e-01
3.470230570999890407e-01 2.656326308438003991e-01
3.480636059966544238e-01 2.856070467002282953e-01
3.491041548933198069e-01 5.132397340527887764e-01
3.501447037899851900e-01 5.151977029422454279e-01
3.511852526866505730e-01 3.888261673507535932e-01
3.522258015833159561e-01 3.596098029469487756e-01
3.532663504799813392e-01 2.896802105412490391e-01
3.543068993766467223e-01 2.977820818696450544e-01
3.553474482733121054e-01 1.558521310142779726e-01
3.563879971699774885e-01 2.344759303717687260e-01
3.574285460666428715e-01 3.524132252965301859e-01
3.584690949633082546e-01 3.710739547633004065e-01
3.595096438599736377e-01 3.539635285664033404e-01
3.605501927566390208e-01 3.572038315298300404e-01
3.615907416533044039e-01 2.252954574324661507e-01
3.626312905499697870e-01 2.839637698341377359e-01
3.636718394466351700e-01 4.423484300824753745e-01
3.647123883433005531e-01 4.290271008731529889e-01
3.657529372399659362e-01 5.498045387939107798e-01
3.667934861366313193e-01 4.127324821970042024e-01
3.678340350332967024e-01 4.169530090041604353e-01
3.688745839299620854e-01 2.426857156821036199e-01
3.699151328266274685e-01 2.709259709329394639e-01
3.709556817232928516e-01 4.240358329419429140e-01
3.719962306199582347e-01 4.978152884154170010e-01
3.730367795166236178e-01 5.254633414321112639e-01
3.740773284132890009e-01 6.475255545568749938e-01
3.751178773099543839e-01 4.257035564906814784e-01
3.761584262066197670e-01 4.870431134743817836e-01
3.771989751032851501e-01 5.202753946527671758e-01
3.782395239999505332e-01 3.447519072364890746e-01
3.792800728966159163e-01 4.414993051709998895e-01
3.803206217932812994e-01 1.967534301126718788e-01
3.813611706899466824e-01 2.191453834846903703e-01
3.824017195866120655e-01 4.929088932880318907e-01
3.834422684832774486e-01 6.912355525890241381e-01
3.844828173799428317e-01 6.280617140888971051e-01
3.855233662766082148e-01 5.603807121350818932e-01
3.865639151732735979e-01 4.968481042435790584e-01
3.876044640699389809e-01 5.227896758655958820e-01
3.886450129666043640e-01 6.452039417876775929e-01
3.896855618632697471e-01 6.611695803811059591e-01
3.907261107599351302e-01 5.559561432781663370e-01
3.917666596566005133e-01 4.684391749965399754e-01
3.928072085532658964e-01 3.875316921097109457e-01
3.938477574499312794e-01 4.528894891926675825e-01
3.948883063465966625e-01 3.588781245376964080e-01
3.959288552432620456e-01 3.131671067133048325e-01
3.969694041399274287e-01 3.648020851368407591e-01
3.980099530365928118e-01 4.912099917995611520e-01
3.990505019332581949e-01 4.574620218496754376e-01
4.000910508299235779e-01 3.970254577983247657e-01
4.011315997265889610e-01 3.168812162214145189e-01
4.021721486232543441e-01 3.081146577421982613e-01
4.032126975199197272e-01 4.103326486742382428e-01
4.042532464165851103e-01 4.013999759930406697e-01
4.052937953132504934e-01 1.896103547886909269e-01
4.063343442099158764e-01 4.818673781295608194e-01
4.073748931065812595e-01 5.034748422143380253e-01
4.084154420032466426e-01 7.003871212018815129e-01
4.094559908999120257e-01 5.838098084827620937e-01
4.104965397965774088e-01 3.437889105219156249e-01
4.115370886932427918e-01 3.807831602412896643e-01
4.125776375899081749e-01 3.983101659295442687e-01
4.136181864865735580e-01 3.564535392117633705e-01
4.146587353832389411e-01 3.927295382072415464e-01
4.156992842799043242e-01 2.884486330764097772e-01
4.167398331765697073e-01 3.968896542421731510e-01
4.177803820732350903e-01 3.092614395166606300e-01
4.188209309699004734e-01 2.277408996662053653e-01
4.198614798665658565e-01 2.366174694024003600e-01
4.209020287632312396e-01 2.847439445805868274e-01
4.219425776598966227e-01 3.904584736928740085e-01
4.229831265565620058e-01 4.290003505164143860e-01
4.240236754532273888e-01 4.376449621320439576e-01
4.250642243498927719e-01 5.324547198348561494e-01
4.261047732465581550e-01 3.394736272637537411e-01
4.271453221432235381e-01 2.645752301602364298e-01
4.281858710398889212e-01 2.305855833815506628e-01
4.292264199365543043e-01 2.694361355893093446e-01
4.302669688332196873e-01 1.760213541832520434e-01
4.313075177298850704e-01 1.593847793050358064e-01
4.323480666265504535e-01 2.990569456632137246e-01
4.333886155232158366e-01 2.820751280437505670e-01
4.344291644198812197e-01 3.116011573769839060e-01
