# q (1/Angstrom), Intensity (arb)
2.029070354705860696e-02 1.062585671362831818e+03
2.133125244372399004e-02 1.059914028297711866e+03
2.237180134038937659e-02 1.053397638849958412e+03
2.341235023705475968e-02 1.046379113837904697e+03
2.445289913372014276e-02 1.038949629613544857e+03
2.549344803038552584e-02 1.029423501728496149e+03
2.653399692705091240e-02 1.016092790175237951e+03
2.757454582371629548e-02 1.008391887029849158e+03
2.861509472038167856e-02 1.004068568618751556e+03
2.965564361704706164e-02 9.944756734760177324e+02
3.069619251371244473e-02 9.789146786551170862e+02
3.173674141037782781e-02 9.651540846739799235e+02
3.277729030704321089e-02 9.545204531401260510e+02
3.381783920370859398e-02 9.427992243421806506e+02
3.485838810037397706e-02 9.249670367244499403e+02
3.589893699703936014e-02 9.110766648559736041e+02
3.693948589370474322e-02 8.963880851816812765e+02
3.798003479037012631e-02 8.780116266947837858e+02
3.902058368703550939e-02 8.593861568719507886e+02
4.006113258370089247e-02 8.418767147215038449e+02
4.110168148036627556e-02 8.259932477374217115e+02
4.214223037703165864e-02 8.061662405860686249e+02
4.318277927369704866e-02 7.925052138103518473e+02
4.422332817036243174e-02 7.765698614351338165e+02
4.526387706702781483e-02 7.600912317320714919e+02
4.630442596369319791e-02 7.420840470662330972e+02
4.734497486035858099e-02 7.289752399250734243e+02
4.838552375702396408e-02 7.097659350240047615e+02
4.942607265368934716e-02 6.929634616060702683e+02
5.046662155035473024e-02 6.744550307501635871e+02
5.150717044702011332e-02 6.563561758960547650e+02
5.254771934368549641e-02 6.433871777692464775e+02
5.358826824035087949e-02 6.249779809397422241e+02
5.462881713701626257e-02 6.066566767106094176e+02
5.566936603368164566e-02 5.876069485271791564e+02
5.670991493034702874e-02 5.723554114501190497e+02
5.775046382701241182e-02 5.569974182203253577e+02
5.879101272367779490e-02 5.381668593517465524e+02
5.983156162034317799e-02 5.227387250950246198e+02
6.087211051700856107e-02 5.042515803952665578e+02
6.191265941367394415e-02 4.877757411974280330e+02
6.295320831033933417e-02 4.717488834437525043e+02
6.399375720700471726e-02 4.552115230786507141e+02
6.503430610367010034e-02 4.408844019416360993e+02
6.607485500033548342e-02 4.261864781076320128e+02
6.711540389700086651e-02 4.113086439904378153e+02
6.815595279366624959e-02 3.964025117905800926e+02
6.919650169033163267e-02 3.814060481093626436e+02
7.023705058699701576e-02 3.670707142019073217e+02
7.127759948366239884e-02 3.529932423017696692e+02
7.231814838032778192e-02 3.391850499276380333e+02
7.335869727699316500e-02 3.235785790298361917e+02
7.439924617365854809e-02 3.099131863402250815e+02
7.543979507032393117e-02 2.991050805388800313e+02
7.648034396698931425e-02 2.863529424436978275e+02
7.752089286365469734e-02 2.735271897510659187e+02
7.856144176032008042e-02 2.622751110851618819e+02
7.960199065698546350e-02 2.489265313507664246e+02
8.064253955365084658e-02 2.362004810071923657e+02
8.168308845031622967e-02 2.270922994084794766e+02
8.272363734698161275e-02 2.209935539205677344e+02
8.376418624364699583e-02 2.233307675976913345e+02
8.480473514031239279e-02 2.302866706002956221e+02
8.584528403697777588e-02 2.316803033292150644e+02
8.688583293364315896e-02 2.307009602506987846e+02
8.792638183030854204e-02 2.658051163969660706e+02
8.896693072697392513e-02 3.636276525237042847e+02
9.000747962363930821e-02 4.264152298062737145e+02
9.104802852030469129e-02 3.513777416204684982e+02
9.208857741697007437e-02 2.336303352629253993e+02
9.312912631363545746e-02 1.813143666511156766e+02
9.416967521030084054e-02 1.646493912887219153e+02
9.521022410696622362e-02 1.532930759312816065e+02
9.625077300363160671e-02 1.412350195751702699e+02
9.729132190029698979e-02 1.272524544141583505e+02
9.833187079696237287e-02 1.144728870105003580e+02
9.937241969362775595e-02 1.038055145918768716e+02
1.004129685902931390e-01 9.509971497302618104e+01
1.014535174869585221e-01 9.107637565033851956e+01
1.024940663836239052e-01 9.609537404960616414e+01
1.035346152802892883e-01 9.930876834858375446e+01
1.045751641769546714e-01 8.692687067053259398e+01
1.056157130736200545e-01 6.602870391477132728e+01
1.066562619702854375e-01 5.202119386401996337e+01
1.076968108669508206e-01 4.470985822484851724e+01
1.087373597636162037e-01 4.006662353845347724e+01
1.097779086602815868e-01 3.584992810312102307e+01
1.108184575569469699e-01 3.205082654987788970e+01
1.118590064536123529e-01 2.874058138322010336e+01
1.128995553502777360e-01 2.572272571506931627e+01
1.139401042469431191e-01 2.297166669260300154e+01
1.149806531436085022e-01 2.074161467605186715e+01
1.160212020402738853e-01 1.830688186096818981e+01
1.170617509369392684e-01 1.598072342785473410e+01
1.181022998336046514e-01 1.359934567066189715e+01
1.191428487302700345e-01 1.230495437604380982e+01
1.201833976269354176e-01 1.073647752810014566e+01
1.212239465236008007e-01 9.318351421511131605e+00
1.222644954202661838e-01 8.434955689049004945e+00
1.233050443169315669e-01 7.179832600528143871e+00
1.243455932135969499e-01 6.154632283552693650e+00
1.253861421102623330e-01 5.381499080590550932e+00
1.264266910069277161e-01 4.570659942921729169e+00
1.274672399035930992e-01 4.008979131925620720e+00
1.285077888002584823e-01 3.257193795531037495e+00
1.295483376969238654e-01 2.562046914770036210e+00
1.305888865935892484e-01 2.415616879273954964e+00
1.316294354902546315e-01 2.453611999307447888e+00
1.326699843869200146e-01 2.243508316322433416e+00
1.337105332835853977e-01 1.945394287702711722e+00
1.347510821802507808e-01 1.734322451945722321e+00
1.357916310769161639e-01 1.510803060986674495e+00
1.368321799735815469e-01 1.921285279404749247e+00
1.378727288702469300e-01 2.098041960303319797e+00
1.389132777669123131e-01 1.855894243625002105e+00
1.399538266635776962e-01 1.761887867904150085e+00
1.409943755602430793e-01 1.970333670243910262e+00
1.420349244569084624e-01 2.257277207661751106e+00
1.430754733535738454e-01 2.861613283403777075e+00
1.441160222502392285e-01 3.583608924097262616e+00
1.451565711469046116e-01 5.110361681446022430e+00
1.461971200435699947e-01 7.064747460203491869e+00
1.472376689402353778e-01 7.831391834932610152e+00
1.482782178369007609e-01 6.886326109586661914e+00
1.493187667335661439e-01 6.168076479928139122e+00
1.503593156302315270e-01 5.953773500130438379e+00
1.513998645268969101e-01 5.517239860840831511e+00
1.524404134235622932e-01 5.752510691680477350e+00
1.534809623202276763e-01 6.237695817797828113e+00
1.545215112168930593e-01 6.709231247970492973e+00
1.555620601135584424e-01 7.198392395607001504e+00
1.566026090102238255e-01 7.333582731938818711e+00
1.576431579068892086e-01 7.649200352736766462e+00
1.586837068035545917e-01 7.517999630214838191e+00
1.597242557002199748e-01 8.604193403419454711e+00
1.607648045968853578e-01 8.888656760171379290e+00
1.618053534935507409e-01 8.317403355995708125e+00
1.628459023902161240e-01 8.200469863667933623e+00
1.638864512868815071e-01 8.643658735032005325e+00
1.649270001835468902e-01 9.222715092239671009e+00
1.659675490802122733e-01 9.063167601314251698e+00
1.670080979768776563e-01 8.965703756374992395e+00
1.680486468735430672e-01 9.434260035850297044e+00
1.690891957702084503e-01 1.072029437347870839e+01
1.701297446668738333e-01 1.390996158996437160e+01
1.711702935635392164e-01 1.921591011130796289e+01
1.722108424602045995e-01 2.273761212819922051e+01
1.732513913568699826e-01 2.038494905273018887e+01
1.742919402535353657e-01 1.507446287022733600e+01
1.753324891502007488e-01 1.163695728377020444e+01
1.763730380468661318e-01 1.080257795705502133e+01
1.774135869435315149e-01 1.041465596943372773e+01
1.784541358401968980e-01 1.121414144276072733e+01
1.794946847368622811e-01 1.085455249271454292e+01
1.805352336335276642e-01 1.018327580950936095e+01
1.815757825301930473e-01 9.111744025481005593e+00
1.826163314268584303e-01 7.883669887649872976e+00
1.836568803235238134e-01 7.157366359177224524e+00
1.846974292201891965e-01 7.219327641335592460e+00
1.857379781168545796e-01 6.783526877531521393e+00
1.867785270135199627e-01 7.013213929274851210e+00
1.878190759101853458e-01 6.829143129420600644e+00
1.888596248068507288e-01 6.263077678439000096e+00
1.899001737035161119e-01 5.688120470090272107e+00
1.909407226001814950e-01 5.362197125368723505e+00
1.919812714968468781e-01 5.440350752110941102e+00
1.930218203935122612e-01 4.995998398772975690e+00
1.940623692901776443e-01 4.947511231639307283e+00
1.951029181868430273e-01 4.907204996587388734e+00
1.961434670835084104e-01 4.469257736179926610e+00
1.971840159801737935e-01 4.675526026519232659e+00
1.982245648768391766e-01 4.634025160029441537e+00
1.992651137735045597e-01 4.340576098728554655e+00
2.003056626701699428e-01 4.065445012944696401e+00
2.013462115668353813e-01 3.667381247539520217e+00
2.023867604635007644e-01 3.137026972616279608e+00
2.034273093601661475e-01 2.996909716375991906e+00
2.044678582568315306e-01 3.074346590596114481e+00
2.055084071534969137e-01 2.831321578384226711e+00
2.065489560501622968e-01 2.561913750694486680e+00
2.075895049468276798e-01 2.712683116991801313e+00
2.086300538434930629e-01 2.548900648548798387e+00
2.096706027401584460e-01 1.972197607964456978e+00
2.107111516368238291e-01 1.940195142967894526e+00
2.117517005334892122e-01 1.774005172222128834e+00
2.127922494301545953e-01 1.591571507844186328e+00
2.138327983268199783e-01 1.375382156082384455e+00
2.148733472234853614e-01 1.314592966736093160e+00
2.159138961201507445e-01 1.416341071039504129e+00
2.169544450168161276e-01 1.036754163757336755e+00
2.179949939134815107e-01 9.997571312010400391e-01
2.190355428101468938e-01 9.144133585865361624e-01
2.200760917068122768e-01 7.755981921439634164e-01
2.211166406034776599e-01 4.240172149463994344e-01
2.221571895001430430e-01 6.609811140557724229e-01
2.231977383968084261e-01 8.589445955139218825e-01
2.242382872934738092e-01 9.442400358831726237e-01
2.252788361901391923e-01 6.966638100684150459e-01
2.263193850868045753e-01 6.159364742952817551e-01
2.273599339834699584e-01 7.391147175409784609e-01
2.284004828801353415e-01 4.528497716672994500e-01
2.294410317768007246e-01 5.040448095696632436e-01
2.304815806734661077e-01 4.812529747613396580e-01
2.315221295701314908e-01 5.278444588539308313e-01
2.325626784667968738e-01 5.970195587577720175e-01
2.336032273634622569e-01 5.941144893975689456e-01
2.346437762601276400e-01 4.792166921474532160e-01
2.356843251567930231e-01 2.682243040048746252e-01
2.367248740534584062e-01 1.558294026287576628e-01
2.377654229501237892e-01 6.455143254600912428e-01
2.388059718467891723e-01 7.229457525666056483e-01
2.398465207434545554e-01 6.374888511291416648e-01
2.408870696401199385e-01 8.505240905451785238e-01
2.419276185367853216e-01 1.091413773849438940e+00
2.429681674334507047e-01 7.818892314287460010e-01
2.440087163301160877e-01 8.518665975950447944e-01
2.450492652267814708e-01 1.253875678861145815e+00
2.460898141234468539e-01 1.047889514866820804e+00
2.471303630201122370e-01 6.165139367012706373e-01
2.481709119167776201e-01 9.671099226420771799e-01
2.492114608134430032e-01 1.004689939950022648e+00
2.502520097101083585e-01 8.543310875797516246e-01
2.512925586067737416e-01 1.316059657992198595e+00
2.523331075034391247e-01 1.516149148680710823e+00
2.533736564001045077e-01 1.607833865358760050e+00
2.544142052967698908e-01 1.354376919305874338e+00
2.554547541934352739e-01 1.222520254206205692e+00
2.564953030901006570e-01 1.297166820080430938e+00
2.575358519867660401e-01 1.290255267869042655e+00
2.585764008834314231e-01 1.313479948800640784e+00
2.596169497800968062e-01 1.457844625789800119e+00
2.606574986767621893e-01 1.585267947238840236e+00
2.616980475734275724e-01 1.531306589854668943e+00
2.627385964700929555e-01 1.445967173287304064e+00
2.637791453667583386e-01 1.163773766509375918e+00
2.648196942634237216e-01 1.275429658615657047e+00
2.658602431600891047e-01 1.457067586505992551e+00
2.669007920567544878e-01 1.935806247620860177e+00
2.679413409534198709e-01 1.972839827195173257e+00
2.689818898500852540e-01 2.031960677570850748e+00
2.700224387467506371e-01 2.287964778739905114e+00
2.710629876434160201e-01 2.017369798360526545e+00
2.721035365400814032e-01 1.638086256028529419e+00
2.731440854367467863e-01 1.364766570583313410e+00
2.741846343334121694e-01 1.338785607290823521e+00
2.752251832300775525e-01 1.296731009008947666e+00
2.762657321267429356e-01 1.445149527059506056e+00
2.773062810234083186e-01 1.326749683747095787e+00
2.783468299200737017e-01 1.133193224411780164e+00
2.793873788167390848e-01 9.393724081122698522e-01
2.804279277134044679e-01 1.003103651290448539e+00
2.814684766100698510e-01 1.159685638383706419e+00
2.825090255067352341e-01 1.177938773639855441e+00
2.835495744034006171e-01 1.119598990153466644e+00
2.845901233000660002e-01 1.006700259320766122e+00
2.856306721967313833e-01 1.132515437452624951e+00
2.866712210933967664e-01 8.970278078099198638e-01
2.877117699900621495e-01 9.778399935799164666e-01
2.887523188867275326e-01 7.657575764658979267e-01
2.897928677833929156e-01 7.609069713938723112e-01
2.908334166800582987e-01 8.910910915027159263e-01
2.918739655767236818e-01 1.124087239333732668e+00
2.929145144733890649e-01 1.122062231590891912e+00
2.939550633700544480e-01 1.032010015841457573e+00
2.949956122667198311e-01 1.060667278029697513e+00
2.960361611633852141e-01 7.437808598484849654e-01
2.970767100600505972e-01 7.464981192000976762e-01
2.981172589567159803e-01 7.598883559634153073e-01
2.991578078533813634e-01 8.821511959819758886e-01
3.001983567500468020e-01 7.070739561060932488e-01
3.012389056467121851e-01 5.456844164436454037e-01
3.022794545433775681e-01 4.349437961762134819e-01
3.033200034400429512e-01 4.114942723126553403e-01
3.043605523367083343e-01 5.199727244579719354e-01
3.054011012333737174e-01 6.757030970012039006e-01
3.064416501300391005e-01 8.470329442135238196e-01
3.074821990267044836e-01 7.168429188284761722e-01
3.085227479233698666e-01 4.842091758165807391e-01
3.095632968200352497e-01 4.092417928315867925e-01
3.106038457167006328e-01 4.004213283372770604e-01
3.116443946133660159e-01 3.423526549779403183e-01
3.126849435100313990e-01 2.068854795958756654e-01
3.137254924066967821e-01 1.170997732827672166e-02
3.147660413033621651e-01 0.000000000000000000e+00
3.158065902000275482e-01 4.924988794396760738e-01
3.168471390966929313e-01 4.535730865543250445e-01
3.178876879933583144e-01 5.569391172632336406e-01
3.189282368900236975e-01 4.633026455594198012e-01
3.199687857866890806e-01 2.679999661469807393e-01
3.210093346833544636e-01 1.289461750246836402e-01
3.220498835800198467e-01 1.519912515671109077e-01
3.230904324766852298e-01 3.183075265607584470e-01
3.241309813733506129e-01 3.626064052611965849e-01
3.251715302700159960e-01 2.990764595579662455e-01
3.262120791666813790e-01 2.406643042452110137e-01
3.272526280633467621e-01 1.442265781036162764e-01
3.282931769600121452e-01 2.774255143878008312e-01
3.293337258566775283e-01 4.650989444974591436e-01
3.303742747533429114e-01 5.185513665838143993e-01
3.314148236500082945e-01 4.691605649503642894e-01
3.324553725466736775e-01 5.062407048975643420e-01
3.334959214433390606e-01 4.700089362381092428e-01
3.345364703400044437e-01 1.863524930243478650e-01
3.355770192366698268e-01 3.486206950849037867e-01
3.366175681333352099e-01 3.814101744706732688e-01
3.376581170300005930e-01 4.292933351483085858e-01
3.386986659266659760e-01 2.671190880438523152e-01
3.397392148233313591e-01 3.680582808804544470e-01
3.407797637199967422e-01 4.114333659235036578e-01
3.418203126166621253e-01 5.180929316246896121e-01
3.428608615133275084e-01 6.209417784479356328e-01
3.439014104099928915e-01 5.251400544468936005e-01
3.449419593066582745e-01 3.968495420698872067e-01
3.459825082033236576e-01 4.559653990378684796e-01
3.470230570999890407e-01 5.595411043828590891e-01
3.480636059966544238e-01 5.890891598129961437e-01
3.491041548933198069e-01 6.438663212742987696e-01
3.501447037899851900e-01 3.755038991582964059e-01
3.511852526866505730e-01 2.530709755178328635e-01
3.522258015833159561e-01 4.164860625059780830e-01
3.532663504799813392e-01 3.002321845808282319e-01
3.543068993766467223e-01 2.032702741528709112e-01
3.553474482733121054e-01 4.481047317602957492e-01
3.563879971699774885e-01 3.650840949437430538e-01
3.574285460666428715e-01 4.891816338533345743e-01
3.584690949633082546e-01 6.731295674886297320e-01
3.595096438599736377e-01 6.247464299141007871e-01
3.605501927566390208e-01 4.582902657660170576e-01
3.615907416533044039e-01 4.971821315005975350e-01
3.626312905499697870e-01 5.627884361649400091e-01
3.636718394466351700e-01 4.748876575494271890e-01
3.647123883433005531e-01 5.310541255852321285e-01
3.657529372399659362e-01 6.470040536353813820e-01
3.667934861366313193e-01 8.465209883224140697e-01
3.678340350332967024e-01 7.341131973278294254e-01
3.688745839299620854e-01 5.983370175915894151e-01
3.699151328266274685e-01 7.057183280535213044e-01
3.709556817232928516e-01 4.592322005487403658e-01
3.719962306199582347e-01 3.655093141842122861e-01
3.730367795166236178e-01 7.422934567839192255e-01
3.740773284132890009e-01 6.797485134323402178e-01
3.751178773099543839e-01 5.864333550636331438e-01
3.761584262066197670e-01 3.737331623870048247e-01
3.771989751032851501e-01 4.075065317810100396e-01
3.782395239999505332e-01 3.966431769891016756e-01
3.792800728966159163e-01 4.104875823217710717e-01
3.803206217932812994e-01 6.930271200840785184e-01
3.813611706899466824e-01 4.716762310250040002e-01
3.824017195866120655e-01 3.911012643664477650e-01
3.834422684832774486e-01 4.321061085455148998e-01
3.844828173799428317e-01 6.040139247083970986e-01
3.855233662766082148e-01 7.873997440637481304e-01
3.865639151732735979e-01 7.461682007839414155e-01
3.876044640699389809e-01 5.812472775996191388e-01
3.886450129666043640e-01 4.988550111555341005e-01
3.896855618632697471e-01 7.110266042938633291e-01
3.907261107599351302e-01 5.592573661256174944e-01
3.917666596566005133e-01 5.494840899998543193e-01
3.928072085532658964e-01 3.248305187741067357e-01
3.938477574499312794e-01 3.064634348531320995e-01
3.948883063465966625e-01 4.679021642358485167e-01
3.959288552432620456e-01 3.936578501369893957e-01
3.969694041399274287e-01 3.242048704989741736e-01
3.980099530365928118e-01 5.314208748882407463e-01
3.990505019332581949e-01 5.766559184020927376e-01
4.000910508299235779e-01 3.555135279014614014e-01
4.011315997265889610e-01 3.446459359262874500e-01
4.021721486232543441e-01 5.363491532816802021e-01
4.032126975199197272e-01 3.588730288796639911e-01
4.042532464165851103e-01 2.799094329414444360e-01
4.052937953132504934e-01 3.497909350359940106e-01
4.063343442099158764e-01 4.449062302961337423e-01
4.073748931065812595e-01 5.431700939021801844e-01
4.084154420032466426e-01 4.772308428381286660e-01
4.094559908999120257e-01 2.424663150770562936e-01
4.104965397965774088e-01 1.219723012675046903e-01
4.115370886932427918e-01 1.886789512694626580e-01
4.125776375899081749e-01 1.602063264604538517e-01
4.136181864865735580e-01 9.134060878239935732e-02
4.146587353832389411e-01 1.144462183234757902e-01
4.156992842799043242e-01 4.239713257958932502e-01
4.167398331765697073e-01 4.492715895085197531e-01
4.177803820732350903e-01 2.913561035992024983e-01
4.188209309699004734e-01 2.925096322802360760e-01
4.198614798665658565e-01 2.390979593349022991e-01
4.209020287632312396e-01 2.288275749636241585e-01
4.219425776598966227e-01 1.843842399161346179e-01
4.229831265565620058e-01 2.837461077694563016e-01
4.240236754532273888e-01 2.396696668774254135e-01
4.250642243498927719e-01 2.661230332510555741e-01
4.261047732465581550e-01 3.082302558789429270e-01
4.271453221432235381e-01 4.630146333417464177e-01
4.281858710398889212e-01 4.588110932174807033e-01
4.292264199365543043e-01 3.936543898387689921e-01
4.302669688332196873e-01 3.209576066772683589e-01
4.313075177298850704e-01 1.907405306462557348e-01
4.323480666265504535e-01 1.211590642544386753e-01
4.333886155232158366e-01 2.632271625783246805e-01
4.344291644198812197e-01 3.523279813760318291e-01
