# q (1/Angstrom), Intensity (arb)
2.029070354705860696e-02 1.404831542485591854e+03
2.133125244372399004e-02 1.401326966504171651e+03
2.237180134038937659e-02 1.391779125704380931e+03
2.341235023705475968e-02 1.383390050842107030e+03
2.445289913372014276e-02 1.376931097522235405e+03
2.549344803038552584e-02 1.368329281037258397e+03
2.653399692705091240e-02 1.357165731723055160e+03
2.757454582371629548e-02 1.343436440142046649e+03
2.861509472038167856e-02 1.322884563797390911e+03
2.965564361704706164e-02 1.308344435912945301e+03
3.069619251371244473e-02 1.292501407742793617e+03
3.173674141037782781e-02 1.274307177509466101e+03
3.277729030704321089e-02 1.256413389605810380e+03
3.381783920370859398e-02 1.237384758790534761e+03
3.485838810037397706e-02 1.211688128661711744e+03
3.589893699703936014e-02 1.194316460111138213e+03
3.693948589370474322e-02 1.176477407072247843e+03
3.798003479037012631e-02 1.154766961769246564e+03
3.902058368703550939e-02 1.133731935276077593e+03
4.006113258370089247e-02 1.111045703923791280e+03
4.110168148036627556e-02 1.090103059504090652e+03
4.214223037703165864e-02 1.066071537523126835e+03
4.318277927369704866e-02 1.041473500270605655e+03
4.422332817036243174e-02 1.019268295878063441e+03
4.526387706702781483e-02 9.957176915598629421e+02
4.630442596369319791e-02 9.751209105564021229e+02
4.734497486035858099e-02 9.507051329999646896e+02
4.838552375702396408e-02 9.306222568611743782e+02
4.942607265368934716e-02 9.076484226930099339e+02
5.046662155035473024e-02 8.815580556830939258e+02
5.150717044702011332e-02 8.620827989912696694e+02
5.254771934368549641e-02 8.395213934895358534e+02
5.358826824035087949e-02 8.134795367375473916e+02
5.462881713701626257e-02 7.888905375046648487e+02
5.566936603368164566e-02 7.663899062565195663e+02
5.670991493034702874e-02 7.444351994009909959e+02
5.775046382701241182e-02 7.228042011425822011e+02
5.879101272367779490e-02 7.007874845266907187e+02
5.983156162034317799e-02 6.766655710789631257e+02
6.087211051700856107e-02 6.542889610481570344e+02
6.191265941367394415e-02 6.330427837606964658e+02
6.295320831033933417e-02 6.133176648427363489e+02
6.399375720700471726e-02 5.942117898099613740e+02
6.503430610367010034e-02 5.724694972746865460e+02
6.607485500033548342e-02 5.503072418938602368e+02
6.711540389700086651e-02 5.314448927563719280e+02
6.815595279366624959e-02 5.112782688629337713e+02
6.919650169033163267e-02 4.914413937937536048e+02
7.023705058699701576e-02 4.714670473806751829e+02
7.127759948366239884e-02 4.525772080922777150e+02
7.231814838032778192e-02 4.358009207778154632e+02
7.335869727699316500e-02 4.171601829507341677e+02
7.439924617365854809e-02 3.979954636963870485e+02
7.543979507032393117e-02 3.787003799938173643e+02
7.648034396698931425e-02 3.620746388278814720e+02
7.752089286365469734e-02 3.461303846741943744e+02
7.856144176032008042e-02 3.296369991611320529e+02
7.960199065698546350e-02 3.143158412628403653e+02
8.064253955365084658e-02 2.994361452159459986e+02
8.168308845031622967e-02 2.846828980114296428e+02
8.272363734698161275e-02 2.697538610335013232e+02
8.376418624364699583e-02 2.562169421251474546e+02
8.480473514031239279e-02 2.427260747004508517e+02
8.584528403697777588e-02 2.296778791767452788e+02
8.688583293364315896e-02 2.167534737546157260e+02
8.792638183030854204e-02 2.045229889302416666e+02
8.896693072697392513e-02 1.927082355451461808e+02
9.000747962363930821e-02 1.814946381019104535e+02
9.104802852030469129e-02 1.698180854117506442e+02
9.208857741697007437e-02 1.588798741756777702e+02
9.312912631363545746e-02 1.487793390065347978e+02
9.416967521030084054e-02 1.391949604585727798e+02
9.521022410696622362e-02 1.297755874621872749e+02
9.625077300363160671e-02 1.204225596036660164e+02
9.729132190029698979e-02 1.118685408609494232e+02
9.833187079696237287e-02 1.040916045273252166e+02
9.937241969362775595e-02 9.682263636518266026e+01
1.004129685902931390e-01 8.919989843277099340e+01
1.014535174869585221e-01 8.258389020436383987e+01
1.024940663836239052e-01 7.647444283912483343e+01
1.035346152802892883e-01 7.022144038121983556e+01
1.045751641769546714e-01 6.323420473537385078e+01
1.056157130736200545e-01 5.769884106510131261e+01
1.066562619702854375e-01 5.256285706735942398e+01
1.076968108669508206e-01 4.791520592786366706e+01
1.087373597636162037e-01 4.403091672038586779e+01
1.097779086602815868e-01 3.918066277784581075e+01
1.108184575569469699e-01 3.496254561630122026e+01
1.118590064536123529e-01 3.161766569146489303e+01
1.128995553502777360e-01 2.799116842200275102e+01
1.139401042469431191e-01 2.463186654385600605e+01
1.149806531436085022e-01 2.216613404619648975e+01
1.160212020402738853e-01 1.919594872707179434e+01
1.170617509369392684e-01 1.662890391971873782e+01
1.181022998336046514e-01 1.487019776896647016e+01
1.191428487302700345e-01 1.275133169281338041e+01
1.201833976269354176e-01 1.123455187834517233e+01
1.212239465236008007e-01 9.920626450707139554e+00
1.222644954202661838e-01 8.026300176823170318e+00
1.233050443169315669e-01 6.903127250173859863e+00
1.243455932135969499e-01 5.381917925112965406e+00
1.253861421102623330e-01 4.801424548972711648e+00
1.264266910069277161e-01 4.369198396188053835e+00
1.274672399035930992e-01 3.264758521812105130e+00
1.285077888002584823e-01 2.917527297759718863e+00
1.295483376969238654e-01 2.292377285940162324e+00
1.305888865935892484e-01 1.714357902294672442e+00
1.316294354902546315e-01 1.786331014433137909e+00
1.326699843869200146e-01 1.624468932190360704e+00
1.337105332835853977e-01 1.683416118430720587e+00
1.347510821802507808e-01 1.828681573364718815e+00
1.357916310769161639e-01 1.972884076815496712e+00
1.368321799735815469e-01 1.911306381614693350e+00
1.378727288702469300e-01 1.937002262310528522e+00
1.389132777669123131e-01 2.304931292053247205e+00
1.399538266635776962e-01 2.578084729322199564e+00
1.409943755602430793e-01 2.992389796339907093e+00
1.420349244569084624e-01 3.357222451333733204e+00
1.430754733535738454e-01 3.781425327722594432e+00
1.441160222502392285e-01 4.274052337969813209e+00
1.451565711469046116e-01 4.304219635537677391e+00
1.461971200435699947e-01 4.892640492787663220e+00
1.472376689402353778e-01 5.537169375272959826e+00
1.482782178369007609e-01 5.952055658615542200e+00
1.493187667335661439e-01 6.111789553506234540e+00
1.503593156302315270e-01 6.163036558500103013e+00
1.513998645268969101e-01 6.821283240015119986e+00
1.524404134235622932e-01 7.264953142893830318e+00
1.534809623202276763e-01 7.359803128458224819e+00
1.545215112168930593e-01 8.418262575122476221e+00
1.555620601135584424e-01 8.928931853992985168e+00
1.566026090102238255e-01 9.283570705129470468e+00
1.576431579068892086e-01 9.387364588647109542e+00
1.586837068035545917e-01 9.442102100302392387e+00
1.597242557002199748e-01 9.603159254417434454e+00
1.607648045968853578e-01 9.644853591340961430e+00
1.618053534935507409e-01 1.009409198241979766e+01
1.628459023902161240e-01 9.958754385881157134e+00
1.638864512868815071e-01 1.032974083914589869e+01
1.649270001835468902e-01 1.071325703317973677e+01
1.659675490802122733e-01 1.078303789184820261e+01
1.670080979768776563e-01 1.077959174859827129e+01
1.680486468735430672e-01 1.092639889274897769e+01
1.690891957702084503e-01 1.094462238017927547e+01
1.701297446668738333e-01 1.125095156473244984e+01
1.711702935635392164e-01 1.119567324741700531e+01
1.722108424602045995e-01 1.080323076376983238e+01
1.732513913568699826e-01 1.046287189154572417e+01
1.742919402535353657e-01 1.093486900578607646e+01
1.753324891502007488e-01 1.077402046040536732e+01
1.763730380468661318e-01 1.019301065362597924e+01
1.774135869435315149e-01 1.011178494594503263e+01
1.784541358401968980e-01 1.046150429166012330e+01
1.794946847368622811e-01 9.910535870771859379e+00
1.805352336335276642e-01 9.472693393880437185e+00
1.815757825301930473e-01 9.137223120435042034e+00
1.826163314268584303e-01 9.010360677414887220e+00
1.836568803235238134e-01 9.257722291141490700e+00
1.846974292201891965e-01 8.961479766421803106e+00
1.857379781168545796e-01 8.383884919329400276e+00
1.867785270135199627e-01 7.946100963268570183e+00
1.878190759101853458e-01 7.422861141184519340e+00
1.888596248068507288e-01 7.356698398392133242e+00
1.899001737035161119e-01 7.095395808608969901e+00
1.909407226001814950e-01 6.695148729075285132e+00
1.919812714968468781e-01 6.561430519658443927e+00
1.930218203935122612e-01 6.104178062230491975e+00
1.940623692901776443e-01 6.019468745047756641e+00
1.951029181868430273e-01 5.731567999942122071e+00
1.961434670835084104e-01 5.049848625113462219e+00
1.971840159801737935e-01 4.902787377962763316e+00
1.982245648768391766e-01 4.575952921521913908e+00
1.992651137735045597e-01 4.333301248838459685e+00
2.003056626701699428e-01 4.146741515025759384e+00
2.013462115668353813e-01 3.636584429377911931e+00
2.023867604635007644e-01 3.399954737189084142e+00
2.034273093601661475e-01 3.115888253786110340e+00
2.044678582568315306e-01 3.085628607785789512e+00
2.055084071534969137e-01 2.890378652001256654e+00
2.065489560501622968e-01 2.763220574382653894e+00
2.075895049468276798e-01 2.833664482635260384e+00
2.086300538434930629e-01 2.284473920593441676e+00
2.096706027401584460e-01 1.608081818158645149e+00
2.107111516368238291e-01 1.431287985356288317e+00
2.117517005334892122e-01 1.259729273873318789e+00
2.127922494301545953e-01 1.499048659460548549e+00
2.138327983268199783e-01 1.373946327680112489e+00
2.148733472234853614e-01 1.145521391719395154e+00
2.159138961201507445e-01 1.316575993149594836e+00
2.169544450168161276e-01 1.017528389645562470e+00
2.179949939134815107e-01 8.727280480471790725e-01
2.190355428101468938e-01 8.658878142777624021e-01
2.200760917068122768e-01 6.710847020907309002e-01
2.211166406034776599e-01 5.099182568661575488e-01
2.221571895001430430e-01 2.435313814157495926e-01
2.231977383968084261e-01 2.789487146303279985e-01
2.242382872934738092e-01 3.482481512902708687e-01
2.252788361901391923e-01 2.221698004956778050e-01
2.263193850868045753e-01 3.604642551545573781e-01
2.273599339834699584e-01 3.054411698745980175e-01
2.284004828801353415e-01 3.075252381904931553e-01
2.294410317768007246e-01 4.204533074643101997e-01
2.304815806734661077e-01 4.369590043317934658e-01
2.315221295701314908e-01 2.090049530441078218e-01
2.325626784667968738e-01 5.431339721214634153e-01
2.336032273634622569e-01 6.965471278866424143e-01
2.346437762601276400e-01 4.800563539972912963e-01
2.356843251567930231e-01 2.730514065927529543e-01
2.367248740534584062e-01 3.816261971226353467e-01
2.377654229501237892e-01 3.932576412045918346e-01
2.388059718467891723e-01 6.668285276941645634e-01
2.398465207434545554e-01 8.055612038522568241e-01
2.408870696401199385e-01 9.054337604253213101e-01
2.419276185367853216e-01 9.277498105453254595e-01
2.429681674334507047e-01 8.245714620521198412e-01
2.440087163301160877e-01 8.223003693873955910e-01
2.450492652267814708e-01 1.031516460127704704e+00
2.460898141234468539e-01 7.298688765934393530e-01
2.471303630201122370e-01 6.824424485681319652e-01
2.481709119167776201e-01 9.433940202097019778e-01
2.492114608134430032e-01 9.748105448772186321e-01
2.502520097101083585e-01 1.221441262798229843e+00
2.512925586067737416e-01 1.151026850771618371e+00
2.523331075034391247e-01 1.065888853969195083e+00
2.533736564001045077e-01 1.165944012299014787e+00
2.544142052967698908e-01 1.305564621354044164e+00
2.554547541934352739e-01 1.502861729557157133e+00
2.564953030901006570e-01 1.429022215333972667e+00
2.575358519867660401e-01 1.447251978760636604e+00
2.585764008834314231e-01 1.552974546526584732e+00
2.596169497800968062e-01 1.457577582144313766e+00
2.606574986767621893e-01 1.396277359317778632e+00
2.616980475734275724e-01 1.501144817718223834e+00
2.627385964700929555e-01 1.732899615147999839e+00
2.637791453667583386e-01 1.865835666348175437e+00
2.648196942634237216e-01 1.727302621715750774e+00
2.658602431600891047e-01 1.502357685424634326e+00
2.669007920567544878e-01 1.631152745625843892e+00
2.679413409534198709e-01 1.562476110319721556e+00
2.689818898500852540e-01 1.321280978976648868e+00
2.700224387467506371e-01 1.524913715373667600e+00
2.710629876434160201e-01 1.587848341592653867e+00
2.721035365400814032e-01 1.543988633766907981e+00
2.731440854367467863e-01 1.412942547839406870e+00
2.741846343334121694e-01 1.487853414847020161e+00
2.752251832300775525e-01 1.742631569073360254e+00
2.762657321267429356e-01 1.674483856084194144e+00
2.773062810234083186e-01 1.635078598302996511e+00
2.783468299200737017e-01 1.512857360482961155e+00
2.793873788167390848e-01 1.334872807108652637e+00
2.804279277134044679e-01 1.335273337046384512e+00
2.814684766100698510e-01 1.282334927610250475e+00
2.825090255067352341e-01 1.120693536571199189e+00
2.835495744034006171e-01 1.365312220697706636e+00
2.845901233000660002e-01 1.354216866700348021e+00
2.856306721967313833e-01 1.207418938540524067e+00
2.866712210933967664e-01 9.478030723557502313e-01
2.877117699900621495e-01 8.901423546857323288e-01
2.887523188867275326e-01 8.497438489436532905e-01
2.897928677833929156e-01 6.948888560607393572e-01
2.908334166800582987e-01 8.024533177932262618e-01
2.918739655767236818e-01 1.015009839310856421e+00
2.929145144733890649e-01 8.596533284432830158e-01
2.939550633700544480e-01 4.961392881256863063e-01
2.949956122667198311e-01 7.424395469161808592e-01
2.960361611633852141e-01 8.359343978335829206e-01
2.970767100600505972e-01 6.588441416987649291e-01
2.981172589567159803e-01 7.410759201478143154e-01
2.991578078533813634e-01 5.596148739717428100e-01
3.001983567500468020e-01 3.419374457523751687e-01
3.012389056467121851e-01 6.360543339175244171e-01
3.022794545433775681e-01 7.985851144437887683e-01
3.033200034400429512e-01 6.271566232800864782e-01
3.043605523367083343e-01 7.169721387008820557e-01
3.054011012333737174e-01 7.644108511772174097e-01
3.064416501300391005e-01 7.126935900841502303e-01
3.074821990267044836e-01 6.020597276212562576e-01
3.085227479233698666e-01 2.725057830322228369e-01
3.095632968200352497e-01 1.734661030658948278e-01
3.106038457167006328e-01 2.314609842021901898e-01
3.116443946133660159e-01 1.196423033702913585e-01
3.126849435100313990e-01 4.076448942299961686e-01
3.137254924066967821e-01 3.821823629240093112e-01
3.147660413033621651e-01 1.911786066791520966e-01
3.158065902000275482e-01 2.723104838293686214e-01
3.168471390966929313e-01 3.666047407626393806e-01
3.178876879933583144e-01 2.625528205268707893e-01
3.189282368900236975e-01 7.654830045736460420e-02
3.199687857866890806e-01 2.452805473760939492e-01
3.210093346833544636e-01 3.056295684274630275e-01
3.220498835800198467e-01 2.711761208583141070e-01
3.230904324766852298e-01 4.252602308708794965e-01
3.241309813733506129e-01 1.968871735893173991e-01
3.251715302700159960e-01 1.970985528826751931e-01
3.262120791666813790e-01 2.119749864644617787e-01
3.272526280633467621e-01 3.406593277575353795e-02
3.282931769600121452e-01 5.471970864223507647e-02
3.293337258566775283e-01 2.800085899578732551e-01
3.303742747533429114e-01 5.384992040114155998e-01
3.314148236500082945e-01 3.473598418646091091e-01
3.324553725466736775e-01 4.352572667314120736e-01
3.334959214433390606e-01 2.465974750306401120e-01
3.345364703400044437e-01 2.347775149693305252e-01
3.355770192366698268e-01 5.074899357502502539e-01
3.366175681333352099e-01 4.392519272630295291e-01
3.376581170300005930e-01 3.087227539125443343e-01
3.386986659266659760e-01 2.847803817052430020e-01
3.397392148233313591e-01 2.621739831640041984e-01
3.407797637199967422e-01 5.456373191194856531e-01
3.418203126166621253e-01 5.937954756701131487e-01
3.428608615133275084e-01 4.546173389377585750e-01
3.439014104099928915e-01 5.372813658317738827e-01
3.449419593066582745e-01 5.739163177870842958e-01
3.459825082033236576e-01 5.246458375919544892e-01
3.470230570999890407e-01 4.703600620304726476e-01
3.480636059966544238e-01 5.925294771851703501e-01
3.491041548933198069e-01 3.623420754730908300e-01
3.501447037899851900e-01 2.086084018548604035e-01
3.511852526866505730e-01 4.506746275119581924e-01
3.522258015833159561e-01 5.199595357547437402e-01
3.532663504799813392e-01 5.020886734710572341e-01
3.543068993766467223e-01 6.059993673590327035e-01
3.553474482733121054e-01 4.410948032706727417e-01
3.563879971699774885e-01 5.305673112667967928e-01
3.574285460666428715e-01 5.943210820191318078e-01
3.584690949633082546e-01 5.264007771773577815e-01
3.595096438599736377e-01 3.604998478095424730e-01
3.605501927566390208e-01 3.633606380301124261e-01
3.615907416533044039e-01 5.319513066680841007e-01
3.626312905499697870e-01 6.293084583292092304e-01
3.636718394466351700e-01 6.077212082463674392e-01
3.647123883433005531e-01 5.936307475420612434e-01
3.657529372399659362e-01 6.219766207519583645e-01
3.667934861366313193e-01 4.176200356238410905e-01
3.678340350332967024e-01 4.917461885975278335e-01
3.688745839299620854e-01 5.847800736636763475e-01
3.699151328266274685e-01 6.941008745084147336e-01
3.709556817232928516e-01 6.036977844664619397e-01
3.719962306199582347e-01 7.639665286215375772e-01
3.730367795166236178e-01 8.421010499909051816e-01
3.740773284132890009e-01 5.538124523008143285e-01
3.751178773099543839e-01 3.954811235983193285e-01
3.761584262066197670e-01 5.285467164372761317e-01
3.771989751032851501e-01 4.158982120698304641e-01
3.782395239999505332e-01 4.961712274676060019e-01
3.792800728966159163e-01 3.729480483113185585e-01
3.803206217932812994e-01 4.632395800000885799e-01
3.813611706899466824e-01 5.460398297973227955e-01
3.824017195866120655e-01 3.995746454257798064e-01
3.834422684832774486e-01 4.448899186857353527e-01
3.844828173799428317e-01 4.462841968546982230e-01
3.855233662766082148e-01 5.944997693949289896e-01
3.865639151732735979e-01 5.178909683205326075e-01
3.876044640699389809e-01 2.798548775752038864e-01
3.886450129666043640e-01 3.535328863307114489e-01
3.896855618632697471e-01 4.244882912339811298e-01
3.907261107599351302e-01 3.470167754770514534e-01
3.917666596566005133e-01 4.039345067041182347e-01
3.928072085532658964e-01 5.692233630853280602e-01
3.938477574499312794e-01 4.469400239852312495e-01
3.948883063465966625e-01 3.672425533691416888e-01
3.959288552432620456e-01 1.646727752213799079e-01
3.969694041399274287e-01 2.037647610562451916e-01
3.980099530365928118e-01 1.320836778229939057e-01
3.990505019332581949e-01 1.512119885563905086e-01
4.000910508299235779e-01 4.023062276316622388e-01
4.011315997265889610e-01 3.303437540248097548e-01
4.021721486232543441e-01 3.648487596016209977e-01
4.032126975199197272e-01 3.049022396217679898e-01
4.042532464165851103e-01 2.885853171172669818e-01
4.052937953132504934e-01 4.035381997038207658e-01
4.063343442099158764e-01 4.359407655682474569e-01
4.073748931065812595e-01 2.442760320175310085e-01
4.084154420032466426e-01 3.048092413120606636e-01
4.094559908999120257e-01 3.055425382494014741e-01
4.104965397965774088e-01 2.182823250134511284e-01
4.115370886932427918e-01 3.725009741214293513e-01
4.125776375899081749e-01 4.149772439525811762e-01
4.136181864865735580e-01 2.787867560594854410e-01
4.146587353832389411e-01 2.979497841851888040e-01
4.156992842799043242e-01 2.269673401650358358e-01
4.167398331765697073e-01 9.789348254695795504e-02
4.177803820732350903e-01 0.000000000000000000e+00
4.188209309699004734e-01 1.626742123801747653e-01
4.198614798665658565e-01 2.471486496931838417e-01
4.209020287632312396e-01 3.671847602547764211e-01
4.219425776598966227e-01 3.126874620525050830e-01
4.229831265565620058e-01 2.143954774929284213e-01
4.240236754532273888e-01 2.234747139522497150e-01
4.250642243498927719e-01 3.121819595536194925e-01
4.261047732465581550e-01 3.442492266640897469e-01
4.271453221432235381e-01 4.830243557143276689e-01
4.281858710398889212e-01 5.265427774660160765e-01
4.292264199365543043e-01 3.775869696031790568e-01
4.302669688332196873e-01 5.455519309423593199e-01
4.313075177298850704e-01 4.098275726443887379e-01
4.323480666265504535e-01 1.081486786596173033e-01
4.333886155232158366e-01 1.048532973854179318e-01
4.344291644198812197e-01 3.450587757987797488e-01
