# q (1/Angstrom), Intensity (arb)
2.029070354705860696e-02 1.285163782540474131e+03
2.133125244372399004e-02 1.278844894951507740e+03
2.237180134038937659e-02 1.272836775404717173e+03
2.341235023705475968e-02 1.263215656516527361e+03
2.445289913372014276e-02 1.257124184832878882e+03
2.549344803038552584e-02 1.248085456644816077e+03
2.653399692705091240e-02 1.233100870447163288e+03
2.757454582371629548e-02 1.222101539727673071e+03
2.861509472038167856e-02 1.209958808855192501e+03
2.965564361704706164e-02 1.194374795883351453e+03
3.069619251371244473e-02 1.178712717594631158e+03
3.173674141037782781e-02 1.162950279755056954e+03
3.277729030704321089e-02 1.149136863128212781e+03
3.381783920370859398e-02 1.131545004342326365e+03
3.485838810037397706e-02 1.111684457875708176e+03
3.589893699703936014e-02 1.091116586147735461e+03
3.693948589370474322e-02 1.072425402267743721e+03
3.798003479037012631e-02 1.052118380687934177e+03
3.902058368703550939e-02 1.031623545964905134e+03
4.006113258370089247e-02 1.015160128050895878e+03
4.110168148036627556e-02 9.985901398910286844e+02
4.214223037703165864e-02 9.762830396542186691e+02
4.318277927369704866e-02 9.561896534355925041e+02
4.422332817036243174e-02 9.362595071541243215e+02
4.526387706702781483e-02 9.139560708884590667e+02
4.630442596369319791e-02 8.924946710861495376e+02
4.734497486035858099e-02 8.724060728152305728e+02
4.838552375702396408e-02 8.506922863898978449e+02
4.942607265368934716e-02 8.324298059648621120e+02
5.046662155035473024e-02 8.134367798319419762e+02
5.150717044702011332e-02 7.920077820778769819e+02
5.254771934368549641e-02 7.702972244274395734e+02
5.358826824035087949e-02 7.478253286665844826e+02
5.462881713701626257e-02 7.273313475467190301e+02
5.566936603368164566e-02 7.038157462316644342e+02
5.670991493034702874e-02 6.839722072902727632e+02
5.775046382701241182e-02 6.622885481052321666e+02
5.879101272367779490e-02 6.436105037926374735e+02
5.983156162034317799e-02 6.246857287502907639e+02
6.087211051700856107e-02 6.044858267684876409e+02
6.191265941367394415e-02 5.851264395778562175e+02
6.295320831033933417e-02 5.657280069889978904e+02
6.399375720700471726e-02 5.453779823579935737e+02
6.503430610367010034e-02 5.264337184482426437e+02
6.607485500033548342e-02 5.080257584318063095e+02
6.711540389700086651e-02 4.899566724710173844e+02
6.815595279366624959e-02 4.709093105301103606e+02
6.919650169033163267e-02 4.526594440515755196e+02
7.023705058699701576e-02 4.360816060870925526e+02
7.127759948366239884e-02 4.195312473400500721e+02
7.231814838032778192e-02 4.031825817709194553e+02
7.335869727699316500e-02 3.871878144642432176e+02
7.439924617365854809e-02 3.695170878955992748e+02
7.543979507032393117e-02 3.536133637903064937e+02
7.648034396698931425e-02 3.390637357284802533e+02
7.752089286365469734e-02 3.227766773585203737e+02
7.856144176032008042e-02 3.080669418105254636e+02
7.960199065698546350e-02 2.945932968523558770e+02
8.064253955365084658e-02 2.816568125808462923e+02
8.168308845031622967e-02 2.687538575076661118e+02
8.272363734698161275e-02 2.557076661575187586e+02
8.376418624364699583e-02 2.454601383715846907e+02
8.480473514031239279e-02 2.383849466764179965e+02
8.584528403697777588e-02 2.302676227622497152e+02
8.688583293364315896e-02 2.230658606281392906e+02
8.792638183030854204e-02 2.304011568257342333e+02
8.896693072697392513e-02 2.533410423000038634e+02
9.000747962363930821e-02 2.540524160717429254e+02
9.104802852030469129e-02 2.153981390286150486e+02
9.208857741697007437e-02 1.762504193476075045e+02
9.312912631363545746e-02 1.579341766806136604e+02
9.416967521030084054e-02 1.469104775549976694e+02
9.521022410696622362e-02 1.370826532747741169e+02
9.625077300363160671e-02 1.279505845748242336e+02
9.729132190029698979e-02 1.170547268452047263e+02
9.833187079696237287e-02 1.065558111964251680e+02
9.937241969362775595e-02 9.883411045633070557e+01
1.004129685902931390e-01 9.176979939193489599e+01
1.014535174869585221e-01 8.594443967911550430e+01
1.024940663836239052e-01 8.374877796631139404e+01
1.035346152802892883e-01 7.983468567440692709e+01
1.045751641769546714e-01 7.073419019111216244e+01
1.056157130736200545e-01 5.995285839063166122e+01
1.066562619702854375e-01 5.263432189113040494e+01
1.076968108669508206e-01 4.752873158055675162e+01
1.087373597636162037e-01 4.349636959909460643e+01
1.097779086602815868e-01 3.954838373310675337e+01
1.108184575569469699e-01 3.508771554774968138e+01
1.118590064536123529e-01 3.133389251291080768e+01
1.128995553502777360e-01 2.807005238803016312e+01
1.139401042469431191e-01 2.534889294279653882e+01
1.149806531436085022e-01 2.242813414651932646e+01
1.160212020402738853e-01 1.987738983028818751e+01
1.170617509369392684e-01 1.706188345167889509e+01
1.181022998336046514e-01 1.510363094974923825e+01
1.191428487302700345e-01 1.377402038332662926e+01
1.201833976269354176e-01 1.171332800155516196e+01
1.212239465236008007e-01 9.882185736062396586e+00
1.222644954202661838e-01 8.504460383830867443e+00
1.233050443169315669e-01 7.173261970121359354e+00
1.243455932135969499e-01 6.348172490288327197e+00
1.253861421102623330e-01 5.525117663474922836e+00
1.264266910069277161e-01 4.649941628374584468e+00
1.274672399035930992e-01 4.054105618715809101e+00
1.285077888002584823e-01 3.221189532270287259e+00
1.295483376969238654e-01 2.765723658607306845e+00
1.305888865935892484e-01 2.483654807033204293e+00
1.316294354902546315e-01 2.440577015954197293e+00
1.326699843869200146e-01 2.227321096186479110e+00
1.337105332835853977e-01 2.101386390319646580e+00
1.347510821802507808e-01 1.594938308990116127e+00
1.357916310769161639e-01 1.738739372250002191e+00
1.368321799735815469e-01 1.989382676026203001e+00
1.378727288702469300e-01 2.042944950241704305e+00
1.389132777669123131e-01 2.245899698302316949e+00
1.399538266635776962e-01 2.479935389269108725e+00
1.409943755602430793e-01 2.879948977351702410e+00
1.420349244569084624e-01 3.377957640909230008e+00
1.430754733535738454e-01 3.558689410869682490e+00
1.441160222502392285e-01 4.039500453325779006e+00
1.451565711469046116e-01 5.071047876881472405e+00
1.461971200435699947e-01 6.146359720253606440e+00
1.472376689402353778e-01 6.275549523114648309e+00
1.482782178369007609e-01 5.969490351805369244e+00
1.493187667335661439e-01 6.167912536932362855e+00
1.503593156302315270e-01 6.142979466341998318e+00
1.513998645268969101e-01 6.197737208672037923e+00
1.524404134235622932e-01 6.591919615384874476e+00
1.534809623202276763e-01 6.820557506542861859e+00
1.545215112168930593e-01 7.126962698433281673e+00
1.555620601135584424e-01 7.725378898092529312e+00
1.566026090102238255e-01 7.939288119394028342e+00
1.576431579068892086e-01 8.167582163690237707e+00
1.586837068035545917e-01 8.396984350531795371e+00
1.597242557002199748e-01 9.237611681701572763e+00
1.607648045968853578e-01 9.527290340080593722e+00
1.618053534935507409e-01 9.206908800272969984e+00
1.628459023902161240e-01 9.166469894688738407e+00
1.638864512868815071e-01 9.758887108154013390e+00
1.649270001835468902e-01 1.012146399413873610e+01
1.659675490802122733e-01 1.028925902964999395e+01
1.670080979768776563e-01 1.039862514729598786e+01
1.680486468735430672e-01 1.031318573169457764e+01
1.690891957702084503e-01 1.090001762486740944e+01
1.701297446668738333e-01 1.255664108117023758e+01
1.711702935635392164e-01 1.425628378676355013e+01
1.722108424602045995e-01 1.457191875742477194e+01
1.732513913568699826e-01 1.318665955388448197e+01
1.742919402535353657e-01 1.160724440974663452e+01
1.753324891502007488e-01 1.090319300321585061e+01
1.763730380468661318e-01 1.093299786176278587e+01
1.774135869435315149e-01 1.050389751063008248e+01
1.784541358401968980e-01 1.061738059328121508e+01
1.794946847368622811e-01 1.040913169464985799e+01
1.805352336335276642e-01 9.839856847083733982e+00
1.815757825301930473e-01 9.465586431794733357e+00
1.826163314268584303e-01 8.668229823996462358e+00
1.836568803235238134e-01 8.421830437182329376e+00
1.846974292201891965e-01 8.275196694515308593e+00
1.857379781168545796e-01 7.988491259378236009e+00
1.867785270135199627e-01 7.775981326443172748e+00
1.878190759101853458e-01 7.514708179547177735e+00
1.888596248068507288e-01 6.972406482896872149e+00
1.899001737035161119e-01 6.892805588900110081e+00
1.909407226001814950e-01 6.301481819542701146e+00
1.919812714968468781e-01 5.986269297820566493e+00
1.930218203935122612e-01 5.907644248047269286e+00
1.940623692901776443e-01 5.945940385429512531e+00
1.951029181868430273e-01 5.672290887473032228e+00
1.961434670835084104e-01 5.241044847439084720e+00
1.971840159801737935e-01 5.466124221441727826e+00
1.982245648768391766e-01 5.218909752381076572e+00
1.992651137735045597e-01 4.688759674377170228e+00
2.003056626701699428e-01 4.686009078573192710e+00
2.013462115668353813e-01 4.317687227878977296e+00
2.023867604635007644e-01 3.622923198763224661e+00
2.034273093601661475e-01 3.566759094715663991e+00
2.044678582568315306e-01 3.270677100935497350e+00
2.055084071534969137e-01 3.003413334317396988e+00
2.065489560501622968e-01 2.651735161924111850e+00
2.075895049468276798e-01 2.606194725051171446e+00
2.086300538434930629e-01 2.346263200034350405e+00
2.096706027401584460e-01 2.122345523651951282e+00
2.107111516368238291e-01 2.138822913705027418e+00
2.117517005334892122e-01 1.760937809846037538e+00
2.127922494301545953e-01 1.776292884169428987e+00
2.138327983268199783e-01 1.630765614294890753e+00
2.148733472234853614e-01 1.225919390018145094e+00
2.159138961201507445e-01 1.217726277358256226e+00
2.169544450168161276e-01 8.908111797652296104e-01
2.179949939134815107e-01 1.147038016827053752e+00
2.190355428101468938e-01 1.011210548643916241e+00
2.200760917068122768e-01 1.015239169467704983e+00
2.211166406034776599e-01 7.857962387848296260e-01
2.221571895001430430e-01 5.104302734575654199e-01
2.231977383968084261e-01 5.053506011305408663e-01
2.242382872934738092e-01 7.368179117359723307e-01
2.252788361901391923e-01 7.743645275341286549e-01
2.263193850868045753e-01 6.130168973901177765e-01
2.273599339834699584e-01 4.130774618393182607e-01
2.284004828801353415e-01 3.983301699608539082e-01
2.294410317768007246e-01 4.909789463709479662e-01
2.304815806734661077e-01 4.113926470287516679e-01
2.315221295701314908e-01 4.292677791608809912e-01
2.325626784667968738e-01 4.139594448797367932e-01
2.336032273634622569e-01 2.353901558326931820e-01
2.346437762601276400e-01 1.943129600401185542e-01
2.356843251567930231e-01 2.686116191299809941e-01
2.367248740534584062e-01 4.565668245771483669e-01
2.377654229501237892e-01 6.012897814486564130e-01
2.388059718467891723e-01 6.055069347834987070e-01
2.398465207434545554e-01 5.177322400907122812e-01
2.408870696401199385e-01 7.676285823264592523e-01
2.419276185367853216e-01 7.396491731457963681e-01
2.429681674334507047e-01 8.212543766449371674e-01
2.440087163301160877e-01 1.118844654060545452e+00
2.450492652267814708e-01 1.191540853221653151e+00
2.460898141234468539e-01 1.006260046179530576e+00
2.471303630201122370e-01 8.060799919381835821e-01
2.481709119167776201e-01 1.160668069460339069e+00
2.492114608134430032e-01 1.243067615285749383e+00
2.502520097101083585e-01 1.286550898445728564e+00
2.512925586067737416e-01 1.233494926760485555e+00
2.523331075034391247e-01 1.350422767737214258e+00
2.533736564001045077e-01 1.695316899901719410e+00
2.544142052967698908e-01 1.273788288164656279e+00
2.554547541934352739e-01 1.270083304145249059e+00
2.564953030901006570e-01 1.624486718455560919e+00
2.575358519867660401e-01 1.605820635881400449e+00
2.585764008834314231e-01 1.407177278035842249e+00
2.596169497800968062e-01 1.552876497089076935e+00
2.606574986767621893e-01 1.649573008906642713e+00
2.616980475734275724e-01 1.652060211913610743e+00
2.627385964700929555e-01 1.560425681577733314e+00
2.637791453667583386e-01 1.364699851051469182e+00
2.648196942634237216e-01 1.440478939213932108e+00
2.658602431600891047e-01 1.439660138251436905e+00
2.669007920567544878e-01 1.664428470957705741e+00
2.679413409534198709e-01 1.641832769077741006e+00
2.689818898500852540e-01 2.034297017906201432e+00
2.700224387467506371e-01 1.985231244716381127e+00
2.710629876434160201e-01 1.652934501866266004e+00
2.721035365400814032e-01 1.621541326969083485e+00
2.731440854367467863e-01 1.516759157689293147e+00
2.741846343334121694e-01 1.552833857869025280e+00
2.752251832300775525e-01 1.552054497617088913e+00
2.762657321267429356e-01 1.661131743522417992e+00
2.773062810234083186e-01 1.621840262051112092e+00
2.783468299200737017e-01 1.439462688221947673e+00
2.793873788167390848e-01 1.208355271593010372e+00
2.804279277134044679e-01 1.338805543287332256e+00
2.814684766100698510e-01 1.233711079170383584e+00
2.825090255067352341e-01 1.322022387639961494e+00
2.835495744034006171e-01 1.120767515973348338e+00
2.845901233000660002e-01 9.613033012916787357e-01
2.856306721967313833e-01 9.739453722587860796e-01
2.866712210933967664e-01 1.114774210904723617e+00
2.877117699900621495e-01 1.364434463223020089e+00
2.887523188867275326e-01 9.351201303997704883e-01
2.897928677833929156e-01 8.288431394173905176e-01
2.908334166800582987e-01 8.791424262412412816e-01
2.918739655767236818e-01 1.068596102941860693e+00
2.929145144733890649e-01 9.269723957261923886e-01
2.939550633700544480e-01 9.169490772544293122e-01
2.949956122667198311e-01 8.276555369699423181e-01
2.960361611633852141e-01 5.615440701415863600e-01
2.970767100600505972e-01 8.454547179834293047e-01
2.981172589567159803e-01 8.618204211355724453e-01
2.991578078533813634e-01 8.204294639250910848e-01
3.001983567500468020e-01 8.144594473635180520e-01
3.012389056467121851e-01 8.378661165102769814e-01
3.022794545433775681e-01 6.121671892975051321e-01
3.033200034400429512e-01 6.900025960492008892e-01
3.043605523367083343e-01 6.653285907676824706e-01
3.054011012333737174e-01 7.439765245412104377e-01
3.064416501300391005e-01 6.337526698404687409e-01
3.074821990267044836e-01 5.507434447954473455e-01
3.085227479233698666e-01 5.540782883633141864e-01
3.095632968200352497e-01 4.939547669263859575e-01
3.106038457167006328e-01 3.714657119351727488e-01
3.116443946133660159e-01 4.324726916615766470e-01
3.126849435100313990e-01 2.970873187697087303e-01
3.137254924066967821e-01 4.228529410454484605e-02
3.147660413033621651e-01 0.000000000000000000e+00
3.158065902000275482e-01 3.532916849354776900e-01
3.168471390966929313e-01 4.262845549509677312e-01
3.178876879933583144e-01 4.384403683693065545e-01
3.189282368900236975e-01 4.334768125559449459e-01
3.199687857866890806e-01 4.147105403364150789e-01
3.210093346833544636e-01 3.303608169114582438e-01
3.220498835800198467e-01 1.241961817474219743e-01
3.230904324766852298e-01 1.803887906786023620e-01
3.241309813733506129e-01 2.850203973134917135e-01
3.251715302700159960e-01 1.616222668109514871e-01
3.262120791666813790e-01 7.920043885722094501e-02
3.272526280633467621e-01 1.557365761817273153e-01
3.282931769600121452e-01 3.141841708641592845e-01
3.293337258566775283e-01 4.848214446021046342e-01
3.303742747533429114e-01 3.986588010248475200e-01
3.314148236500082945e-01 2.646351373437063614e-01
3.324553725466736775e-01 3.041142013757571760e-01
3.334959214433390606e-01 4.339172413959531127e-01
3.345364703400044437e-01 3.570802767961787083e-01
3.355770192366698268e-01 4.035938762012669656e-01
3.366175681333352099e-01 3.365648200553756908e-01
3.376581170300005930e-01 4.637202382447931370e-01
3.386986659266659760e-01 2.915676394200872323e-01
3.397392148233313591e-01 5.699798987554700602e-01
3.407797637199967422e-01 5.644531484452066650e-01
3.418203126166621253e-01 3.997249403279106161e-01
3.428608615133275084e-01 6.462648555036700770e-01
3.439014104099928915e-01 9.193274542094265200e-01
3.449419593066582745e-01 5.081137436999618728e-01
3.459825082033236576e-01 2.802759145214501757e-01
3.470230570999890407e-01 4.633577432878936975e-01
3.480636059966544238e-01 5.616968068692678173e-01
3.491041548933198069e-01 4.899167742596581832e-01
3.501447037899851900e-01 4.483542710269539100e-01
3.511852526866505730e-01 4.654000260718760273e-01
3.522258015833159561e-01 3.845363196015938456e-01
3.532663504799813392e-01 4.494219885062449293e-01
3.543068993766467223e-01 4.079630564320204655e-01
3.553474482733121054e-01 3.929095592337326082e-01
3.563879971699774885e-01 3.537558291303923852e-01
3.574285460666428715e-01 4.328942317661805816e-01
3.584690949633082546e-01 5.311209625402923962e-01
3.595096438599736377e-01 4.222901177630369318e-01
3.605501927566390208e-01 4.838237508705063306e-01
3.615907416533044039e-01 5.173224407824079663e-01
3.626312905499697870e-01 5.141660391722240320e-01
3.636718394466351700e-01 4.616340291840934640e-01
3.647123883433005531e-01 5.174378233088461343e-01
3.657529372399659362e-01 5.193542297513680239e-01
3.667934861366313193e-01 5.719542413304523620e-01
3.678340350332967024e-01 6.117188396278656626e-01
3.688745839299620854e-01 6.429690033002692928e-01
3.699151328266274685e-01 6.072340343323041623e-01
3.709556817232928516e-01 4.205586540627592740e-01
3.719962306199582347e-01 3.602399909918609922e-01
3.730367795166236178e-01 4.485396926246103533e-01
3.740773284132890009e-01 3.630573351551333872e-01
3.751178773099543839e-01 4.434809223804307976e-01
3.761584262066197670e-01 5.093111908359233553e-01
3.771989751032851501e-01 6.069985729250078066e-01
3.782395239999505332e-01 6.734767662374068209e-01
3.792800728966159163e-01 7.079531415216315793e-01
3.803206217932812994e-01 7.140997544700411481e-01
3.813611706899466824e-01 5.580705430444226067e-01
3.824017195866120655e-01 5.153991827404311721e-01
3.834422684832774486e-01 5.544510516266036859e-01
3.844828173799428317e-01 6.494939439299862727e-01
3.855233662766082148e-01 6.688129463742775727e-01
3.865639151732735979e-01 7.319302187198175602e-01
3.876044640699389809e-01 3.674559763272782220e-01
3.886450129666043640e-01 3.226386962519960377e-01
3.896855618632697471e-01 4.574036662717269053e-01
3.907261107599351302e-01 4.758951796733690287e-01
3.917666596566005133e-01 5.904241893802968377e-01
3.928072085532658964e-01 3.780834731419489003e-01
3.938477574499312794e-01 3.036398461642626501e-01
3.948883063465966625e-01 4.050066267565242129e-01
3.959288552432620456e-01 3.915469472266295270e-01
3.969694041399274287e-01 3.243268327035302434e-01
3.980099530365928118e-01 5.146904191389758410e-01
3.990505019332581949e-01 6.992804842470690119e-01
4.000910508299235779e-01 5.893523763836903129e-01
4.011315997265889610e-01 4.601941710221240101e-01
4.021721486232543441e-01 5.277459727491553565e-01
4.032126975199197272e-01 4.138715462128104150e-01
4.042532464165851103e-01 4.268360184666128987e-01
4.052937953132504934e-01 4.005252097171378978e-01
4.063343442099158764e-01 4.812998072145795447e-01
4.073748931065812595e-01 4.279040925689479025e-01
4.084154420032466426e-01 4.187815483656933679e-01
4.094559908999120257e-01 1.183968700051316603e-01
4.104965397965774088e-01 4.553913968715406213e-02
4.115370886932427918e-01 1.472938681946622808e-01
4.125776375899081749e-01 2.066466177181318642e-01
4.136181864865735580e-01 1.726162315443851014e-01
4.146587353832389411e-01 2.523432535047120950e-01
4.156992842799043242e-01 3.289569444597262304e-01
4.167398331765697073e-01 5.001118459247670955e-01
4.177803820732350903e-01 3.375756790231996263e-01
4.188209309699004734e-01 1.590496846277176246e-01
4.198614798665658565e-01 3.443838132693848308e-01
4.209020287632312396e-01 3.832469159945972592e-01
4.219425776598966227e-01 3.062340240850858208e-01
4.229831265565620058e-01 3.724141224880952450e-01
4.240236754532273888e-01 3.291579064419529743e-01
4.250642243498927719e-01 3.583072736974521888e-01
4.261047732465581550e-01 5.600225829603111549e-01
4.271453221432235381e-01 5.934696621933852612e-01
4.281858710398889212e-01 4.559424828418094933e-01
4.292264199365543043e-01 3.880218783054978360e-01
4.302669688332196873e-01 3.280902249134705073e-01
4.313075177298850704e-01 2.796765949635791060e-01
4.323480666265504535e-01 1.561581031006582521e-01
4.333886155232158366e-01 2.509067918951437548e-01
4.344291644198812197e-01 1.805877915867135641e-01
