# q (1/Angstrom), Intensity (arb)
2.029070354705860696e-02 8.308876309049212523e+02
2.133125244372399004e-02 8.280535083458565850e+02
2.237180134038937659e-02 8.209992407615279717e+02
2.341235023705475968e-02 8.200182178938824791e+02
2.445289913372014276e-02 8.162455526390707519e+02
2.549344803038552584e-02 8.093472199165097436e+02
2.653399692705091240e-02 8.028096054365696546e+02
2.757454582371629548e-02 7.940438057139245984e+02
2.861509472038167856e-02 7.857539895358842159e+02
2.965564361704706164e-02 7.786657217454610418e+02
3.069619251371244473e-02 7.672907617771053310e+02
3.173674141037782781e-02 7.526420608113149910e+02
3.277729030704321089e-02 7.419589292435317702e+02
3.381783920370859398e-02 7.283663481978095433e+02
3.485838810037397706e-02 7.202730281948129232e+02
3.589893699703936014e-02 7.123468837651557806e+02
3.693948589370474322e-02 6.993521478714937984e+02
3.798003479037012631e-02 6.863364867357551020e+02
3.902058368703550939e-02 6.721312772101869086e+02
4.006113258370089247e-02 6.617948813180227035e+02
4.110168148036627556e-02 6.507866979117929986e+02
4.214223037703165864e-02 6.363879895992522506e+02
4.318277927369704866e-02 6.214081267745214063e+02
4.422332817036243174e-02 6.103519360113722314e+02
4.526387706702781483e-02 5.967939775993730791e+02
4.630442596369319791e-02 5.817700280009927383e+02
4.734497486035858099e-02 5.688021533683945563e+02
4.838552375702396408e-02 5.562594635382455408e+02
4.942607265368934716e-02 5.407521124264424088e+02
5.046662155035473024e-02 5.306209900722030852e+02
5.150717044702011332e-02 5.180900789719081558e+02
5.254771934368549641e-02 5.038861543497586126e+02
5.358826824035087949e-02 4.902402493547317022e+02
5.462881713701626257e-02 4.780785696932549627e+02
5.566936603368164566e-02 4.637214857414527387e+02
5.670991493034702874e-02 4.490544929409986707e+02
5.775046382701241182e-02 4.352251759699721561e+02
5.879101272367779490e-02 4.227219259907745936e+02
5.983156162034317799e-02 4.104531956502229377e+02
6.087211051700856107e-02 3.979163385252788316e+02
6.191265941367394415e-02 3.845425900657318721e+02
6.295320831033933417e-02 3.739256720888897689e+02
6.399375720700471726e-02 3.614938051025555410e+02
6.503430610367010034e-02 3.485349066844322579e+02
6.607485500033548342e-02 3.378161537760079227e+02
6.711540389700086651e-02 3.254714127895235833e+02
6.815595279366624959e-02 3.132220839868422217e+02
6.919650169033163267e-02 3.009463328934926949e+02
7.023705058699701576e-02 2.904383044377537431e+02
7.127759948366239884e-02 2.793870790862612239e+02
7.231814838032778192e-02 2.688527646853000874e+02
7.335869727699316500e-02 2.590719220581355557e+02
7.439924617365854809e-02 2.487618447897591523e+02
7.543979507032393117e-02 2.387894128562673473e+02
7.648034396698931425e-02 2.292143375793092162e+02
7.752089286365469734e-02 2.183766414880608124e+02
7.856144176032008042e-02 2.088488933049299874e+02
7.960199065698546350e-02 2.011868237699946746e+02
8.064253955365084658e-02 1.933041096089001485e+02
8.168308845031622967e-02 1.853217445974653970e+02
8.272363734698161275e-02 1.820595095171271112e+02
8.376418624364699583e-02 1.910710292628027673e+02
8.480473514031239279e-02 2.158933011897058805e+02
8.584528403697777588e-02 2.332143475549154346e+02
8.688583293364315896e-02 2.356449201336035912e+02
8.792638183030854204e-02 2.830666782136198663e+02
8.896693072697392513e-02 4.384759299802742021e+02
9.000747962363930821e-02 5.885584536000792468e+02
9.104802852030469129e-02 5.212581579845183342e+02
9.208857741697007437e-02 3.226598014973807267e+02
9.312912631363545746e-02 2.156658933095994826e+02
9.416967521030084054e-02 1.874348854759519440e+02
9.521022410696622362e-02 1.728033361162443100e+02
9.625077300363160671e-02 1.586769986638149135e+02
9.729132190029698979e-02 1.423547249499881957e+02
9.833187079696237287e-02 1.238316659926428827e+02
9.937241969362775595e-02 1.084704676152209402e+02
1.004129685902931390e-01 9.786992006242162745e+01
1.014535174869585221e-01 9.476223278947384188e+01
1.024940663836239052e-01 1.036119111571565981e+02
1.035346152802892883e-01 1.162537924680412829e+02
1.045751641769546714e-01 1.080079689495848783e+02
1.056157130736200545e-01 7.890031115398653583e+01
1.066562619702854375e-01 5.357849728718659321e+01
1.076968108669508206e-01 4.203977954446311571e+01
1.087373597636162037e-01 3.611902251361394178e+01
1.097779086602815868e-01 3.168437683735877641e+01
1.108184575569469699e-01 2.811015041115352631e+01
1.118590064536123529e-01 2.534261959466397229e+01
1.128995553502777360e-01 2.256446105459098561e+01
1.139401042469431191e-01 2.022971578362015066e+01
1.149806531436085022e-01 1.834683147875343678e+01
1.160212020402738853e-01 1.646568347282146050e+01
1.170617509369392684e-01 1.450642872616569434e+01
1.181022998336046514e-01 1.291391156414431407e+01
1.191428487302700345e-01 1.131084534869687275e+01
1.201833976269354176e-01 9.789461738989110984e+00
1.212239465236008007e-01 8.417278122177101807e+00
1.222644954202661838e-01 8.018150699710240303e+00
1.233050443169315669e-01 6.818236483571119777e+00
1.243455932135969499e-01 5.599099072907634422e+00
1.253861421102623330e-01 5.324485660661792963e+00
1.264266910069277161e-01 4.668377769358812657e+00
1.274672399035930992e-01 3.742981007264852167e+00
1.285077888002584823e-01 3.096574256745576292e+00
1.295483376969238654e-01 2.648665003950107177e+00
1.305888865935892484e-01 2.424514193458968236e+00
1.316294354902546315e-01 2.334983368865529485e+00
1.326699843869200146e-01 1.876849882442613193e+00
1.337105332835853977e-01 1.499574837256382409e+00
1.347510821802507808e-01 1.250338778898026248e+00
1.357916310769161639e-01 1.544049160890295980e+00
1.368321799735815469e-01 1.764729553427216047e+00
1.378727288702469300e-01 1.763067751637159120e+00
1.389132777669123131e-01 1.817951998695434668e+00
1.399538266635776962e-01 1.809395980074924637e+00
1.409943755602430793e-01 1.762148404253260026e+00
1.420349244569084624e-01 1.932979307652026080e+00
1.430754733535738454e-01 2.022057940550709532e+00
1.441160222502392285e-01 2.960167426426110637e+00
1.451565711469046116e-01 4.980096988461681917e+00
1.461971200435699947e-01 7.978492818125019426e+00
1.472376689402353778e-01 9.758348531925385316e+00
1.482782178369007609e-01 8.854862868941779652e+00
1.493187667335661439e-01 6.625782983258538650e+00
1.503593156302315270e-01 5.477949796304859120e+00
1.513998645268969101e-01 5.259527007315732305e+00
1.524404134235622932e-01 5.410449789785076291e+00
1.534809623202276763e-01 5.127475962354921535e+00
1.545215112168930593e-01 5.574211258811963887e+00
1.555620601135584424e-01 6.213203608086132590e+00
1.566026090102238255e-01 6.155702392230448794e+00
1.576431579068892086e-01 7.066352702371691663e+00
1.586837068035545917e-01 7.405449573389986995e+00
1.597242557002199748e-01 7.341222590922310332e+00
1.607648045968853578e-01 7.437455994190273145e+00
1.618053534935507409e-01 7.152942493025815196e+00
1.628459023902161240e-01 7.553342319084382694e+00
1.638864512868815071e-01 7.436172070755961983e+00
1.649270001835468902e-01 7.589080470998400330e+00
1.659675490802122733e-01 7.575521254165479945e+00
1.670080979768776563e-01 8.016777613260479995e+00
1.680486468735430672e-01 8.671607648311578487e+00
1.690891957702084503e-01 9.765839255759772186e+00
1.701297446668738333e-01 1.320050892888808391e+01
1.711702935635392164e-01 2.148634815183109126e+01
1.722108424602045995e-01 2.992521312570250203e+01
1.732513913568699826e-01 2.952537479516407970e+01
1.742919402535353657e-01 2.203384133386582633e+01
1.753324891502007488e-01 1.490049044501115105e+01
1.763730380468661318e-01 1.153193064316753436e+01
1.774135869435315149e-01 1.050433865061437899e+01
1.784541358401968980e-01 1.084215751815699136e+01
1.794946847368622811e-01 1.194296537890560117e+01
1.805352336335276642e-01 1.183670539619157225e+01
1.815757825301930473e-01 1.058497828592933843e+01
1.826163314268584303e-01 8.533847683146415619e+00
1.836568803235238134e-01 7.070080121572100751e+00
1.846974292201891965e-01 6.640020600010839047e+00
1.857379781168545796e-01 6.035372195182151955e+00
1.867785270135199627e-01 5.665834110995472628e+00
1.878190759101853458e-01 5.450440589083001441e+00
1.888596248068507288e-01 5.301432744023305332e+00
1.899001737035161119e-01 5.305090000739408396e+00
1.909407226001814950e-01 5.082116531143693550e+00
1.919812714968468781e-01 4.800291813131909890e+00
1.930218203935122612e-01 4.647603606564480572e+00
1.940623692901776443e-01 4.623821752713812572e+00
1.951029181868430273e-01 4.367304337643453493e+00
1.961434670835084104e-01 3.689125053984014357e+00
1.971840159801737935e-01 3.998685812210911905e+00
1.982245648768391766e-01 3.833457625008758640e+00
1.992651137735045597e-01 3.450190829821398353e+00
2.003056626701699428e-01 3.287894445069760252e+00
2.013462115668353813e-01 3.364205079946280819e+00
2.023867604635007644e-01 3.003472498943356328e+00
2.034273093601661475e-01 2.799083579788906206e+00
2.044678582568315306e-01 2.574550166461360590e+00
2.055084071534969137e-01 2.357326758666335564e+00
2.065489560501622968e-01 2.692755941403952136e+00
2.075895049468276798e-01 2.505327702078851360e+00
2.086300538434930629e-01 2.217523336930721456e+00
2.096706027401584460e-01 2.041484962465492714e+00
2.107111516368238291e-01 1.968137245261072366e+00
2.117517005334892122e-01 1.731248319465336749e+00
2.127922494301545953e-01 1.693157026527799758e+00
2.138327983268199783e-01 1.393691231721582824e+00
2.148733472234853614e-01 1.141036966832658095e+00
2.159138961201507445e-01 9.060269629099941824e-01
2.169544450168161276e-01 8.975284829715768353e-01
2.179949939134815107e-01 8.806672662930736806e-01
2.190355428101468938e-01 8.302281997329608032e-01
2.200760917068122768e-01 7.137339380173521874e-01
2.211166406034776599e-01 9.568037259981636566e-01
2.221571895001430430e-01 9.921961131886334329e-01
2.231977383968084261e-01 6.140035574334383739e-01
2.242382872934738092e-01 7.543626309319151346e-01
2.252788361901391923e-01 4.488734535747092025e-01
2.263193850868045753e-01 4.003121976158254824e-01
2.273599339834699584e-01 3.491153724300701811e-01
2.284004828801353415e-01 6.151408576004051554e-01
2.294410317768007246e-01 7.466700857796766400e-01
2.304815806734661077e-01 7.296556956379269820e-01
2.315221295701314908e-01 5.890876034109062687e-01
2.325626784667968738e-01 3.810325007646291340e-01
2.336032273634622569e-01 3.314522311093170970e-01
2.346437762601276400e-01 1.885589476468325643e-01
2.356843251567930231e-01 4.038711369555940678e-01
2.367248740534584062e-01 5.054587253975135752e-01
2.377654229501237892e-01 3.851314280571216386e-01
2.388059718467891723e-01 5.243186514815150190e-01
2.398465207434545554e-01 4.174657059654478530e-01
2.408870696401199385e-01 7.205462683084711273e-01
2.419276185367853216e-01 7.755945373877821680e-01
2.429681674334507047e-01 5.823896653579829774e-01
2.440087163301160877e-01 7.003269868575188184e-01
2.450492652267814708e-01 6.504571736466360221e-01
2.460898141234468539e-01 8.612917051619426445e-01
2.471303630201122370e-01 1.170786241143616735e+00
2.481709119167776201e-01 1.450824145705162493e+00
2.492114608134430032e-01 9.952058575023805531e-01
2.502520097101083585e-01 9.277464904514367561e-01
2.512925586067737416e-01 1.132991168817586214e+00
2.523331075034391247e-01 1.087076796698436709e+00
2.533736564001045077e-01 1.241088602872416402e+00
2.544142052967698908e-01 1.897835247426208127e+00
2.554547541934352739e-01 1.731907262721676943e+00
2.564953030901006570e-01 1.408308806327024598e+00
2.575358519867660401e-01 1.384981924816788279e+00
2.585764008834314231e-01 1.350424164764131518e+00
2.596169497800968062e-01 1.293891735567029855e+00
2.606574986767621893e-01 1.503839427261567607e+00
2.616980475734275724e-01 1.451634047917679027e+00
2.627385964700929555e-01 1.406788244045994674e+00
2.637791453667583386e-01 1.297932356851266178e+00
2.648196942634237216e-01 1.370715220923806044e+00
2.658602431600891047e-01 1.274276074988438978e+00
2.669007920567544878e-01 1.378167852171177543e+00
2.679413409534198709e-01 1.721421489132858085e+00
2.689818898500852540e-01 1.992810486582218488e+00
2.700224387467506371e-01 2.081778565562647287e+00
2.710629876434160201e-01 2.202207692357102786e+00
2.721035365400814032e-01 1.940871340520978094e+00
2.731440854367467863e-01 1.686173082733930073e+00
2.741846343334121694e-01 1.294853454328890763e+00
2.752251832300775525e-01 1.026656364065118510e+00
2.762657321267429356e-01 1.040997498042916192e+00
2.773062810234083186e-01 1.075002676754948538e+00
2.783468299200737017e-01 1.172153547213582669e+00
2.793873788167390848e-01 1.114409449742773006e+00
2.804279277134044679e-01 1.173501410192642425e+00
2.814684766100698510e-01 1.257873872022138073e+00
2.825090255067352341e-01 9.597650750183639445e-01
2.835495744034006171e-01 8.667633173012312398e-01
2.845901233000660002e-01 1.040415351892612250e+00
2.856306721967313833e-01 9.825426017351084340e-01
2.866712210933967664e-01 9.518274146490064425e-01
2.877117699900621495e-01 8.999398037084951341e-01
2.887523188867275326e-01 7.712955879040350737e-01
2.897928677833929156e-01 8.498950743785194106e-01
2.908334166800582987e-01 9.186700733061385904e-01
2.918739655767236818e-01 8.246552469656229789e-01
2.929145144733890649e-01 9.046910994309911302e-01
2.939550633700544480e-01 7.975240899919526782e-01
2.949956122667198311e-01 7.718146389509321637e-01
2.960361611633852141e-01 6.355046229988481343e-01
2.970767100600505972e-01 6.976851527806573472e-01
2.981172589567159803e-01 5.907726806337052494e-01
2.991578078533813634e-01 3.340055456187407401e-01
3.001983567500468020e-01 5.961363150332594785e-01
3.012389056467121851e-01 7.059614577866213381e-01
3.022794545433775681e-01 2.377693304661114837e-01
3.033200034400429512e-01 3.187562842773203897e-01
3.043605523367083343e-01 6.378197323101488792e-01
3.054011012333737174e-01 7.725015819551011020e-01
3.064416501300391005e-01 4.523128244131768838e-01
3.074821990267044836e-01 5.466093732316537057e-01
3.085227479233698666e-01 4.839902469223567039e-01
3.095632968200352497e-01 6.023916850328596695e-01
3.106038457167006328e-01 7.732321781968494179e-01
3.116443946133660159e-01 4.161796097100101122e-01
3.126849435100313990e-01 4.641387671774062085e-01
3.137254924066967821e-01 5.441620114536895869e-01
3.147660413033621651e-01 5.041048428451517793e-01
3.158065902000275482e-01 5.662442471349002915e-01
3.168471390966929313e-01 4.526579558395518177e-01
3.178876879933583144e-01 3.682453232836522261e-01
3.189282368900236975e-01 1.489971845694668673e-01
3.199687857866890806e-01 2.233884721250554151e-01
3.210093346833544636e-01 4.325566630475563557e-01
3.220498835800198467e-01 4.228092317468927774e-01
3.230904324766852298e-01 3.435884272178562071e-01
3.241309813733506129e-01 1.653979172081960769e-01
3.251715302700159960e-01 2.775916371240931824e-01
3.262120791666813790e-01 7.094485250915383290e-02
3.272526280633467621e-01 0.000000000000000000e+00
3.282931769600121452e-01 1.782458873556009848e-01
3.293337258566775283e-01 4.060889811057180054e-01
3.303742747533429114e-01 6.094661770537790346e-01
3.314148236500082945e-01 5.544791966931690297e-01
3.324553725466736775e-01 5.189896819462269661e-01
3.334959214433390606e-01 6.778531263029279330e-01
3.345364703400044437e-01 5.323484004822738314e-01
3.355770192366698268e-01 4.714879251690078377e-01
3.366175681333352099e-01 7.145246813704488886e-01
3.376581170300005930e-01 6.866162861532849604e-01
3.386986659266659760e-01 5.830744691338445307e-01
3.397392148233313591e-01 4.427456561660640944e-01
3.407797637199967422e-01 3.161259642934126646e-01
3.418203126166621253e-01 2.991485844793544402e-01
3.428608615133275084e-01 4.230184045664913128e-01
3.439014104099928915e-01 5.956445432283103969e-01
3.449419593066582745e-01 4.852184313567917684e-01
3.459825082033236576e-01 2.964644830117393326e-01
3.470230570999890407e-01 3.978927019531255382e-01
3.480636059966544238e-01 3.611952582650097554e-01
3.491041548933198069e-01 3.468884368730620338e-01
3.501447037899851900e-01 5.996820411390899608e-01
3.511852526866505730e-01 5.809076111033455447e-01
3.522258015833159561e-01 4.522545625147493809e-01
3.532663504799813392e-01 4.749052875440078481e-01
3.543068993766467223e-01 2.943631469832546088e-01
3.553474482733121054e-01 1.427941365924638717e-01
3.563879971699774885e-01 5.192007362342749843e-01
3.574285460666428715e-01 4.796124178007445948e-01
3.584690949633082546e-01 3.271212453465643932e-01
3.595096438599736377e-01 5.299659316527289832e-01
3.605501927566390208e-01 6.815358433962721563e-01
3.615907416533044039e-01 8.637074889396600952e-01
3.626312905499697870e-01 7.455647100724682730e-01
3.636718394466351700e-01 5.217355541478063685e-01
3.647123883433005531e-01 6.308222788757369415e-01
3.657529372399659362e-01 7.816563287063154064e-01
3.667934861366313193e-01 7.943447061111150731e-01
3.678340350332967024e-01 6.649993876029860473e-01
3.688745839299620854e-01 7.737805564973321282e-01
3.699151328266274685e-01 6.173824881792171482e-01
3.709556817232928516e-01 5.356208387723064845e-01
3.719962306199582347e-01 6.744455551226984369e-01
3.730367795166236178e-01 7.601246355043329572e-01
3.740773284132890009e-01 7.427421189912770672e-01
3.751178773099543839e-01 4.400142876375348067e-01
3.761584262066197670e-01 5.591908732941419657e-01
3.771989751032851501e-01 4.626492784718152507e-01
3.782395239999505332e-01 4.911908126494566318e-01
3.792800728966159163e-01 4.506271128862415765e-01
3.803206217932812994e-01 3.905649919874782938e-01
3.813611706899466824e-01 6.319256925246889978e-01
3.824017195866120655e-01 9.193429878632777275e-01
3.834422684832774486e-01 8.200064541535425633e-01
3.844828173799428317e-01 6.795894173037382302e-01
3.855233662766082148e-01 5.809550311401032729e-01
3.865639151732735979e-01 5.379460675289493565e-01
3.876044640699389809e-01 5.252915499118309128e-01
3.886450129666043640e-01 5.253291786280485098e-01
3.896855618632697471e-01 5.896355510051520810e-01
3.907261107599351302e-01 3.688634159843076077e-01
3.917666596566005133e-01 2.538394457292199036e-01
3.928072085532658964e-01 3.151484845059435713e-01
3.938477574499312794e-01 4.388233623816013562e-01
3.948883063465966625e-01 5.892127922005485630e-01
3.959288552432620456e-01 5.578885064420227025e-01
3.969694041399274287e-01 4.561819902889077127e-01
3.980099530365928118e-01 3.769095404429840812e-01
3.990505019332581949e-01 5.717423917543413836e-01
4.000910508299235779e-01 6.029407116036438197e-01
4.011315997265889610e-01 3.962727385494773102e-01
4.021721486232543441e-01 3.552338371209167178e-01
4.032126975199197272e-01 2.272863068212949145e-01
4.042532464165851103e-01 2.770415696583441445e-01
4.052937953132504934e-01 4.163474997273830525e-01
4.063343442099158764e-01 4.951302150480643149e-01
4.073748931065812595e-01 5.822591086396684545e-01
4.084154420032466426e-01 4.328353667545883354e-01
4.094559908999120257e-01 3.254141043544613865e-01
4.104965397965774088e-01 4.355742031071905274e-01
4.115370886932427918e-01 4.016192692988660440e-01
4.125776375899081749e-01 4.935815315864360286e-01
4.136181864865735580e-01 3.943511149591145681e-01
4.146587353832389411e-01 3.429724177152948528e-01
4.156992842799043242e-01 3.114515126452879201e-01
4.167398331765697073e-01 3.863351748528707219e-01
4.177803820732350903e-01 5.065524624116335417e-01
4.188209309699004734e-01 4.983614521843868772e-01
4.198614798665658565e-01 4.671929075669432052e-01
4.209020287632312396e-01 4.251279689448104193e-01
4.219425776598966227e-01 3.768708206770021718e-01
4.229831265565620058e-01 4.132230494227719930e-01
4.240236754532273888e-01 4.181441931651797006e-01
4.250642243498927719e-01 3.410881091449979863e-01
4.261047732465581550e-01 4.340608725285655112e-01
4.271453221432235381e-01 4.770164452548115719e-01
4.281858710398889212e-01 4.360579817868597274e-01
4.292264199365543043e-01 3.830277591709752016e-01
4.302669688332196873e-01 4.584783034359212195e-01
4.313075177298850704e-01 3.430192908158247178e-01
4.323480666265504535e-01 3.146167164015629680e-01
4.333886155232158366e-01 3.449778807410659454e-01
4.344291644198812197e-01 3.782820662944423873e-01
