# q (1/Angstrom), Intensity (arb)
2.029070354705860696e-02 1.502396329294012276e+03
2.133125244372399004e-02 1.503723922773099957e+03
2.237180134038937659e-02 1.496556098068618212e+03
2.341235023705475968e-02 1.484835514166451048e+03
2.445289913372014276e-02 1.471421827717492988e+03
2.549344803038552584e-02 1.459495127532404013e+03
2.653399692705091240e-02 1.454795748238957458e+03
2.757454582371629548e-02 1.444498977032219500e+03
2.861509472038167856e-02 1.424438196985599916e+03
2.965564361704706164e-02 1.409401884806005910e+03
3.069619251371244473e-02 1.391941356009043830e+03
3.173674141037782781e-02 1.369811430838174829e+03
3.277729030704321089e-02 1.344317728797171640e+03
3.381783920370859398e-02 1.322669553872845654e+03
3.485838810037397706e-02 1.306810059042473313e+03
3.589893699703936014e-02 1.288391481122036794e+03
3.693948589370474322e-02 1.266086316481081667e+03
3.798003479037012631e-02 1.240148440141352012e+03
3.902058368703550939e-02 1.219737210505691564e+03
4.006113258370089247e-02 1.197565108238240100e+03
4.110168148036627556e-02 1.177466968657681264e+03
4.214223037703165864e-02 1.155816518236298862e+03
4.318277927369704866e-02 1.127072977944254717e+03
4.422332817036243174e-02 1.102892918719151567e+03
4.526387706702781483e-02 1.078176769913515500e+03
4.630442596369319791e-02 1.052429586226684478e+03
4.734497486035858099e-02 1.028265741911056466e+03
4.838552375702396408e-02 1.000901695782765501e+03
4.942607265368934716e-02 9.740152957439343027e+02
5.046662155035473024e-02 9.521678216560119381e+02
5.150717044702011332e-02 9.274643024317332447e+02
5.254771934368549641e-02 9.025278742508163532e+02
5.358826824035087949e-02 8.754873344402817565e+02
5.462881713701626257e-02 8.525235021496545187e+02
5.566936603368164566e-02 8.269538771552248591e+02
5.670991493034702874e-02 8.006433525542079224e+02
5.775046382701241182e-02 7.764928402235082103e+02
5.879101272367779490e-02 7.528803969178301259e+02
5.983156162034317799e-02 7.291712748994839330e+02
6.087211051700856107e-02 7.070359779721195537e+02
6.191265941367394415e-02 6.823590116951544360e+02
6.295320831033933417e-02 6.592512998740296553e+02
6.399375720700471726e-02 6.380074110789505539e+02
6.503430610367010034e-02 6.140067655158213711e+02
6.607485500033548342e-02 5.906730202960014822e+02
6.711540389700086651e-02 5.687962242769167460e+02
6.815595279366624959e-02 5.471644780836314794e+02
6.919650169033163267e-02 5.267259287364213378e+02
7.023705058699701576e-02 5.074739577503104329e+02
7.127759948366239884e-02 4.866192543364375638e+02
7.231814838032778192e-02 4.660875751978417725e+02
7.335869727699316500e-02 4.456125609827039966e+02
7.439924617365854809e-02 4.275945513691133897e+02
7.543979507032393117e-02 4.090022925570339112e+02
7.648034396698931425e-02 3.909732033678348557e+02
7.752089286365469734e-02 3.731502398582529736e+02
7.856144176032008042e-02 3.539872770847687207e+02
7.960199065698546350e-02 3.371085515765219611e+02
8.064253955365084658e-02 3.219148522927637828e+02
8.168308845031622967e-02 3.055261578155725033e+02
8.272363734698161275e-02 2.895861756651835890e+02
8.376418624364699583e-02 2.753879261291440343e+02
8.480473514031239279e-02 2.606074645249534001e+02
8.584528403697777588e-02 2.459938597281000909e+02
8.688583293364315896e-02 2.316267335271326431e+02
8.792638183030854204e-02 2.192748138674480742e+02
8.896693072697392513e-02 2.055067308403478137e+02
9.000747962363930821e-02 1.944264377348255266e+02
9.104802852030469129e-02 1.829613142006539874e+02
9.208857741697007437e-02 1.708339995113354348e+02
9.312912631363545746e-02 1.595807023415415529e+02
9.416967521030084054e-02 1.491491095311737070e+02
9.521022410696622362e-02 1.386509774092994860e+02
9.625077300363160671e-02 1.289408156109238064e+02
9.729132190029698979e-02 1.196496697098710342e+02
9.833187079696237287e-02 1.104071214710346851e+02
9.937241969362775595e-02 1.025615466257442563e+02
1.004129685902931390e-01 9.494178402048251542e+01
1.014535174869585221e-01 8.837143717151138844e+01
1.024940663836239052e-01 8.118180885994497942e+01
1.035346152802892883e-01 7.434729695905426183e+01
1.045751641769546714e-01 6.854659759081997095e+01
1.056157130736200545e-01 6.300764022808856168e+01
1.066562619702854375e-01 5.710527554144631779e+01
1.076968108669508206e-01 5.160549262073946863e+01
1.087373597636162037e-01 4.611005867655951818e+01
1.097779086602815868e-01 4.185250405118711114e+01
1.108184575569469699e-01 3.754325665012062530e+01
1.118590064536123529e-01 3.399026614443975802e+01
1.128995553502777360e-01 3.034580981307616199e+01
1.139401042469431191e-01 2.714409986261400931e+01
1.149806531436085022e-01 2.396165451790978196e+01
1.160212020402738853e-01 2.136682535146688622e+01
1.170617509369392684e-01 1.878425378922893429e+01
1.181022998336046514e-01 1.646685508080525651e+01
1.191428487302700345e-01 1.460578182330961283e+01
1.201833976269354176e-01 1.219261506529822725e+01
1.212239465236008007e-01 1.036152601271040652e+01
1.222644954202661838e-01 8.610833360832700123e+00
1.233050443169315669e-01 7.248736089749300504e+00
1.243455932135969499e-01 6.379408986275173277e+00
1.253861421102623330e-01 5.655085362970158513e+00
1.264266910069277161e-01 4.922168386640038307e+00
1.274672399035930992e-01 3.901137057803069297e+00
1.285077888002584823e-01 3.228030782524921705e+00
1.295483376969238654e-01 2.913657429362224605e+00
1.305888865935892484e-01 2.369855274918975852e+00
1.316294354902546315e-01 2.507760914254692608e+00
1.326699843869200146e-01 2.183076127912883635e+00
1.337105332835853977e-01 1.973533487046683632e+00
1.347510821802507808e-01 2.126998177461043582e+00
1.357916310769161639e-01 2.371466822581002276e+00
1.368321799735815469e-01 2.235899376493776458e+00
1.378727288702469300e-01 2.864590799675870159e+00
1.389132777669123131e-01 3.255730024318168603e+00
1.399538266635776962e-01 3.605294630757892804e+00
1.409943755602430793e-01 4.103648761429145253e+00
1.420349244569084624e-01 4.342531457823966434e+00
1.430754733535738454e-01 4.730105013338310016e+00
1.441160222502392285e-01 5.303329548322807341e+00
1.451565711469046116e-01 5.608414248404336888e+00
1.461971200435699947e-01 5.958071706739623608e+00
1.472376689402353778e-01 6.611556309374826412e+00
1.482782178369007609e-01 7.354489319145386617e+00
1.493187667335661439e-01 7.547403116488919039e+00
1.503593156302315270e-01 7.873668352200571263e+00
1.513998645268969101e-01 8.193551036951696176e+00
1.524404134235622932e-01 8.748691866055324340e+00
1.534809623202276763e-01 9.378556864461479847e+00
1.545215112168930593e-01 9.537089894983054705e+00
1.555620601135584424e-01 9.924800582902527424e+00
1.566026090102238255e-01 9.719369793352338860e+00
1.576431579068892086e-01 1.026186297879962694e+01
1.586837068035545917e-01 1.096109815694839540e+01
1.597242557002199748e-01 1.137411939588224641e+01
1.607648045968853578e-01 1.163489834834909686e+01
1.618053534935507409e-01 1.184349753755973111e+01
1.628459023902161240e-01 1.193782546515703302e+01
1.638864512868815071e-01 1.225084538530327904e+01
1.649270001835468902e-01 1.191178505332151971e+01
1.659675490802122733e-01 1.194775027420095981e+01
1.670080979768776563e-01 1.237084175910008810e+01
1.680486468735430672e-01 1.253992479726481690e+01
1.690891957702084503e-01 1.234681203451352971e+01
1.701297446668738333e-01 1.216075398746838232e+01
1.711702935635392164e-01 1.199479303107975525e+01
1.722108424602045995e-01 1.185406225861605733e+01
1.732513913568699826e-01 1.199137825835406446e+01
1.742919402535353657e-01 1.220891900263001517e+01
1.753324891502007488e-01 1.179380764783437030e+01
1.763730380468661318e-01 1.183004340879931604e+01
1.774135869435315149e-01 1.149367594868420639e+01
1.784541358401968980e-01 1.107272618799805386e+01
1.794946847368622811e-01 1.090747954961423360e+01
1.805352336335276642e-01 1.041783583648293288e+01
1.815757825301930473e-01 1.039532400852540661e+01
1.826163314268584303e-01 1.035468641033921600e+01
1.836568803235238134e-01 9.990543949498398746e+00
1.846974292201891965e-01 9.391650052547241501e+00
1.857379781168545796e-01 9.142914049668192433e+00
1.867785270135199627e-01 9.128013862971663173e+00
1.878190759101853458e-01 8.825371481519539429e+00
1.888596248068507288e-01 8.015872221642652562e+00
1.899001737035161119e-01 7.487873836669521665e+00
1.909407226001814950e-01 7.444540388519893526e+00
1.919812714968468781e-01 7.485586014102082686e+00
1.930218203935122612e-01 7.185791804403280025e+00
1.940623692901776443e-01 6.842731054541296487e+00
1.951029181868430273e-01 6.612409042623603739e+00
1.961434670835084104e-01 6.068098117557450877e+00
1.971840159801737935e-01 5.855834116865878514e+00
1.982245648768391766e-01 5.468224727587323031e+00
1.992651137735045597e-01 5.282271519777918201e+00
2.003056626701699428e-01 4.920220267605426301e+00
2.013462115668353813e-01 4.556801161587689109e+00
2.023867604635007644e-01 4.436156393699533851e+00
2.034273093601661475e-01 3.986745542077933635e+00
2.044678582568315306e-01 3.725027332228076915e+00
2.055084071534969137e-01 3.347742723768650563e+00
2.065489560501622968e-01 3.274256910570393586e+00
2.075895049468276798e-01 2.971020744589807805e+00
2.086300538434930629e-01 2.657461435031230224e+00
2.096706027401584460e-01 2.293723578101459992e+00
2.107111516368238291e-01 2.193732395040154159e+00
2.117517005334892122e-01 2.235405142503484655e+00
2.127922494301545953e-01 2.097310423252057632e+00
2.138327983268199783e-01 1.894272748827432906e+00
2.148733472234853614e-01 1.712532058718259975e+00
2.159138961201507445e-01 1.650321255300216450e+00
2.169544450168161276e-01 1.755387374198260630e+00
2.179949939134815107e-01 1.544257743513544057e+00
2.190355428101468938e-01 1.230025821719920032e+00
2.200760917068122768e-01 1.121151503953473849e+00
2.211166406034776599e-01 1.232881067729518776e+00
2.221571895001430430e-01 9.991903225927423193e-01
2.231977383968084261e-01 8.918494939796204335e-01
2.242382872934738092e-01 1.179824980868389162e+00
2.252788361901391923e-01 1.179403925529257435e+00
2.263193850868045753e-01 9.922765745015205141e-01
2.273599339834699584e-01 9.022421264109077299e-01
2.284004828801353415e-01 9.821820824626144031e-01
2.294410317768007246e-01 7.276628097063984058e-01
2.304815806734661077e-01 7.439906227794352844e-01
2.315221295701314908e-01 1.003388284219511206e+00
2.325626784667968738e-01 7.699646969723019652e-01
2.336032273634622569e-01 8.362361302181895439e-01
2.346437762601276400e-01 8.807338620131552887e-01
2.356843251567930231e-01 8.048850955786903683e-01
2.367248740534584062e-01 1.172472977785727011e+00
2.377654229501237892e-01 1.131546848944129380e+00
2.388059718467891723e-01 1.060477228797136462e+00
2.398465207434545554e-01 1.347109269302684709e+00
2.408870696401199385e-01 1.262203573216812202e+00
2.419276185367853216e-01 1.264352093709195657e+00
2.429681674334507047e-01 1.207684087590081390e+00
2.440087163301160877e-01 1.383592471891308406e+00
2.450492652267814708e-01 1.399771626545064152e+00
2.460898141234468539e-01 1.353735107091576850e+00
2.471303630201122370e-01 1.530268151859981884e+00
2.481709119167776201e-01 1.624840147484761133e+00
2.492114608134430032e-01 1.614088844766150999e+00
2.502520097101083585e-01 1.758159027979889544e+00
2.512925586067737416e-01 1.715115701638467272e+00
2.523331075034391247e-01 1.743122812415904832e+00
2.533736564001045077e-01 1.719036127291019511e+00
2.544142052967698908e-01 1.591746841800855350e+00
2.554547541934352739e-01 1.729746168026498054e+00
2.564953030901006570e-01 1.963813366080696454e+00
2.575358519867660401e-01 1.976697329985444895e+00
2.585764008834314231e-01 1.946298023441730862e+00
2.596169497800968062e-01 1.974909447452180444e+00
2.606574986767621893e-01 2.347423468416074854e+00
2.616980475734275724e-01 2.297855402830698779e+00
2.627385964700929555e-01 2.293399618810038731e+00
2.637791453667583386e-01 2.269511552601226612e+00
2.648196942634237216e-01 2.281697088937775675e+00
2.658602431600891047e-01 2.166579343986242634e+00
2.669007920567544878e-01 2.001867976519179138e+00
2.679413409534198709e-01 1.957011852508728111e+00
2.689818898500852540e-01 2.031303856353964932e+00
2.700224387467506371e-01 1.915514210023538055e+00
2.710629876434160201e-01 1.685398856792602373e+00
2.721035365400814032e-01 1.813878884761322752e+00
2.731440854367467863e-01 2.088668209827051925e+00
2.741846343334121694e-01 2.004149696916538659e+00
2.752251832300775525e-01 1.710487631793267127e+00
2.762657321267429356e-01 1.791005376767927260e+00
2.773062810234083186e-01 2.043214695724120844e+00
2.783468299200737017e-01 2.005674393745920270e+00
2.793873788167390848e-01 1.863269980773559098e+00
2.804279277134044679e-01 1.788943296970440855e+00
2.814684766100698510e-01 1.718267220889572400e+00
2.825090255067352341e-01 1.725438080069206848e+00
2.835495744034006171e-01 1.720030788406027966e+00
2.845901233000660002e-01 1.703801263975154967e+00
2.856306721967313833e-01 1.613705275316331011e+00
2.866712210933967664e-01 1.487909526219276302e+00
2.877117699900621495e-01 1.435289505974310487e+00
2.887523188867275326e-01 1.522744537372290097e+00
2.897928677833929156e-01 1.597181608734036473e+00
2.908334166800582987e-01 1.418740858497116619e+00
2.918739655767236818e-01 1.281748038624577646e+00
2.929145144733890649e-01 1.098747078364603169e+00
2.939550633700544480e-01 8.432841662936567673e-01
2.949956122667198311e-01 9.418707918996567230e-01
2.960361611633852141e-01 1.140573682222321139e+00
2.970767100600505972e-01 1.202236356077541757e+00
2.981172589567159803e-01 1.087028323507652772e+00
2.991578078533813634e-01 7.817398890408995271e-01
3.001983567500468020e-01 7.987685026923507792e-01
3.012389056467121851e-01 9.586382350483795278e-01
3.022794545433775681e-01 9.877816835090484915e-01
3.033200034400429512e-01 7.022428820942181460e-01
3.043605523367083343e-01 6.030862765039550766e-01
3.054011012333737174e-01 5.135889831747455503e-01
3.064416501300391005e-01 7.059229381038427675e-01
3.074821990267044836e-01 7.345959956418894876e-01
3.085227479233698666e-01 6.049510998173026621e-01
3.095632968200352497e-01 5.027662417717486676e-01
3.106038457167006328e-01 3.886128393336463205e-01
3.116443946133660159e-01 4.589938933555117728e-01
3.126849435100313990e-01 4.265207626626015269e-01
3.137254924066967821e-01 3.724609756064083399e-01
3.147660413033621651e-01 6.396622966927587584e-01
3.158065902000275482e-01 7.325651232401817481e-01
3.168471390966929313e-01 5.520693245184702391e-01
3.178876879933583144e-01 4.849403137704761946e-01
3.189282368900236975e-01 6.746163854624462886e-01
3.199687857866890806e-01 7.799471154657311445e-01
3.210093346833544636e-01 5.245418351430295445e-01
3.220498835800198467e-01 3.013268914005706733e-01
3.230904324766852298e-01 5.496946837965417387e-01
3.241309813733506129e-01 4.145140047987290188e-01
3.251715302700159960e-01 6.092720640969737644e-01
3.262120791666813790e-01 8.472261561113718642e-01
3.272526280633467621e-01 4.071355363850663878e-01
3.282931769600121452e-01 3.673895666255084791e-01
3.293337258566775283e-01 3.465545629056379084e-01
3.303742747533429114e-01 2.561668112811084086e-01
3.314148236500082945e-01 2.934741604132753423e-01
3.324553725466736775e-01 3.741126061753199394e-01
3.334959214433390606e-01 2.705211120126165270e-01
3.345364703400044437e-01 3.488382431237511128e-01
3.355770192366698268e-01 3.529334626173152856e-01
3.366175681333352099e-01 5.693255605485312287e-01
3.376581170300005930e-01 8.120484705778530099e-01
3.386986659266659760e-01 6.422289909645755301e-01
3.397392148233313591e-01 5.900655121889180066e-01
3.407797637199967422e-01 6.091508684041073707e-01
3.418203126166621253e-01 5.459181729781867887e-01
3.428608615133275084e-01 5.527455502471703142e-01
3.439014104099928915e-01 7.758364879767292166e-01
3.449419593066582745e-01 7.844206810042742006e-01
3.459825082033236576e-01 5.510106958005387412e-01
3.470230570999890407e-01 7.202053466668161263e-01
3.480636059966544238e-01 1.030678846540556748e+00
3.491041548933198069e-01 7.899984341733450321e-01
3.501447037899851900e-01 6.292033294065824123e-01
3.511852526866505730e-01 8.492743338327706226e-01
3.522258015833159561e-01 8.947885864470848105e-01
3.532663504799813392e-01 8.950272615545209476e-01
3.543068993766467223e-01 1.060018275061132442e+00
3.553474482733121054e-01 9.837155705246871662e-01
3.563879971699774885e-01 7.486566800560652268e-01
3.574285460666428715e-01 6.479320716994969587e-01
3.584690949633082546e-01 7.487621642564974422e-01
3.595096438599736377e-01 7.309205317190610174e-01
3.605501927566390208e-01 7.576373897594557150e-01
3.615907416533044039e-01 8.385995207295025011e-01
3.626312905499697870e-01 7.526946615767968751e-01
3.636718394466351700e-01 6.018247464209451891e-01
3.647123883433005531e-01 6.107945659865130494e-01
3.657529372399659362e-01 8.814754635106929470e-01
3.667934861366313193e-01 9.058797938339644418e-01
3.678340350332967024e-01 8.750056246697219819e-01
3.688745839299620854e-01 8.666785123580886818e-01
3.699151328266274685e-01 7.643528503825045561e-01
3.709556817232928516e-01 6.479901958366447445e-01
3.719962306199582347e-01 6.350011099317640628e-01
3.730367795166236178e-01 7.144360418652979661e-01
3.740773284132890009e-01 8.301281880010940029e-01
3.751178773099543839e-01 7.342862591590026966e-01
3.761584262066197670e-01 6.653033776926839948e-01
3.771989751032851501e-01 6.086639723138276281e-01
3.782395239999505332e-01 6.454898666369821569e-01
3.792800728966159163e-01 5.488868672677362781e-01
3.803206217932812994e-01 4.352503210495441976e-01
3.813611706899466824e-01 6.012809085854478042e-01
3.824017195866120655e-01 6.027760951523539745e-01
3.834422684832774486e-01 9.119264084329010700e-01
3.844828173799428317e-01 8.085425430132531233e-01
3.855233662766082148e-01 6.572992509762691782e-01
3.865639151732735979e-01 3.698451347936639877e-01
3.876044640699389809e-01 6.393668745832883360e-01
3.886450129666043640e-01 5.644403369123836001e-01
3.896855618632697471e-01 4.007208772379229345e-01
3.907261107599351302e-01 3.083523784151829261e-01
3.917666596566005133e-01 6.496880984963517847e-01
3.928072085532658964e-01 6.079839220233047570e-01
3.938477574499312794e-01 5.363330775994974431e-01
3.948883063465966625e-01 6.724970406680768065e-01
3.959288552432620456e-01 5.926793625234871854e-01
3.969694041399274287e-01 3.810240823032273738e-01
3.980099530365928118e-01 2.249881492015752826e-01
3.990505019332581949e-01 3.913474173499622566e-01
4.000910508299235779e-01 3.927375152505589995e-01
4.011315997265889610e-01 3.560953347224540266e-01
4.021721486232543441e-01 3.403786019133576701e-01
4.032126975199197272e-01 2.997433865718086565e-01
4.042532464165851103e-01 3.596776943669901527e-01
4.052937953132504934e-01 5.282282761591936548e-01
4.063343442099158764e-01 4.734125995748854621e-01
4.073748931065812595e-01 3.753208198180431054e-01
4.084154420032466426e-01 3.448196146421977915e-01
4.094559908999120257e-01 2.722909685683809755e-01
4.104965397965774088e-01 3.405401808634209715e-01
4.115370886932427918e-01 3.571322007205175453e-01
4.125776375899081749e-01 3.632500958433659832e-01
4.136181864865735580e-01 2.159647697041897629e-01
4.146587353832389411e-01 2.053237877953257851e-01
4.156992842799043242e-01 4.250530900824465164e-01
4.167398331765697073e-01 3.430011010077969047e-01
4.177803820732350903e-01 2.102719713552296810e-01
4.188209309699004734e-01 2.511828429162648035e-01
4.198614798665658565e-01 3.168981441318621251e-01
4.209020287632312396e-01 3.025676405847796957e-01
4.219425776598966227e-01 4.123437287700504328e-01
4.229831265565620058e-01 5.013186372161513304e-01
4.240236754532273888e-01 3.405328101777733707e-01
4.250642243498927719e-01 4.856198697581390888e-01
4.261047732465581550e-01 4.673970476515627581e-01
4.271453221432235381e-01 2.881421084667721288e-01
4.281858710398889212e-01 2.122700215720527694e-01
4.292264199365543043e-01 3.690022454492485338e-01
4.302669688332196873e-01 3.332092599265799038e-01
4.313075177298850704e-01 2.915605708639681382e-01
4.323480666265504535e-01 4.115985441860772198e-01
4.333886155232158366e-01 3.754231603758881874e-01
4.344291644198812197e-01 2.306567424993168913e-01
