# q (1/Angstrom), Intensity (arb)
2.029070354705860696e-02 1.487068994597863139e+03
2.133125244372399004e-02 1.481629024864595976e+03
2.237180134038937659e-02 1.475464493718726544e+03
2.341235023705475968e-02 1.463850559744756993e+03
2.445289913372014276e-02 1.451200777435304872e+03
2.549344803038552584e-02 1.440730753618958943e+03
2.653399692705091240e-02 1.432053499836867104e+03
2.757454582371629548e-02 1.418170540260574171e+03
2.861509472038167856e-02 1.399187490349128893e+03
2.965564361704706164e-02 1.384351100361939189e+03
3.069619251371244473e-02 1.365891104695349895e+03
3.173674141037782781e-02 1.350383062205777833e+03
3.277729030704321089e-02 1.328783502193442018e+03
3.381783920370859398e-02 1.309104750920703509e+03
3.485838810037397706e-02 1.292675725761612966e+03
3.589893699703936014e-02 1.266603164440795354e+03
3.693948589370474322e-02 1.242506029603175193e+03
3.798003479037012631e-02 1.220647374173504204e+03
3.902058368703550939e-02 1.198892368474047089e+03
4.006113258370089247e-02 1.175877664127905291e+03
4.110168148036627556e-02 1.159556161526827736e+03
4.214223037703165864e-02 1.135382087493488598e+03
4.318277927369704866e-02 1.107835022049214786e+03
4.422332817036243174e-02 1.083067018702476844e+03
4.526387706702781483e-02 1.058401702430714977e+03
4.630442596369319791e-02 1.032036105266290406e+03
4.734497486035858099e-02 1.009489139467666405e+03
4.838552375702396408e-02 9.876727132622085037e+02
4.942607265368934716e-02 9.641202553365967560e+02
5.046662155035473024e-02 9.399905809871424935e+02
5.150717044702011332e-02 9.138756677695217832e+02
5.254771934368549641e-02 8.854141078258284097e+02
5.358826824035087949e-02 8.584000507340081185e+02
5.462881713701626257e-02 8.351728103137037351e+02
5.566936603368164566e-02 8.146734125354849994e+02
5.670991493034702874e-02 7.922887328313082662e+02
5.775046382701241182e-02 7.674104746409345807e+02
5.879101272367779490e-02 7.425592474064138742e+02
5.983156162034317799e-02 7.195509717302417130e+02
6.087211051700856107e-02 6.968378254320821270e+02
6.191265941367394415e-02 6.726282541420798680e+02
6.295320831033933417e-02 6.495525392554202426e+02
6.399375720700471726e-02 6.260281759244907107e+02
6.503430610367010034e-02 6.052061593818350502e+02
6.607485500033548342e-02 5.819470892014725223e+02
6.711540389700086651e-02 5.600180572373672021e+02
6.815595279366624959e-02 5.394280048473362967e+02
6.919650169033163267e-02 5.188793677439306293e+02
7.023705058699701576e-02 4.980752306500232862e+02
7.127759948366239884e-02 4.778120948308813922e+02
7.231814838032778192e-02 4.603386534517277369e+02
7.335869727699316500e-02 4.395542077034717181e+02
7.439924617365854809e-02 4.183468859071118686e+02
7.543979507032393117e-02 3.997446055372432738e+02
7.648034396698931425e-02 3.826292505165228022e+02
7.752089286365469734e-02 3.645173379180099573e+02
7.856144176032008042e-02 3.471083676219179779e+02
7.960199065698546350e-02 3.310472763947680050e+02
8.064253955365084658e-02 3.136400789928566155e+02
8.168308845031622967e-02 2.965971279646322500e+02
8.272363734698161275e-02 2.823348146671223162e+02
8.376418624364699583e-02 2.686960631827323027e+02
8.480473514031239279e-02 2.550935331981711727e+02
8.584528403697777588e-02 2.398741039781151301e+02
8.688583293364315896e-02 2.268889431564182644e+02
8.792638183030854204e-02 2.146558544908518513e+02
8.896693072697392513e-02 2.021823801189694905e+02
9.000747962363930821e-02 1.894211023325306371e+02
9.104802852030469129e-02 1.766644673707772313e+02
9.208857741697007437e-02 1.663052651652115799e+02
9.312912631363545746e-02 1.558356166219371062e+02
9.416967521030084054e-02 1.452359261672233117e+02
9.521022410696622362e-02 1.354219522359169332e+02
9.625077300363160671e-02 1.259063032531468878e+02
9.729132190029698979e-02 1.180092196684822454e+02
9.833187079696237287e-02 1.097058855984236345e+02
9.937241969362775595e-02 1.022744577050713843e+02
1.004129685902931390e-01 9.409667286250821405e+01
1.014535174869585221e-01 8.657903720457990460e+01
1.024940663836239052e-01 7.925397602548405018e+01
1.035346152802892883e-01 7.291428437911181959e+01
1.045751641769546714e-01 6.619066321530739572e+01
1.056157130736200545e-01 6.029128697326119379e+01
1.066562619702854375e-01 5.457661830228980193e+01
1.076968108669508206e-01 5.014001069281106737e+01
1.087373597636162037e-01 4.586065921751506380e+01
1.097779086602815868e-01 4.158818690352680392e+01
1.108184575569469699e-01 3.738890769286625471e+01
1.118590064536123529e-01 3.315926112581945517e+01
1.128995553502777360e-01 2.965962397539471596e+01
1.139401042469431191e-01 2.615469638786247231e+01
1.149806531436085022e-01 2.295962104939835058e+01
1.160212020402738853e-01 2.027444379063566515e+01
1.170617509369392684e-01 1.772945855109769298e+01
1.181022998336046514e-01 1.536668527360834346e+01
1.191428487302700345e-01 1.407817560807900392e+01
1.201833976269354176e-01 1.209687297881501422e+01
1.212239465236008007e-01 1.034939811681186228e+01
1.222644954202661838e-01 9.130629755527113645e+00
1.233050443169315669e-01 7.569878609185078489e+00
1.243455932135969499e-01 6.213106675419190594e+00
1.253861421102623330e-01 4.910853678574518710e+00
1.264266910069277161e-01 4.410819406264113951e+00
1.274672399035930992e-01 3.807177195885749654e+00
1.285077888002584823e-01 2.958896872048146776e+00
1.295483376969238654e-01 2.699696306219419029e+00
1.305888865935892484e-01 2.326977692529268893e+00
1.316294354902546315e-01 2.616268158075605754e+00
1.326699843869200146e-01 2.377672191778611221e+00
1.337105332835853977e-01 2.213372284673354784e+00
1.347510821802507808e-01 1.974869077761297831e+00
1.357916310769161639e-01 2.181612922549746258e+00
1.368321799735815469e-01 2.746685266220620036e+00
1.378727288702469300e-01 3.103535927548161766e+00
1.389132777669123131e-01 3.063432592849636649e+00
1.399538266635776962e-01 3.179244677152045284e+00
1.409943755602430793e-01 3.521990253353251887e+00
1.420349244569084624e-01 4.062144537661776411e+00
1.430754733535738454e-01 4.454050662221995083e+00
1.441160222502392285e-01 5.240689720066903590e+00
1.451565711469046116e-01 5.833375948342485628e+00
1.461971200435699947e-01 6.158565222130253147e+00
1.472376689402353778e-01 6.515297454730102800e+00
1.482782178369007609e-01 6.747004534306920931e+00
1.493187667335661439e-01 7.330092179609181358e+00
1.503593156302315270e-01 7.453726265439101439e+00
1.513998645268969101e-01 8.102191259016851888e+00
1.524404134235622932e-01 8.905424930960780472e+00
1.534809623202276763e-01 9.242186577079362308e+00
1.545215112168930593e-01 9.215435515889986107e+00
1.555620601135584424e-01 9.471154162240619456e+00
1.566026090102238255e-01 9.892569933099370161e+00
1.576431579068892086e-01 1.040532649662785758e+01
1.586837068035545917e-01 1.081954021102838936e+01
1.597242557002199748e-01 1.083292631142909102e+01
1.607648045968853578e-01 1.077510699094133528e+01
1.618053534935507409e-01 1.120481182938986464e+01
1.628459023902161240e-01 1.124512849668142067e+01
1.638864512868815071e-01 1.130597512181045516e+01
1.649270001835468902e-01 1.149349955999197803e+01
1.659675490802122733e-01 1.178859932799309007e+01
1.670080979768776563e-01 1.202252155044926241e+01
1.680486468735430672e-01 1.218191761504933268e+01
1.690891957702084503e-01 1.239497651328704109e+01
1.701297446668738333e-01 1.252075085407115296e+01
1.711702935635392164e-01 1.191200911866204137e+01
1.722108424602045995e-01 1.172380369577984283e+01
1.732513913568699826e-01 1.163721780789129667e+01
1.742919402535353657e-01 1.155311208647325927e+01
1.753324891502007488e-01 1.149894189201729233e+01
1.763730380468661318e-01 1.106603908469414677e+01
1.774135869435315149e-01 1.069960143298933275e+01
1.784541358401968980e-01 1.039430981606761151e+01
1.794946847368622811e-01 1.041011251304368557e+01
1.805352336335276642e-01 1.019381042185499808e+01
1.815757825301930473e-01 1.022440213590959601e+01
1.826163314268584303e-01 1.021475836087111233e+01
1.836568803235238134e-01 9.613759121176713052e+00
1.846974292201891965e-01 9.197699211489329230e+00
1.857379781168545796e-01 9.078038856144281965e+00
1.867785270135199627e-01 8.833292931713213392e+00
1.878190759101853458e-01 8.644110381121770104e+00
1.888596248068507288e-01 8.386989271003919555e+00
1.899001737035161119e-01 8.064069080894082475e+00
1.909407226001814950e-01 7.321081717100597075e+00
1.919812714968468781e-01 7.001452918658873870e+00
1.930218203935122612e-01 7.046173733662897121e+00
1.940623692901776443e-01 6.767114528124501760e+00
1.951029181868430273e-01 6.116756935029791009e+00
1.961434670835084104e-01 5.722794268494279635e+00
1.971840159801737935e-01 5.503996224551233496e+00
1.982245648768391766e-01 4.903547765177453499e+00
1.992651137735045597e-01 4.729879192828001067e+00
2.003056626701699428e-01 4.696370306989791743e+00
2.013462115668353813e-01 4.062186310508927534e+00
2.023867604635007644e-01 4.014120304089164648e+00
2.034273093601661475e-01 3.931876217638674120e+00
2.044678582568315306e-01 3.441200051892234768e+00
2.055084071534969137e-01 3.127030399310211095e+00
2.065489560501622968e-01 3.178892645393435856e+00
2.075895049468276798e-01 2.794418911208758516e+00
2.086300538434930629e-01 2.345106527164446675e+00
2.096706027401584460e-01 2.285513417279236847e+00
2.107111516368238291e-01 2.512790736179518092e+00
2.117517005334892122e-01 2.548389356748721468e+00
2.127922494301545953e-01 2.171653841428039300e+00
2.138327983268199783e-01 1.825386620261912896e+00
2.148733472234853614e-01 1.472140052955460021e+00
2.159138961201507445e-01 1.272018581833286532e+00
2.169544450168161276e-01 1.169631096222218503e+00
2.179949939134815107e-01 9.884733431794607839e-01
2.190355428101468938e-01 9.811648148675402581e-01
2.200760917068122768e-01 1.025306955110877993e+00
2.211166406034776599e-01 9.519015754509361216e-01
2.221571895001430430e-01 5.499422633595791865e-01
2.231977383968084261e-01 4.466467671249993998e-01
2.242382872934738092e-01 6.435565193294330300e-01
2.252788361901391923e-01 6.858218574156538239e-01
2.263193850868045753e-01 6.688286564814696078e-01
2.273599339834699584e-01 6.746597238693077259e-01
2.284004828801353415e-01 6.283959550908448932e-01
2.294410317768007246e-01 5.766834382788914581e-01
2.304815806734661077e-01 7.565019538666390986e-01
2.315221295701314908e-01 6.749209090012513457e-01
2.325626784667968738e-01 8.668297265074826896e-01
2.336032273634622569e-01 8.361332566375949682e-01
2.346437762601276400e-01 8.971157712823476515e-01
2.356843251567930231e-01 8.187281744259777838e-01
2.367248740534584062e-01 7.630704035182169775e-01
2.377654229501237892e-01 8.222214847666791115e-01
2.388059718467891723e-01 1.034517903863321209e+00
2.398465207434545554e-01 1.148814977722931729e+00
2.408870696401199385e-01 9.463812594603666639e-01
2.419276185367853216e-01 1.079638391713320544e+00
2.429681674334507047e-01 1.230321537180067537e+00
2.440087163301160877e-01 1.250144734330476126e+00
2.450492652267814708e-01 1.248849390597168707e+00
2.460898141234468539e-01 1.325806999840725808e+00
2.471303630201122370e-01 1.404476718394366941e+00
2.481709119167776201e-01 1.412012982050669052e+00
2.492114608134430032e-01 1.658915146054763312e+00
2.502520097101083585e-01 1.602061090731471182e+00
2.512925586067737416e-01 1.697199990626543809e+00
2.523331075034391247e-01 1.839614147052724746e+00
2.533736564001045077e-01 1.681152221979669292e+00
2.544142052967698908e-01 1.608314399462315691e+00
2.554547541934352739e-01 1.763838334708722755e+00
2.564953030901006570e-01 1.864504432519808574e+00
2.575358519867660401e-01 1.832291466043251660e+00
2.585764008834314231e-01 1.917488632522438508e+00
2.596169497800968062e-01 1.834155081055520498e+00
2.606574986767621893e-01 1.828217180647605744e+00
2.616980475734275724e-01 1.963926069501649607e+00
2.627385964700929555e-01 2.020093925580187744e+00
2.637791453667583386e-01 1.948525233409753810e+00
2.648196942634237216e-01 1.913141788524246323e+00
2.658602431600891047e-01 2.186615858814846547e+00
2.669007920567544878e-01 2.315246925805620748e+00
2.679413409534198709e-01 2.171064623441747443e+00
2.689818898500852540e-01 2.023972293252779053e+00
2.700224387467506371e-01 2.076266350376652525e+00
2.710629876434160201e-01 2.091055696285515353e+00
2.721035365400814032e-01 1.976191194126656114e+00
2.731440854367467863e-01 1.743909874428002382e+00
2.741846343334121694e-01 1.696599818048603936e+00
2.752251832300775525e-01 1.755831326916950985e+00
2.762657321267429356e-01 1.770011383180133180e+00
2.773062810234083186e-01 1.533254578298734572e+00
2.783468299200737017e-01 1.638729536868670067e+00
2.793873788167390848e-01 1.733191109298580557e+00
2.804279277134044679e-01 1.527941349135151228e+00
2.814684766100698510e-01 1.684835858020214516e+00
2.825090255067352341e-01 1.629443789431338274e+00
2.835495744034006171e-01 1.470800374652704079e+00
2.845901233000660002e-01 1.361278926645614007e+00
2.856306721967313833e-01 1.368893904519701721e+00
2.866712210933967664e-01 1.441966554994724703e+00
2.877117699900621495e-01 1.413912679081505530e+00
2.887523188867275326e-01 1.372818558420522805e+00
2.897928677833929156e-01 1.278484750108841439e+00
2.908334166800582987e-01 1.209797583116273501e+00
2.918739655767236818e-01 1.177249807418128569e+00
2.929145144733890649e-01 9.718436535765668793e-01
2.939550633700544480e-01 9.372159709073990541e-01
2.949956122667198311e-01 1.101786396602403073e+00
2.960361611633852141e-01 9.238557131502638242e-01
2.970767100600505972e-01 7.156929982300965776e-01
2.981172589567159803e-01 6.155738161608113046e-01
2.991578078533813634e-01 8.040445073095447981e-01
3.001983567500468020e-01 7.711505808816419005e-01
3.012389056467121851e-01 5.589853402534181726e-01
3.022794545433775681e-01 5.059162807269288464e-01
3.033200034400429512e-01 5.575383775791173946e-01
3.043605523367083343e-01 5.573697845162932651e-01
3.054011012333737174e-01 6.860677351954009850e-01
3.064416501300391005e-01 6.016166198036643209e-01
3.074821990267044836e-01 7.149491885039509498e-01
3.085227479233698666e-01 5.037635528089019488e-01
3.095632968200352497e-01 4.981498690918151340e-01
3.106038457167006328e-01 6.149719781747471359e-01
3.116443946133660159e-01 5.831171611661751797e-01
3.126849435100313990e-01 3.981754042365537316e-01
3.137254924066967821e-01 3.790323367863024373e-01
3.147660413033621651e-01 4.628820022831980907e-01
3.158065902000275482e-01 5.437310781847095598e-01
3.168471390966929313e-01 3.881990465359130837e-01
3.178876879933583144e-01 5.208516123965480915e-01
3.189282368900236975e-01 5.565720091955377313e-01
3.199687857866890806e-01 4.592345272753846075e-01
3.210093346833544636e-01 3.547371577172420132e-01
3.220498835800198467e-01 3.711988207813590179e-01
3.230904324766852298e-01 3.145792676040812808e-01
3.241309813733506129e-01 1.407638980993937139e-01
3.251715302700159960e-01 3.080175370932529688e-01
3.262120791666813790e-01 4.411995992551105417e-01
3.272526280633467621e-01 2.729843862741816451e-01
3.282931769600121452e-01 2.465217517166387040e-01
3.293337258566775283e-01 2.584229659806638324e-01
3.303742747533429114e-01 1.658003724242433918e-01
3.314148236500082945e-01 1.988943061700254589e-01
3.324553725466736775e-01 2.299185026901113815e-01
3.334959214433390606e-01 2.835440381330016635e-01
3.345364703400044437e-01 4.136264625541876683e-01
3.355770192366698268e-01 5.070882788554129661e-01
3.366175681333352099e-01 7.113185649474402794e-01
3.376581170300005930e-01 5.467931139837496346e-01
3.386986659266659760e-01 5.969677642287614105e-01
3.397392148233313591e-01 8.137505557354280938e-01
3.407797637199967422e-01 5.195059830745663021e-01
3.418203126166621253e-01 4.308205267993265863e-01
3.428608615133275084e-01 5.162650726906932164e-01
3.439014104099928915e-01 7.330474581003372236e-01
3.449419593066582745e-01 6.812907026612045058e-01
3.459825082033236576e-01 4.757128191314343724e-01
3.470230570999890407e-01 4.537898198060759114e-01
3.480636059966544238e-01 4.890650830236289437e-01
3.491041548933198069e-01 3.943953850930022043e-01
3.501447037899851900e-01 4.943191737254508666e-01
3.511852526866505730e-01 7.662519814839896526e-01
3.522258015833159561e-01 7.460884643636092051e-01
3.532663504799813392e-01 7.097075461526038964e-01
3.543068993766467223e-01 8.294121187672551798e-01
3.553474482733121054e-01 1.059121034730459598e+00
3.563879971699774885e-01 8.807455311577356838e-01
3.574285460666428715e-01 6.701945640948139271e-01
3.584690949633082546e-01 7.525064352014858571e-01
3.595096438599736377e-01 6.601356546127199465e-01
3.605501927566390208e-01 7.502027759846008337e-01
3.615907416533044039e-01 7.823652835711598641e-01
3.626312905499697870e-01 8.590071323285748406e-01
3.636718394466351700e-01 6.453632635897044167e-01
3.647123883433005531e-01 5.480176350120125051e-01
3.657529372399659362e-01 6.101116847680536637e-01
3.667934861366313193e-01 7.010800579749947303e-01
3.678340350332967024e-01 7.282685865780393897e-01
3.688745839299620854e-01 6.716463374285801535e-01
3.699151328266274685e-01 5.207819550418300025e-01
3.709556817232928516e-01 5.276688585585027624e-01
3.719962306199582347e-01 5.557563961726650348e-01
3.730367795166236178e-01 6.595052379849768442e-01
3.740773284132890009e-01 5.591247559432304115e-01
3.751178773099543839e-01 5.746114297945474902e-01
3.761584262066197670e-01 6.328423974923147455e-01
3.771989751032851501e-01 4.542517822090168522e-01
3.782395239999505332e-01 4.332200008897437726e-01
3.792800728966159163e-01 5.998570069124014026e-01
3.803206217932812994e-01 5.317159694932840353e-01
3.813611706899466824e-01 5.154372365222172903e-01
3.824017195866120655e-01 5.105706860815324433e-01
3.834422684832774486e-01 4.125330361278365388e-01
3.844828173799428317e-01 4.831186033643390942e-01
3.855233662766082148e-01 4.032375928371862983e-01
3.865639151732735979e-01 4.931147866849094896e-01
3.876044640699389809e-01 6.020224902292454772e-01
3.886450129666043640e-01 4.873097455219941310e-01
3.896855618632697471e-01 6.546534514625292900e-01
3.907261107599351302e-01 6.303243195797314513e-01
3.917666596566005133e-01 4.981681038385161742e-01
3.928072085532658964e-01 3.027547603589049174e-01
3.938477574499312794e-01 3.928228109839508875e-01
3.948883063465966625e-01 4.947178465487134247e-01
3.959288552432620456e-01 6.212313453202824576e-01
3.969694041399274287e-01 5.108692269672907571e-01
3.980099530365928118e-01 3.371559810417323888e-01
3.990505019332581949e-01 2.503352535052165706e-01
4.000910508299235779e-01 9.140456136994146163e-02
4.011315997265889610e-01 2.481921824538275700e-01
4.021721486232543441e-01 6.167619780507322957e-01
4.032126975199197272e-01 6.574848376227322433e-01
4.042532464165851103e-01 2.925712120205616884e-01
4.052937953132504934e-01 1.712327252615857276e-01
4.063343442099158764e-01 2.799625736152400179e-01
4.073748931065812595e-01 4.577531570348263301e-01
4.084154420032466426e-01 4.063591118618177234e-01
4.094559908999120257e-01 2.124744101569788768e-01
4.104965397965774088e-01 4.013141865979008571e-02
4.115370886932427918e-01 5.816955901918774430e-02
4.125776375899081749e-01 3.108102841438160624e-01
4.136181864865735580e-01 4.346468360812032472e-01
4.146587353832389411e-01 3.537663772270924767e-01
4.156992842799043242e-01 4.660882566046105069e-01
4.167398331765697073e-01 3.990255096328816364e-01
4.177803820732350903e-01 3.218174838238283542e-01
4.188209309699004734e-01 2.928611424022875553e-01
4.198614798665658565e-01 3.697143461601122283e-01
4.209020287632312396e-01 2.340350834393909452e-01
4.219425776598966227e-01 9.087097891596229715e-02
4.229831265565620058e-01 2.641348090371344881e-01
4.240236754532273888e-01 3.782517065746304752e-01
4.250642243498927719e-01 4.448440833555800111e-01
4.261047732465581550e-01 2.197448046486734086e-01
4.271453221432235381e-01 3.134548277367450453e-01
4.281858710398889212e-01 3.534637423139415091e-01
4.292264199365543043e-01 2.500156232568961912e-01
4.302669688332196873e-01 3.951079247260906868e-01
4.313075177298850704e-01 4.032737550964817785e-01
4.323480666265504535e-01 3.756255530690815192e-01
4.333886155232158366e-01 2.682100341071134153e-01
4.344291644198812197e-01 1.601521405579759971e-01
