# q (1/Angstrom), Intensity (arb)
2.067508526570814575e-02 7.136709601685658981e+02
2.163671713586316769e-02 7.488154512104339346e+02
2.259834900601819310e-02 7.797746419985721786e+02
2.355998087617321851e-02 7.891201032273514784e+02
2.452161274632824739e-02 7.880870513054987896e+02
2.548324461648326933e-02 7.887598157841391640e+02
2.644487648663829821e-02 7.877876467568614771e+02
2.740650835679332709e-02 7.883466195024946046e+02
2.836814022694834903e-02 7.856222050286853573e+02
2.932977209710337443e-02 7.827680102709753100e+02
3.029140396725839637e-02 7.754391518938366517e+02
3.125303583741342178e-02 7.700706389453878273e+02
3.221466770756845066e-02 7.672992903534188827e+02
3.317629957772347260e-02 7.582650221066049880e+02
3.413793144787850148e-02 7.548225167478150297e+02
3.509956331803352342e-02 7.472440339306865553e+02
3.606119518818855230e-02 7.403712906660633735e+02
3.702282705834358117e-02 7.316733896832118944e+02
3.798445892849860311e-02 7.235371012738876288e+02
3.894609079865363199e-02 7.172332499104687713e+02
3.990772266880865393e-02 7.104726766253050982e+02
4.086935453896367587e-02 6.991475185488334319e+02
4.183098640911870475e-02 6.875002439179904741e+02
4.279261827927372669e-02 6.797162408463871088e+02
4.375425014942875557e-02 6.669155111234570086e+02
4.471588201958377751e-02 6.554687915473405155e+02
4.567751388973880639e-02 6.442000719221027794e+02
4.663914575989382832e-02 6.348964922950357277e+02
4.760077763004885720e-02 6.255564641707969713e+02
4.856240950020387914e-02 6.140682388154683622e+02
4.952404137035890108e-02 6.012480702965583532e+02
5.048567324051392302e-02 5.897801210638979228e+02
5.144730511066895190e-02 5.783908326986638713e+02
5.240893698082397384e-02 5.676875956580521461e+02
5.337056885097899578e-02 5.536769941061593272e+02
5.433220072113403160e-02 5.395192599120329078e+02
5.529383259128905354e-02 5.266438218461934184e+02
5.625546446144407547e-02 5.146080978033423889e+02
5.721709633159910435e-02 4.982565578173490621e+02
5.817872820175412629e-02 4.831658853934274021e+02
5.914036007190914823e-02 4.701407217129865899e+02
6.010199194206417017e-02 4.596269270362636803e+02
6.106362381221920599e-02 4.458219112840000093e+02
6.202525568237422793e-02 4.327283694963467724e+02
6.298688755252924987e-02 4.183110426615435813e+02
6.394851942268428568e-02 4.047328678116003289e+02
6.491015129283930762e-02 3.933195150980408812e+02
6.587178316299432956e-02 3.834218300960087618e+02
6.683341503314935150e-02 3.705956820480969895e+02
6.779504690330438732e-02 3.579862578082554592e+02
6.875667877345940926e-02 3.452656700373726721e+02
6.971831064361443120e-02 3.328304613030001065e+02
7.067994251376945314e-02 3.209396174615249606e+02
7.164157438392447508e-02 3.114043854217748617e+02
7.260320625407949702e-02 2.995398775841993029e+02
7.356483812423453283e-02 2.881855241571062152e+02
7.452646999438955477e-02 2.770607875381699614e+02
7.548810186454457671e-02 2.671418781577441450e+02
7.644973373469959865e-02 2.560330092437395137e+02
7.741136560485463447e-02 2.478930184406338810e+02
7.837299747500965641e-02 2.374130467666844595e+02
7.933462934516467835e-02 2.272398963364853444e+02
8.029626121531971417e-02 2.169399927492203233e+02
8.125789308547473611e-02 2.075921135752797113e+02
8.221952495562975805e-02 1.973482181685925525e+02
8.318115682578479386e-02 1.888904296193152561e+02
8.414278869593981580e-02 1.811213829667453865e+02
8.510442056609483774e-02 1.720478531099094255e+02
8.606605243624985968e-02 1.641296473490460528e+02
8.702768430640489550e-02 1.565410665987182597e+02
8.798931617655991744e-02 1.489213343178781770e+02
8.895094804671493938e-02 1.409267996505822680e+02
8.991257991686996132e-02 1.329233606219976593e+02
9.087421178702498326e-02 1.258107190593173499e+02
9.183584365718000520e-02 1.191461433693846885e+02
9.279747552733502713e-02 1.128726693115769990e+02
9.375910739749006295e-02 1.072223933359353936e+02
9.472073926764508489e-02 1.002945249140561259e+02
9.568237113780010683e-02 9.380689532948363762e+01
9.664400300795514265e-02 8.886896302050550389e+01
9.760563487811016459e-02 8.390169041876666256e+01
9.856726674826518653e-02 7.857988255820765744e+01
9.952889861842022234e-02 7.375851851679433935e+01
1.004905304885752443e-01 6.903301018785943199e+01
1.014521623587302801e-01 6.400736891346970481e+01
1.024137942288853020e-01 6.006301895455966644e+01
1.033754260990403240e-01 5.639693017793016594e+01
1.043370579691953459e-01 5.189236726518626597e+01
1.052986898393503817e-01 4.800915340079598082e+01
1.062603217095053898e-01 4.450538816484347393e+01
1.072219535796604256e-01 4.132346276736166146e+01
1.081835854498154614e-01 3.788189413166961117e+01
1.091452173199704695e-01 3.464271728287059204e+01
1.101068491901255053e-01 3.144146084206006719e+01
1.110684810602805411e-01 2.890253551789611564e+01
1.120301129304355492e-01 2.635449831448869062e+01
1.129917448005905850e-01 2.405089262265800798e+01
1.139533766707456208e-01 2.227049525537255548e+01
1.149150085409006289e-01 2.023048694009787596e+01
1.158766404110556647e-01 1.821228173440560383e+01
1.168382722812106728e-01 1.619218989364047445e+01
1.177999041513657086e-01 1.444394793885426509e+01
1.187615360215207305e-01 1.268209158147521620e+01
1.197231678916757525e-01 1.133622542105961628e+01
1.206847997618307744e-01 1.052493310757510514e+01
1.216464316319858102e-01 9.738491397358544077e+00
1.226080635021408183e-01 8.145529919088975390e+00
1.235696953722958541e-01 7.029545472214280721e+00
1.245313272424508899e-01 6.066010808897353002e+00
1.254929591126059119e-01 4.785624307706800806e+00
1.264545909827609338e-01 4.227758586922274020e+00
1.274162228529159557e-01 3.636081417457894815e+00
1.283778547230709777e-01 3.464252216352285529e+00
1.293394865932259996e-01 3.118654759251203501e+00
1.303011184633810493e-01 2.548062472128734157e+00
1.312627503335360435e-01 1.926746062470929388e+00
1.322243822036910932e-01 1.881213015711871606e+00
1.331860140738460874e-01 1.858305133946156928e+00
1.341476459440011371e-01 1.381529678021916396e+00
1.351092778141561590e-01 1.148440879870509690e+00
1.360709096843111809e-01 1.449696242507553023e+00
1.370325415544662029e-01 1.506587218835115038e+00
1.379941734246212526e-01 1.307337512234905574e+00
1.389558052947762468e-01 1.602737805634937729e+00
1.399174371649312965e-01 1.654276438555175588e+00
1.408790690350863184e-01 1.620644507069446405e+00
1.418407009052413403e-01 1.803801742442008305e+00
1.428023327753963623e-01 1.940356794564941367e+00
1.437639646455513842e-01 2.033719586815486480e+00
1.447255965157064062e-01 2.142236854282465686e+00
1.456872283858614281e-01 2.247966106674780917e+00
1.466488602560164778e-01 2.287046955576826690e+00
1.476104921261714720e-01 2.426457161539794072e+00
1.485721239963265217e-01 2.897762471214701208e+00
1.495337558664815436e-01 3.241168148370590529e+00
1.504953877366365655e-01 3.713076357332752764e+00
1.514570196067915875e-01 3.917224212787854043e+00
1.524186514769466094e-01 4.033075727562188462e+00
1.533802833471016314e-01 4.555808872825192424e+00
1.543419152172566811e-01 4.492585051156993359e+00
1.553035470874116752e-01 4.753380319792089637e+00
1.562651789575667249e-01 5.088016701330950298e+00
1.572268108277217469e-01 4.847006502829199093e+00
1.581884426978767688e-01 5.235006831126042925e+00
1.591500745680317908e-01 5.381973376241464990e+00
1.601117064381868405e-01 5.415331405763506467e+00
1.610733383083418346e-01 5.971795376844159620e+00
1.620349701784968843e-01 6.191060945783522840e+00
1.629966020486519063e-01 6.247841326456907041e+00
1.639582339188069282e-01 6.394276467507044259e+00
1.649198657889619501e-01 6.593267875108782761e+00
1.658814976591169721e-01 6.541778223421097493e+00
1.668431295292719940e-01 6.730442127234226746e+00
1.678047613994270160e-01 6.597326869759257306e+00
1.687663932695820379e-01 6.517846797763638733e+00
1.697280251397370598e-01 6.968168315610302699e+00
1.706896570098921095e-01 6.858802407465962148e+00
1.716512888800471037e-01 7.157132273764425179e+00
1.726129207502021534e-01 7.379739731341221187e+00
1.735745526203571754e-01 7.105353771398501550e+00
1.745361844905121973e-01 6.881579059728235137e+00
1.754978163606672192e-01 6.694682022084503359e+00
1.764594482308222689e-01 6.850841608374363290e+00
1.774210801009772631e-01 6.762144637586960272e+00
1.783827119711323128e-01 6.484588380755607062e+00
1.793443438412873348e-01 6.572433523422262169e+00
1.803059757114423567e-01 6.690843550838888376e+00
1.812676075815973786e-01 6.762199358505228020e+00
1.822292394517524006e-01 6.498539662649800874e+00
1.831908713219074225e-01 6.379972341604588593e+00
1.841525031920624444e-01 6.239832526800785928e+00
1.851141350622174664e-01 6.075204041533169175e+00
1.860757669323724883e-01 5.771382011085346875e+00
1.870373988025275380e-01 5.992682438698388125e+00
1.879990306726825322e-01 6.027391684799912497e+00
1.889606625428375819e-01 5.894616259062011920e+00
1.899222944129926038e-01 5.601195242586292977e+00
1.908839262831476258e-01 5.490876707635646170e+00
1.918455581533026477e-01 5.159153168974548009e+00
1.928071900234576974e-01 4.690890516474272687e+00
1.937688218936126916e-01 4.297014706457726874e+00
1.947304537637677413e-01 4.393542267657164047e+00
1.956920856339227632e-01 4.252199904585136636e+00
1.966537175040777852e-01 3.890963450607003438e+00
1.976153493742328071e-01 3.780239868807409920e+00
1.985769812443878291e-01 3.863230044298095578e+00
1.995386131145428510e-01 3.916833073872865612e+00
2.005002449846978729e-01 3.357650996087535589e+00
2.014618768548528949e-01 3.138947558447988229e+00
2.024235087250079168e-01 3.227300209531492214e+00
2.033851405951629665e-01 3.079966927458290371e+00
2.043467724653179884e-01 2.841600262794393927e+00
2.053084043354730381e-01 2.558790197828702873e+00
2.062700362056280046e-01 2.527040010557243477e+00
2.072316680757830543e-01 2.168643013011280374e+00
2.081932999459380762e-01 2.262047603316716504e+00
2.091549318160931259e-01 2.213563361949947961e+00
2.101165636862481478e-01 2.120439685688939591e+00
2.110781955564031698e-01 1.707723466892197450e+00
2.120398274265581640e-01 1.358813497826915295e+00
2.130014592967132137e-01 1.386019503725169244e+00
2.139630911668682356e-01 1.132035385541225736e+00
2.149247230370232575e-01 1.147104919353768793e+00
2.158863549071783072e-01 1.513764574769449922e+00
2.168479867773333014e-01 1.256133339139566374e+00
2.178096186474883234e-01 1.080744531433353472e+00
2.187712505176433453e-01 8.141965336461431946e-01
2.197328823877983950e-01 8.892476980193393388e-01
2.206945142579534169e-01 6.844398633020283285e-01
2.216561461281084666e-01 8.778921260764995793e-01
2.226177779982634330e-01 8.968012028090939225e-01
2.235794098684184827e-01 5.297588082467044046e-01
2.245410417385735047e-01 5.277163887761169292e-01
2.255026736087285544e-01 3.460779422191784249e-01
2.264643054788835763e-01 3.921639774238165899e-01
2.274259373490385983e-01 1.431526735174308840e-01
2.283875692191935924e-01 3.517772569172947783e-01
2.293492010893486421e-01 4.440135007066352557e-01
2.303108329595036641e-01 2.525735457839921594e-01
2.312724648296586860e-01 3.423672838103719585e-01
2.322340966998137357e-01 4.631738389621204988e-01
2.331957285699687299e-01 4.684912320865386448e-01
2.341573604401237518e-01 2.353821371052191580e-01
2.351189923102787738e-01 1.937545973992840231e-01
2.360806241804338235e-01 1.506341025284534396e-01
2.370422560505888454e-01 2.175549427150862414e-01
2.380038879207438951e-01 3.133609026879220494e-01
2.389655197908988615e-01 1.948036700679800504e-01
2.399271516610539112e-01 2.293705409441990639e-01
2.408887835312089332e-01 2.973700493554218838e-01
2.418504154013639829e-01 2.847759267773213310e-01
2.428120472715190048e-01 1.478615054173531007e-01
2.437736791416740267e-01 4.666610528515029443e-01
2.447353110118290209e-01 6.457214837828253451e-01
2.456969428819840706e-01 4.904213972447166725e-01
2.466585747521390926e-01 4.240996548736077898e-01
2.476202066222941145e-01 4.571252502783735849e-01
2.485818384924491642e-01 5.125614637149844555e-01
2.495434703626041584e-01 7.363118149629706011e-01
2.505051022327591803e-01 5.715119389832992169e-01
2.514667341029142023e-01 4.773160185744309558e-01
2.524283659730692242e-01 4.543641023961271230e-01
2.533899978432243016e-01 6.520497375664717765e-01
2.543516297133793236e-01 7.003840797060298939e-01
2.553132615835342900e-01 8.318851680215502142e-01
2.562748934536893120e-01 7.182841457646844674e-01
2.572365253238443894e-01 8.621702203388181829e-01
2.581981571939994113e-01 9.862723955198831050e-01
2.591597890641544333e-01 1.053865521183002585e+00
2.601214209343094552e-01 8.446397485780430259e-01
2.610830528044644772e-01 9.677665060996005764e-01
2.620446846746194991e-01 1.012140887768993025e+00
2.630063165447745210e-01 1.024475984842901255e+00
2.639679484149295430e-01 8.867331597792933451e-01
2.649295802850845649e-01 9.659927157793291030e-01
2.658912121552395869e-01 9.571461870045716580e-01
2.668528440253946088e-01 1.022710037436549868e+00
2.678144758955496307e-01 1.057702032116402791e+00
2.687761077657046527e-01 1.118004580366488199e+00
2.697377396358597301e-01 1.009708823061792771e+00
2.706993715060147521e-01 9.566203539399431577e-01
2.716610033761697185e-01 1.067069173406125060e+00
2.726226352463247404e-01 1.107224196848530795e+00
2.735842671164798179e-01 9.859464282414123204e-01
2.745458989866348398e-01 1.015930614292816614e+00
2.755075308567898618e-01 1.048555899922259727e+00
2.764691627269448837e-01 1.058548511152128668e+00
2.774307945970999056e-01 7.978308054267095883e-01
2.783924264672549276e-01 1.046733256211062724e+00
2.793540583374099495e-01 8.760863913043728246e-01
2.803156902075649715e-01 6.062514534662248877e-01
2.812773220777199934e-01 6.489653008067861606e-01
2.822389539478750153e-01 8.442699815896830273e-01
2.832005858180300373e-01 1.050804316161944030e+00
2.841622176881850592e-01 1.049231087865855727e+00
2.851238495583400812e-01 7.903203572139680944e-01
2.860854814284951586e-01 6.050221158121544818e-01
2.870471132986501805e-01 7.139476737037391274e-01
2.880087451688051470e-01 7.863842089174291061e-01
2.889703770389601689e-01 6.559747062657237393e-01
2.899320089091152464e-01 8.066661596105326737e-01
2.908936407792702683e-01 9.882792970540492661e-01
2.918552726494252902e-01 1.072066060782074004e+00
2.928169045195803122e-01 9.433104591902257141e-01
2.937785363897353341e-01 7.815226618248232171e-01
2.947401682598903561e-01 6.344443138221258494e-01
2.957018001300453780e-01 7.019411585175454604e-01
2.966634320002003999e-01 7.368927141726686614e-01
2.976250638703554219e-01 6.345593315383233346e-01
2.985866957405104993e-01 5.206398150381588152e-01
2.995483276106654658e-01 7.182641278618611125e-01
3.005099594808204877e-01 8.192036732969896207e-01
3.014715913509755651e-01 6.680599458376264010e-01
3.024332232211305871e-01 5.401422109897389134e-01
3.033948550912856090e-01 4.314072065613601126e-01
3.043564869614405755e-01 4.514552347133502508e-01
3.053181188315956529e-01 4.108847945064155738e-01
3.062797507017506748e-01 4.676736072265867961e-01
3.072413825719056968e-01 7.301642992470895877e-01
3.082030144420607187e-01 6.098592587189060055e-01
3.091646463122157407e-01 3.633851245396790830e-01
3.101262781823707626e-01 5.154291324297908261e-01
3.110879100525257845e-01 1.717570365642018260e-01
3.120495419226808065e-01 2.382052138219243886e-01
3.130111737928358284e-01 2.177322100673606542e-01
3.139728056629909059e-01 2.418300327918885273e-01
3.149344375331459278e-01 3.187675168493129263e-01
3.158960694033008942e-01 1.082874351028024762e-01
3.168577012734559162e-01 1.636824677402159978e-01
3.178193331436109936e-01 2.250203024337018576e-01
3.187809650137660156e-01 1.877998134880094483e-01
3.197425968839210375e-01 3.747891645661987070e-01
3.207042287540760039e-01 2.582384048078623096e-01
3.216658606242310814e-01 1.214221666388972665e-01
3.226274924943861033e-01 1.581269492840924329e-01
3.235891243645411253e-01 0.000000000000000000e+00
3.245507562346961472e-01 6.293620445685377263e-02
3.255123881048511691e-01 2.105121256585427147e-01
3.264740199750061911e-01 2.281927350586201442e-01
3.274356518451612130e-01 1.835897142025935125e-01
3.283972837153162350e-01 2.049846793875538253e-01
3.293589155854712569e-01 1.764578540265446804e-01
3.303205474556263344e-01 4.724624721386661008e-02
3.312821793257813563e-01 2.061965767904894165e-02
3.322438111959363227e-01 2.442443997946348588e-01
3.332054430660913447e-01 4.545697584482226716e-01
3.341670749362464221e-01 4.743308584203766998e-01
3.351287068064014441e-01 2.452758784132669234e-01
3.360903386765564660e-01 1.336967462995630740e-01
3.370519705467114324e-01 1.495677289520784825e-01
3.380136024168665099e-01 2.157561187722301099e-01
3.389752342870215318e-01 4.128555863477529897e-01
3.399368661571765537e-01 3.231989324662265517e-01
3.408984980273315757e-01 3.918263251709639405e-01
3.418601298974865976e-01 3.485273028494866310e-01
3.428217617676416196e-01 3.162837207963917763e-01
3.437833936377966415e-01 3.128593933198260402e-01
3.447450255079516634e-01 1.959160301980205077e-01
3.457066573781066854e-01 2.598076976464511745e-01
3.466682892482617628e-01 2.945369279552352282e-01
3.476299211184167848e-01 1.669386137262840464e-01
3.485915529885717512e-01 1.916593882904749080e-01
3.495531848587267731e-01 3.142572401669987414e-01
3.505148167288818506e-01 4.548461122132323453e-01
3.514764485990368725e-01 2.318839864588824184e-01
3.524380804691918945e-01 1.029962542202582654e-01
3.533997123393468609e-01 1.116197474478148877e-01
3.543613442095019384e-01 4.998787120266783290e-01
3.553229760796569603e-01 2.997367740281404735e-01
3.562846079498119822e-01 3.917489346440028442e-01
3.572462398199670042e-01 4.953942510882853867e-01
3.582078716901220261e-01 4.245874323166205500e-01
3.591695035602770480e-01 4.173697812420833486e-01
3.601311354304320700e-01 3.720966229804893999e-01
3.610927673005870919e-01 3.970241778722858328e-01
3.620543991707421139e-01 3.269640292785993552e-01
3.630160310408971913e-01 1.636545924327990065e-01
3.639776629110522133e-01 8.561805865018712325e-02
3.649392947812071797e-01 4.455204334509623720e-01
3.659009266513622016e-01 4.495963104095785923e-01
3.668625585215172791e-01 4.272922035751740566e-01
3.678241903916723010e-01 5.290463461990277949e-01
3.687858222618273230e-01 5.646622738105193662e-01
3.697474541319822894e-01 4.656905901724890384e-01
3.707090860021373668e-01 4.364281183501113048e-01
3.716707178722923888e-01 4.663138432117399645e-01
3.726323497424474107e-01 3.567928099736157321e-01
3.735939816126024327e-01 2.074621636288682680e-01
3.745556134827574546e-01 2.776156820800217417e-01
3.755172453529124765e-01 3.281753067676653757e-01
3.764788772230674985e-01 4.271133813824263825e-01
3.774405090932225204e-01 4.221090073536686305e-01
3.784021409633775423e-01 3.657426853954817147e-01
3.793637728335326198e-01 4.650901707194670109e-01
3.803254047036876417e-01 4.005816496973295671e-01
3.812870365738426082e-01 3.062228018544033148e-01
3.822486684439976301e-01 3.905146191739170547e-01
3.832103003141527076e-01 2.304108139969933688e-01
3.841719321843077295e-01 1.823465591936752617e-01
3.851335640544627514e-01 3.894218301165359719e-01
3.860951959246177734e-01 4.469761814504771280e-01
3.870568277947727953e-01 3.151375056787379947e-01
3.880184596649278173e-01 1.670055718635126141e-01
3.889800915350828392e-01 1.456592423301792394e-01
3.899417234052378611e-01 3.816446806821822690e-01
3.909033552753928831e-01 5.049739309019436462e-01
3.918649871455479050e-01 4.915192811164565967e-01
3.928266190157029270e-01 4.419223620827992249e-01
3.937882508858579489e-01 4.251535455157906540e-01
3.947498827560129708e-01 2.933231877986521852e-01
3.957115146261680483e-01 2.352803551414872629e-01
3.966731464963230702e-01 1.841156053790378166e-01
3.976347783664780366e-01 1.781725093500021728e-01
3.985964102366330586e-01 2.873965934462106020e-01
3.995580421067881360e-01 3.980834157193839928e-01
4.005196739769430470e-01 1.836582754704245701e-01
4.014813058470981244e-01 1.053618064234100871e-01
4.024429377172531463e-01 8.371544296660715645e-02
4.034045695874082238e-01 2.417615071807226457e-01
