# q (1/Angstrom), Intensity (arb)
2.067508526570814575e-02 7.157805951928974082e+02
2.163671713586316769e-02 7.452417180757371398e+02
2.259834900601819310e-02 7.732698349613008304e+02
2.355998087617321851e-02 7.866453456059103928e+02
2.452161274632824739e-02 7.908630422429542932e+02
2.548324461648326933e-02 7.909126825429287919e+02
2.644487648663829821e-02 7.887364876187045866e+02
2.740650835679332709e-02 7.853343155583343105e+02
2.836814022694834903e-02 7.805620181256665546e+02
2.932977209710337443e-02 7.761344748402224241e+02
3.029140396725839637e-02 7.740820533792976903e+02
3.125303583741342178e-02 7.686208872279684101e+02
3.221466770756845066e-02 7.621646011460860564e+02
3.317629957772347260e-02 7.563442871912301371e+02
3.413793144787850148e-02 7.508972929712093674e+02
3.509956331803352342e-02 7.437207901665163945e+02
3.606119518818855230e-02 7.406849916343645646e+02
3.702282705834358117e-02 7.350171193909736758e+02
3.798445892849860311e-02 7.250715927536792833e+02
3.894609079865363199e-02 7.162552429977741895e+02
3.990772266880865393e-02 7.067344552955100880e+02
4.086935453896367587e-02 6.953110308854311370e+02
4.183098640911870475e-02 6.872838567484058103e+02
4.279261827927372669e-02 6.802536318062866485e+02
4.375425014942875557e-02 6.694056099899270293e+02
4.471588201958377751e-02 6.552213033484292737e+02
4.567751388973880639e-02 6.461856543024956636e+02
4.663914575989382832e-02 6.326158216126289062e+02
4.760077763004885720e-02 6.189051618756213884e+02
4.856240950020387914e-02 6.095160498370697724e+02
4.952404137035890108e-02 5.977672385486960138e+02
5.048567324051392302e-02 5.875795628400475152e+02
5.144730511066895190e-02 5.774863242707114068e+02
5.240893698082397384e-02 5.638734272241990766e+02
5.337056885097899578e-02 5.495008454280397245e+02
5.433220072113403160e-02 5.344184250634817772e+02
5.529383259128905354e-02 5.236126425789614132e+02
5.625546446144407547e-02 5.097405757488131144e+02
5.721709633159910435e-02 4.967907575010037817e+02
5.817872820175412629e-02 4.853016800195057385e+02
5.914036007190914823e-02 4.719662941054835983e+02
6.010199194206417017e-02 4.574997181322497681e+02
6.106362381221920599e-02 4.442243191398458748e+02
6.202525568237422793e-02 4.313848675434885536e+02
6.298688755252924987e-02 4.180374381930913046e+02
6.394851942268428568e-02 4.058737834649207343e+02
6.491015129283930762e-02 3.924262308788629525e+02
6.587178316299432956e-02 3.802239256825396296e+02
6.683341503314935150e-02 3.675040969258934638e+02
6.779504690330438732e-02 3.556750561792541703e+02
6.875667877345940926e-02 3.433706387881227897e+02
6.971831064361443120e-02 3.310760596370102462e+02
7.067994251376945314e-02 3.205598665282063848e+02
7.164157438392447508e-02 3.097764956760062773e+02
7.260320625407949702e-02 2.981414245799133482e+02
7.356483812423453283e-02 2.853256104376167173e+02
7.452646999438955477e-02 2.746589299939749935e+02
7.548810186454457671e-02 2.653175414658410318e+02
7.644973373469959865e-02 2.556185715705420876e+02
7.741136560485463447e-02 2.446412372940399393e+02
7.837299747500965641e-02 2.346730636443536753e+02
7.933462934516467835e-02 2.253808590244055949e+02
8.029626121531971417e-02 2.167812804196111927e+02
8.125789308547473611e-02 2.071753973738876766e+02
8.221952495562975805e-02 1.982183013432009773e+02
8.318115682578479386e-02 1.886788905752353855e+02
8.414278869593981580e-02 1.800630019408745284e+02
8.510442056609483774e-02 1.710995263238275470e+02
8.606605243624985968e-02 1.627914199030780367e+02
8.702768430640489550e-02 1.554558223520788829e+02
8.798931617655991744e-02 1.480142355081981407e+02
8.895094804671493938e-02 1.393500730845827320e+02
8.991257991686996132e-02 1.318132990682436514e+02
9.087421178702498326e-02 1.256566066358399212e+02
9.183584365718000520e-02 1.198507434322553138e+02
9.279747552733502713e-02 1.133554428160983747e+02
9.375910739749006295e-02 1.068911024685531288e+02
9.472073926764508489e-02 1.003095444083333803e+02
9.568237113780010683e-02 9.430674133478517263e+01
9.664400300795514265e-02 8.870011367895548915e+01
9.760563487811016459e-02 8.311731217190575194e+01
9.856726674826518653e-02 7.787264570846720346e+01
9.952889861842022234e-02 7.359187344479425974e+01
1.004905304885752443e-01 6.913321756524635475e+01
1.014521623587302801e-01 6.502162310220693087e+01
1.024137942288853020e-01 5.990207485456203784e+01
1.033754260990403240e-01 5.517285284079603258e+01
1.043370579691953459e-01 5.152336449514987038e+01
1.052986898393503817e-01 4.787898502324138406e+01
1.062603217095053898e-01 4.464275375492584885e+01
1.072219535796604256e-01 4.109781459103394496e+01
1.081835854498154614e-01 3.819507373030975117e+01
1.091452173199704695e-01 3.536821874023320333e+01
1.101068491901255053e-01 3.170138264939825135e+01
1.110684810602805411e-01 2.891759909598372857e+01
1.120301129304355492e-01 2.643841059646607050e+01
1.129917448005905850e-01 2.451860864814619134e+01
1.139533766707456208e-01 2.207811545803975406e+01
1.149150085409006289e-01 2.013820769242679631e+01
1.158766404110556647e-01 1.802895806058115369e+01
1.168382722812106728e-01 1.622685911732409636e+01
1.177999041513657086e-01 1.456008285857707207e+01
1.187615360215207305e-01 1.309392414359581025e+01
1.197231678916757525e-01 1.212658518785028505e+01
1.206847997618307744e-01 1.032948009208005047e+01
1.216464316319858102e-01 8.913437991273241323e+00
1.226080635021408183e-01 8.131372645148179146e+00
1.235696953722958541e-01 7.372470039999960534e+00
1.245313272424508899e-01 6.436075572530601363e+00
1.254929591126059119e-01 5.583168924553959300e+00
1.264545909827609338e-01 4.757030315925629083e+00
1.274162228529159557e-01 4.656736485930970559e+00
1.283778547230709777e-01 4.228793666217189440e+00
1.293394865932259996e-01 3.352266294108968481e+00
1.303011184633810493e-01 2.939098564364577726e+00
1.312627503335360435e-01 2.583970587125300256e+00
1.322243822036910932e-01 2.232190775417706163e+00
1.331860140738460874e-01 1.982011629904082639e+00
1.341476459440011371e-01 1.924065874398092291e+00
1.351092778141561590e-01 1.681021542505529709e+00
1.360709096843111809e-01 1.654850970773637187e+00
1.370325415544662029e-01 1.703371508145430369e+00
1.379941734246212526e-01 1.500517753815678645e+00
1.389558052947762468e-01 1.432771069903392203e+00
1.399174371649312965e-01 1.816475139750224344e+00
1.408790690350863184e-01 1.812155521296972438e+00
1.418407009052413403e-01 2.010225419035940320e+00
1.428023327753963623e-01 2.314472980879791919e+00
1.437639646455513842e-01 2.434219328801955129e+00
1.447255965157064062e-01 2.539887385100108474e+00
1.456872283858614281e-01 2.665168231284830824e+00
1.466488602560164778e-01 2.996031947180622268e+00
1.476104921261714720e-01 3.426428777006073290e+00
1.485721239963265217e-01 3.673725640022357908e+00
1.495337558664815436e-01 3.863761088061178128e+00
1.504953877366365655e-01 4.137850008322022433e+00
1.514570196067915875e-01 4.157791964526467154e+00
1.524186514769466094e-01 4.304387676764314108e+00
1.533802833471016314e-01 4.972723270012668451e+00
1.543419152172566811e-01 5.210824055945348476e+00
1.553035470874116752e-01 5.192246127128644417e+00
1.562651789575667249e-01 5.198638365864695743e+00
1.572268108277217469e-01 5.291513520027358197e+00
1.581884426978767688e-01 5.622141269019998333e+00
1.591500745680317908e-01 5.838756525360981442e+00
1.601117064381868405e-01 6.573803183336657696e+00
1.610733383083418346e-01 6.431907130814909834e+00
1.620349701784968843e-01 6.330246298486397194e+00
1.629966020486519063e-01 6.277625991997496158e+00
1.639582339188069282e-01 6.653058157824339958e+00
1.649198657889619501e-01 6.963686220739411681e+00
1.658814976591169721e-01 7.036756660579943201e+00
1.668431295292719940e-01 7.153489141235429116e+00
1.678047613994270160e-01 7.185990448985361212e+00
1.687663932695820379e-01 7.776053028204493955e+00
1.697280251397370598e-01 7.876329973952064023e+00
1.706896570098921095e-01 7.528588068129046462e+00
1.716512888800471037e-01 7.529834453687978879e+00
1.726129207502021534e-01 7.406603780441777474e+00
1.735745526203571754e-01 7.558365222712602360e+00
1.745361844905121973e-01 7.454038358104515538e+00
1.754978163606672192e-01 7.513267052786908096e+00
1.764594482308222689e-01 7.465775265201390454e+00
1.774210801009772631e-01 7.518682545517421545e+00
1.783827119711323128e-01 7.197548238565257606e+00
1.793443438412873348e-01 7.182408281952884721e+00
1.803059757114423567e-01 7.022017959906325046e+00
1.812676075815973786e-01 6.932086881864503169e+00
1.822292394517524006e-01 6.813244581996375615e+00
1.831908713219074225e-01 6.658699423540042517e+00
1.841525031920624444e-01 6.466228004618109537e+00
1.851141350622174664e-01 6.376977840183915447e+00
1.860757669323724883e-01 6.285949665283048660e+00
1.870373988025275380e-01 6.230609655221208243e+00
1.879990306726825322e-01 6.064827658805654664e+00
1.889606625428375819e-01 5.980806094902387571e+00
1.899222944129926038e-01 5.905072606742987062e+00
1.908839262831476258e-01 5.891885415620517819e+00
1.918455581533026477e-01 5.542933568800236799e+00
1.928071900234576974e-01 5.412351007033716854e+00
1.937688218936126916e-01 5.489182045353590667e+00
1.947304537637677413e-01 4.963517325586657591e+00
1.956920856339227632e-01 4.638531710611889736e+00
1.966537175040777852e-01 4.286374609012895576e+00
1.976153493742328071e-01 4.160358817225397132e+00
1.985769812443878291e-01 4.055832671565454461e+00
1.995386131145428510e-01 4.366311624063250463e+00
2.005002449846978729e-01 4.333816877166373871e+00
2.014618768548528949e-01 4.001312501502177099e+00
2.024235087250079168e-01 3.613839444355253505e+00
2.033851405951629665e-01 3.299869049385737441e+00
2.043467724653179884e-01 3.282138583974468560e+00
2.053084043354730381e-01 3.071157191133451647e+00
2.062700362056280046e-01 2.842657440012779091e+00
2.072316680757830543e-01 2.650443351786993418e+00
2.081932999459380762e-01 2.570547491994823019e+00
2.091549318160931259e-01 2.475499143668276503e+00
2.101165636862481478e-01 2.243687848061707513e+00
2.110781955564031698e-01 1.893166772682377541e+00
2.120398274265581640e-01 1.949168592074077111e+00
2.130014592967132137e-01 2.066045130528067375e+00
2.139630911668682356e-01 1.589432867842869967e+00
2.149247230370232575e-01 1.520733309566555391e+00
2.158863549071783072e-01 1.658558360710880919e+00
2.168479867773333014e-01 1.471941779451821475e+00
2.178096186474883234e-01 1.265857838118527923e+00
2.187712505176433453e-01 1.240132765833916295e+00
2.197328823877983950e-01 1.068648481802885186e+00
2.206945142579534169e-01 9.440766708886734193e-01
2.216561461281084666e-01 8.419947602375117413e-01
2.226177779982634330e-01 8.378706399570923224e-01
2.235794098684184827e-01 6.184295811703464096e-01
2.245410417385735047e-01 6.277619881233675869e-01
2.255026736087285544e-01 8.295924594624857207e-01
2.264643054788835763e-01 7.439378461813603849e-01
2.274259373490385983e-01 7.299722987595451684e-01
2.283875692191935924e-01 7.031546428456678655e-01
2.293492010893486421e-01 8.869806940487912073e-01
2.303108329595036641e-01 1.397210818851323921e+00
2.312724648296586860e-01 1.359372654299455974e+00
2.322340966998137357e-01 6.919402199853692537e-01
2.331957285699687299e-01 6.665778752148838748e-01
2.341573604401237518e-01 7.148160576731541482e-01
2.351189923102787738e-01 5.284889562014463138e-01
2.360806241804338235e-01 5.375408580604421616e-01
2.370422560505888454e-01 9.488183333552235865e-01
2.380038879207438951e-01 1.062550217005163944e+00
2.389655197908988615e-01 9.495864851478188484e-01
2.399271516610539112e-01 4.865076978262656837e-01
2.408887835312089332e-01 7.306731912722348454e-01
2.418504154013639829e-01 6.992123997568597815e-01
2.428120472715190048e-01 6.288384378644273909e-01
2.437736791416740267e-01 6.607861860211947658e-01
2.447353110118290209e-01 8.293316882445154192e-01
2.456969428819840706e-01 8.995917974143665674e-01
2.466585747521390926e-01 8.548742405581535309e-01
2.476202066222941145e-01 7.791569183899440532e-01
2.485818384924491642e-01 9.185278357533590565e-01
2.495434703626041584e-01 1.075171726457831767e+00
2.505051022327591803e-01 1.006189648061859288e+00
2.514667341029142023e-01 1.158568266106716038e+00
2.524283659730692242e-01 1.218765508538634634e+00
2.533899978432243016e-01 1.206907453910801564e+00
2.543516297133793236e-01 1.319767122139001714e+00
2.553132615835342900e-01 1.228007783817353982e+00
2.562748934536893120e-01 1.310888370774819123e+00
2.572365253238443894e-01 1.239648175477945813e+00
2.581981571939994113e-01 1.175120405386152811e+00
2.591597890641544333e-01 8.878067365144524103e-01
2.601214209343094552e-01 1.112508599889522998e+00
2.610830528044644772e-01 1.408161287425325980e+00
2.620446846746194991e-01 1.281341547136214842e+00
2.630063165447745210e-01 1.164683649075133332e+00
2.639679484149295430e-01 1.347047190470700428e+00
2.649295802850845649e-01 1.438938058055942548e+00
2.658912121552395869e-01 1.593025444919579314e+00
2.668528440253946088e-01 1.731641977186665571e+00
2.678144758955496307e-01 1.557920305586218745e+00
2.687761077657046527e-01 1.477064065778872504e+00
2.697377396358597301e-01 1.438075404766038901e+00
2.706993715060147521e-01 1.499855311419082682e+00
2.716610033761697185e-01 1.344743389420038682e+00
2.726226352463247404e-01 1.283035965664488742e+00
2.735842671164798179e-01 1.682181637001537666e+00
2.745458989866348398e-01 1.430643770717793473e+00
2.755075308567898618e-01 1.438745780255114681e+00
2.764691627269448837e-01 1.438329450337107573e+00
2.774307945970999056e-01 1.285970476213822877e+00
2.783924264672549276e-01 1.477180215357552839e+00
2.793540583374099495e-01 1.390587707533487816e+00
2.803156902075649715e-01 1.325309211825601352e+00
2.812773220777199934e-01 1.276115299079723542e+00
2.822389539478750153e-01 1.293492986757662777e+00
2.832005858180300373e-01 1.255810424901305566e+00
2.841622176881850592e-01 1.282625881871723550e+00
2.851238495583400812e-01 1.204707639911273276e+00
2.860854814284951586e-01 1.050789058306193624e+00
2.870471132986501805e-01 9.021241424100914230e-01
2.880087451688051470e-01 7.819845012935751072e-01
2.889703770389601689e-01 9.261956310464860564e-01
2.899320089091152464e-01 1.108443386487650173e+00
2.908936407792702683e-01 1.038144549913248227e+00
2.918552726494252902e-01 1.088876317095269997e+00
2.928169045195803122e-01 9.967474206932038783e-01
2.937785363897353341e-01 1.118486820843521912e+00
2.947401682598903561e-01 1.053645677875799436e+00
2.957018001300453780e-01 9.780874208441296958e-01
2.966634320002003999e-01 9.644063147764114774e-01
2.976250638703554219e-01 7.110809944144733663e-01
2.985866957405104993e-01 8.219993177369140369e-01
2.995483276106654658e-01 1.076862075653099993e+00
3.005099594808204877e-01 9.989584391960697474e-01
3.014715913509755651e-01 9.525381394289560433e-01
3.024332232211305871e-01 8.402503377948384866e-01
3.033948550912856090e-01 8.237296730688541402e-01
3.043564869614405755e-01 8.362508110751427637e-01
3.053181188315956529e-01 8.466883099892577036e-01
3.062797507017506748e-01 7.010193510753524038e-01
3.072413825719056968e-01 6.361933421190961724e-01
3.082030144420607187e-01 5.722523949797206910e-01
3.091646463122157407e-01 6.665907114862541505e-01
3.101262781823707626e-01 8.892150609086151292e-01
3.110879100525257845e-01 9.737085937038045813e-01
3.120495419226808065e-01 5.814455944457037617e-01
3.130111737928358284e-01 4.274301985931288073e-01
3.139728056629909059e-01 4.264981102353679887e-01
3.149344375331459278e-01 4.916137626113474823e-01
3.158960694033008942e-01 7.612590540028243424e-01
3.168577012734559162e-01 7.517725914658797137e-01
3.178193331436109936e-01 9.090538213142274060e-01
3.187809650137660156e-01 8.481268557129908459e-01
3.197425968839210375e-01 6.163549259591114549e-01
3.207042287540760039e-01 6.311313899057182653e-01
3.216658606242310814e-01 6.663119308722080802e-01
3.226274924943861033e-01 6.285940122993451951e-01
3.235891243645411253e-01 6.303911131058299588e-01
3.245507562346961472e-01 5.830007432593227179e-01
3.255123881048511691e-01 7.674973400435405324e-01
3.264740199750061911e-01 6.400661317056872690e-01
3.274356518451612130e-01 4.613929498574123045e-01
3.283972837153162350e-01 5.260703821350602993e-01
3.293589155854712569e-01 6.166855269456874566e-01
3.303205474556263344e-01 5.108365622862578448e-01
3.312821793257813563e-01 3.895679243849059503e-01
3.322438111959363227e-01 4.787819140155562536e-01
3.332054430660913447e-01 5.875308837770845116e-01
3.341670749362464221e-01 7.877886042190063165e-01
3.351287068064014441e-01 7.046534154032535469e-01
3.360903386765564660e-01 4.462045683949966701e-01
3.370519705467114324e-01 3.472796306671348532e-01
3.380136024168665099e-01 4.798353022736279172e-01
3.389752342870215318e-01 6.141448249098324652e-01
3.399368661571765537e-01 5.477762252975750812e-01
3.408984980273315757e-01 4.642151517008095141e-01
3.418601298974865976e-01 5.526041695281378452e-01
3.428217617676416196e-01 7.546411238955457179e-01
3.437833936377966415e-01 6.876937740900359586e-01
3.447450255079516634e-01 4.466564311613296923e-01
3.457066573781066854e-01 6.957861418525048691e-01
3.466682892482617628e-01 7.285926290855790910e-01
3.476299211184167848e-01 5.708316777768693839e-01
3.485915529885717512e-01 6.722729873969512937e-01
3.495531848587267731e-01 9.397359509823637325e-01
3.505148167288818506e-01 7.891981206281108996e-01
3.514764485990368725e-01 6.904057086309762781e-01
3.524380804691918945e-01 9.392934937895098813e-01
3.533997123393468609e-01 9.046037854375903464e-01
3.543613442095019384e-01 8.254071087329606371e-01
3.553229760796569603e-01 7.216766514354482354e-01
3.562846079498119822e-01 7.386953429739904209e-01
3.572462398199670042e-01 7.224765000370609869e-01
3.582078716901220261e-01 6.062796173509994446e-01
3.591695035602770480e-01 6.230899103595071153e-01
3.601311354304320700e-01 7.290799430564902650e-01
3.610927673005870919e-01 7.279647784403948663e-01
3.620543991707421139e-01 6.013181678285022258e-01
3.630160310408971913e-01 8.329153446500896507e-01
3.639776629110522133e-01 8.486394645813106763e-01
3.649392947812071797e-01 8.085484303137739914e-01
3.659009266513622016e-01 7.101956735556633760e-01
3.668625585215172791e-01 6.640680870768385091e-01
3.678241903916723010e-01 9.265212109329752366e-01
3.687858222618273230e-01 8.242061332492554016e-01
3.697474541319822894e-01 6.859931431058541307e-01
3.707090860021373668e-01 6.063999155537018737e-01
3.716707178722923888e-01 6.116335060185988937e-01
3.726323497424474107e-01 8.692758196788830105e-01
3.735939816126024327e-01 7.855384704303283172e-01
3.745556134827574546e-01 7.479239909767230188e-01
3.755172453529124765e-01 6.324663316039043082e-01
3.764788772230674985e-01 6.614408461605272294e-01
3.774405090932225204e-01 7.136148826027017833e-01
3.784021409633775423e-01 6.922312471919873644e-01
3.793637728335326198e-01 8.191668833456624554e-01
3.803254047036876417e-01 7.930857848092891516e-01
3.812870365738426082e-01 7.585449999518125708e-01
3.822486684439976301e-01 7.718240967094729399e-01
3.832103003141527076e-01 6.092869550284945035e-01
3.841719321843077295e-01 5.001537412832242069e-01
3.851335640544627514e-01 8.367936186872917403e-01
3.860951959246177734e-01 9.914730271294445174e-01
3.870568277947727953e-01 7.397054650367600459e-01
3.880184596649278173e-01 7.641292614016386153e-01
3.889800915350828392e-01 8.521019390445339070e-01
3.899417234052378611e-01 7.790947879476846083e-01
3.909033552753928831e-01 7.147284233343889071e-01
3.918649871455479050e-01 4.390228322081597412e-01
3.928266190157029270e-01 4.542431684951502291e-01
3.937882508858579489e-01 6.648981300235021763e-01
3.947498827560129708e-01 7.478814039127676949e-01
3.957115146261680483e-01 8.511675139117578226e-01
3.966731464963230702e-01 9.417791815188074622e-01
3.976347783664780366e-01 7.304650550295583855e-01
3.985964102366330586e-01 6.844161858383124297e-01
3.995580421067881360e-01 6.838374493585739344e-01
4.005196739769430470e-01 6.601484901177023801e-01
4.014813058470981244e-01 6.481681846841098604e-01
4.024429377172531463e-01 6.890624797116089439e-01
4.034045695874082238e-01 6.192913765523435643e-01
