# q (1/Angstrom), Intensity (arb)
2.067508526570814575e-02 7.118309704499898771e+02
2.163671713586316769e-02 7.469929259038556211e+02
2.259834900601819310e-02 7.736849902991722274e+02
2.355998087617321851e-02 7.844609655263444665e+02
2.452161274632824739e-02 7.902399214219177566e+02
2.548324461648326933e-02 7.971916338410029539e+02
2.644487648663829821e-02 7.957296389106204515e+02
2.740650835679332709e-02 7.912282629409701258e+02
2.836814022694834903e-02 7.873287236971743823e+02
2.932977209710337443e-02 7.801465295871081480e+02
3.029140396725839637e-02 7.738542197470119390e+02
3.125303583741342178e-02 7.692635214269699873e+02
3.221466770756845066e-02 7.627892871080772466e+02
3.317629957772347260e-02 7.553003255216542584e+02
3.413793144787850148e-02 7.486473444337916590e+02
3.509956331803352342e-02 7.427201257705762600e+02
3.606119518818855230e-02 7.396005255657295265e+02
3.702282705834358117e-02 7.297199631686523844e+02
3.798445892849860311e-02 7.212661134940569809e+02
3.894609079865363199e-02 7.139507118239771444e+02
3.990772266880865393e-02 7.079167668755682143e+02
4.086935453896367587e-02 6.964269765600745359e+02
4.183098640911870475e-02 6.866978452710917509e+02
4.279261827927372669e-02 6.786776599443580835e+02
4.375425014942875557e-02 6.680621276790875527e+02
4.471588201958377751e-02 6.534598501506380899e+02
4.567751388973880639e-02 6.420880580449065747e+02
4.663914575989382832e-02 6.314725633845032462e+02
4.760077763004885720e-02 6.234790481353094265e+02
4.856240950020387914e-02 6.113917099576116243e+02
4.952404137035890108e-02 5.971379308369389491e+02
5.048567324051392302e-02 5.848017103592940202e+02
5.144730511066895190e-02 5.753787916487348184e+02
5.240893698082397384e-02 5.630176193211774489e+02
5.337056885097899578e-02 5.485710129533597410e+02
5.433220072113403160e-02 5.344158324226300465e+02
5.529383259128905354e-02 5.228249502971884795e+02
5.625546446144407547e-02 5.100994260228424650e+02
5.721709633159910435e-02 4.956106132459530613e+02
5.817872820175412629e-02 4.804350767351028821e+02
5.914036007190914823e-02 4.674025834537951596e+02
6.010199194206417017e-02 4.538066047587907974e+02
6.106362381221920599e-02 4.409292089547798810e+02
6.202525568237422793e-02 4.301932259215100771e+02
6.298688755252924987e-02 4.170460303810478422e+02
6.394851942268428568e-02 4.036994748806060329e+02
6.491015129283930762e-02 3.902129044138421250e+02
6.587178316299432956e-02 3.778149153284497288e+02
6.683341503314935150e-02 3.659228684608624462e+02
6.779504690330438732e-02 3.554622091455945565e+02
6.875667877345940926e-02 3.423026329978221156e+02
6.971831064361443120e-02 3.304718044935800663e+02
7.067994251376945314e-02 3.177899857972614086e+02
7.164157438392447508e-02 3.070986816349462174e+02
7.260320625407949702e-02 2.966000411195090010e+02
7.356483812423453283e-02 2.864229067405314595e+02
7.452646999438955477e-02 2.745688702258180456e+02
7.548810186454457671e-02 2.636420787365781848e+02
7.644973373469959865e-02 2.540603785260717586e+02
7.741136560485463447e-02 2.447775540663204765e+02
7.837299747500965641e-02 2.336505610552321457e+02
7.933462934516467835e-02 2.235279491978578790e+02
8.029626121531971417e-02 2.140090467620563004e+02
8.125789308547473611e-02 2.050617058185939641e+02
8.221952495562975805e-02 1.954066639320834611e+02
8.318115682578479386e-02 1.866741439761688355e+02
8.414278869593981580e-02 1.787564630999126223e+02
8.510442056609483774e-02 1.700873797515822901e+02
8.606605243624985968e-02 1.624761243112453144e+02
8.702768430640489550e-02 1.543163475882662112e+02
8.798931617655991744e-02 1.462440527007496769e+02
8.895094804671493938e-02 1.395920588638214497e+02
8.991257991686996132e-02 1.328531990647592522e+02
9.087421178702498326e-02 1.257855659727828197e+02
9.183584365718000520e-02 1.190336288419894117e+02
9.279747552733502713e-02 1.123399004027168644e+02
9.375910739749006295e-02 1.062109182364522013e+02
9.472073926764508489e-02 9.991217568072661948e+01
9.568237113780010683e-02 9.343096189577212840e+01
9.664400300795514265e-02 8.737959777145609053e+01
9.760563487811016459e-02 8.215226246328145976e+01
9.856726674826518653e-02 7.700984241140102426e+01
9.952889861842022234e-02 7.227101816442834092e+01
1.004905304885752443e-01 6.807076745614790525e+01
1.014521623587302801e-01 6.372158727342326046e+01
1.024137942288853020e-01 5.896455281264825743e+01
1.033754260990403240e-01 5.463566799131061913e+01
1.043370579691953459e-01 5.074624735579682522e+01
1.052986898393503817e-01 4.727875790753900276e+01
1.062603217095053898e-01 4.440893843680470354e+01
1.072219535796604256e-01 4.101057301683904655e+01
1.081835854498154614e-01 3.742664929150366504e+01
1.091452173199704695e-01 3.433591024657502544e+01
1.101068491901255053e-01 3.186800395844019818e+01
1.110684810602805411e-01 2.913047887310207784e+01
1.120301129304355492e-01 2.637547265145264674e+01
1.129917448005905850e-01 2.363649776775913836e+01
1.139533766707456208e-01 2.151708595971011206e+01
1.149150085409006289e-01 1.984591961470662369e+01
1.158766404110556647e-01 1.772143504791726798e+01
1.168382722812106728e-01 1.593208337676276898e+01
1.177999041513657086e-01 1.416415110182834880e+01
1.187615360215207305e-01 1.263988191051146615e+01
1.197231678916757525e-01 1.144373422602635770e+01
1.206847997618307744e-01 9.994510652616384050e+00
1.216464316319858102e-01 8.494400573010317146e+00
1.226080635021408183e-01 7.448518945808253022e+00
1.235696953722958541e-01 6.912349573808910463e+00
1.245313272424508899e-01 5.950221705811927109e+00
1.254929591126059119e-01 5.247374270194281820e+00
1.264545909827609338e-01 4.277325866824249090e+00
1.274162228529159557e-01 4.033232349511408188e+00
1.283778547230709777e-01 3.519164803528259000e+00
1.293394865932259996e-01 2.744533267434778878e+00
1.303011184633810493e-01 2.308923017542632294e+00
1.312627503335360435e-01 2.304165795041825504e+00
1.322243822036910932e-01 2.031375343327816552e+00
1.331860140738460874e-01 1.703483261264736370e+00
1.341476459440011371e-01 1.565067524444017977e+00
1.351092778141561590e-01 1.467374186542460990e+00
1.360709096843111809e-01 1.543581482257224025e+00
1.370325415544662029e-01 1.385244359633688305e+00
1.379941734246212526e-01 1.303904205797305593e+00
1.389558052947762468e-01 1.405354495292861827e+00
1.399174371649312965e-01 1.690719030530445366e+00
1.408790690350863184e-01 1.758578814073448626e+00
1.418407009052413403e-01 1.694634405341169270e+00
1.428023327753963623e-01 1.955744835790792280e+00
1.437639646455513842e-01 2.225720389382157549e+00
1.447255965157064062e-01 2.646611963640779663e+00
1.456872283858614281e-01 2.752289725588372704e+00
1.466488602560164778e-01 3.014344113438209405e+00
1.476104921261714720e-01 3.361733988211888402e+00
1.485721239963265217e-01 3.258898928233154635e+00
1.495337558664815436e-01 3.410098436052898307e+00
1.504953877366365655e-01 3.475278301620381427e+00
1.514570196067915875e-01 4.103071530193421523e+00
1.524186514769466094e-01 4.468812543784146385e+00
1.533802833471016314e-01 4.246060238917145568e+00
1.543419152172566811e-01 4.448611009063881738e+00
1.553035470874116752e-01 4.581916219150276248e+00
1.562651789575667249e-01 4.993203353275223577e+00
1.572268108277217469e-01 5.162815297132702597e+00
1.581884426978767688e-01 5.426936226710090239e+00
1.591500745680317908e-01 5.483366890789678649e+00
1.601117064381868405e-01 5.959925919970611830e+00
1.610733383083418346e-01 6.386333437819295966e+00
1.620349701784968843e-01 6.355280372325747607e+00
1.629966020486519063e-01 6.407920011654198333e+00
1.639582339188069282e-01 6.596058852352246760e+00
1.649198657889619501e-01 6.553960393272397766e+00
1.658814976591169721e-01 6.791803261000612935e+00
1.668431295292719940e-01 6.761012083649976745e+00
1.678047613994270160e-01 6.702458027042059285e+00
1.687663932695820379e-01 6.902758072898965480e+00
1.697280251397370598e-01 6.883879148807146464e+00
1.706896570098921095e-01 6.948669052566096127e+00
1.716512888800471037e-01 7.049146821324814738e+00
1.726129207502021534e-01 7.370330760772294099e+00
1.735745526203571754e-01 7.105007841365488019e+00
1.745361844905121973e-01 6.955858047868190397e+00
1.754978163606672192e-01 7.104590835800248527e+00
1.764594482308222689e-01 6.966736585786122760e+00
1.774210801009772631e-01 7.069935595702972364e+00
1.783827119711323128e-01 6.837621140946744447e+00
1.793443438412873348e-01 6.929699576965447250e+00
1.803059757114423567e-01 7.031023379364508941e+00
1.812676075815973786e-01 6.968954436542993847e+00
1.822292394517524006e-01 6.882716020982432070e+00
1.831908713219074225e-01 6.314048364368296973e+00
1.841525031920624444e-01 6.632060513177858496e+00
1.851141350622174664e-01 6.306876461273233758e+00
1.860757669323724883e-01 5.888647245108153072e+00
1.870373988025275380e-01 5.836777832113742903e+00
1.879990306726825322e-01 5.613232415255108521e+00
1.889606625428375819e-01 5.485392914451793445e+00
1.899222944129926038e-01 5.641453348838307846e+00
1.908839262831476258e-01 5.316803135865910690e+00
1.918455581533026477e-01 5.069510834479391548e+00
1.928071900234576974e-01 4.873084373359851895e+00
1.937688218936126916e-01 4.652367641146053501e+00
1.947304537637677413e-01 4.439774795951443309e+00
1.956920856339227632e-01 4.297514940154581353e+00
1.966537175040777852e-01 4.306223901215570748e+00
1.976153493742328071e-01 4.009207735559886743e+00
1.985769812443878291e-01 3.650229716161465632e+00
1.995386131145428510e-01 3.653007656935649550e+00
2.005002449846978729e-01 3.260849420680571598e+00
2.014618768548528949e-01 3.267008836423638485e+00
2.024235087250079168e-01 3.143587438234668241e+00
2.033851405951629665e-01 2.955804271848506914e+00
2.043467724653179884e-01 2.734471262380147039e+00
2.053084043354730381e-01 2.504579635603061405e+00
2.062700362056280046e-01 2.407371701666967567e+00
2.072316680757830543e-01 2.344675339193905472e+00
2.081932999459380762e-01 2.211128449577227428e+00
2.091549318160931259e-01 2.159616952796202582e+00
2.101165636862481478e-01 2.093206402045840520e+00
2.110781955564031698e-01 2.053197432491508323e+00
2.120398274265581640e-01 1.955792945457247356e+00
2.130014592967132137e-01 1.879768619386346984e+00
2.139630911668682356e-01 1.537241094078073189e+00
2.149247230370232575e-01 1.043978539496489333e+00
2.158863549071783072e-01 9.011329178659437389e-01
2.168479867773333014e-01 7.148852030964008009e-01
2.178096186474883234e-01 9.152988588506865142e-01
2.187712505176433453e-01 8.670300101875483278e-01
2.197328823877983950e-01 7.858000469333248361e-01
2.206945142579534169e-01 6.965817326270311582e-01
2.216561461281084666e-01 5.649294671542115509e-01
2.226177779982634330e-01 5.272230642024844371e-01
2.235794098684184827e-01 5.830329506581719556e-01
2.245410417385735047e-01 6.553068861595434669e-01
2.255026736087285544e-01 7.268910318963612838e-01
2.264643054788835763e-01 5.157275087553365722e-01
2.274259373490385983e-01 4.166019376972442956e-01
2.283875692191935924e-01 3.096304145570663025e-01
2.293492010893486421e-01 0.000000000000000000e+00
2.303108329595036641e-01 2.182638978926441098e-01
2.312724648296586860e-01 2.488642359251791447e-01
2.322340966998137357e-01 2.878448416512711105e-01
2.331957285699687299e-01 3.857529915416080257e-01
2.341573604401237518e-01 2.979069824011872925e-01
2.351189923102787738e-01 1.035561284731940646e-01
2.360806241804338235e-01 1.017207638729580310e-01
2.370422560505888454e-01 5.184246212868899306e-01
2.380038879207438951e-01 7.249144893550756308e-01
2.389655197908988615e-01 7.102867598871540622e-01
2.399271516610539112e-01 6.090440100244620680e-01
2.408887835312089332e-01 5.620447233817635890e-01
2.418504154013639829e-01 4.339760813406599027e-01
2.428120472715190048e-01 6.725527993868141152e-01
2.437736791416740267e-01 5.713929997142273010e-01
2.447353110118290209e-01 2.859140279152008191e-01
2.456969428819840706e-01 4.946274661665448491e-01
2.466585747521390926e-01 5.420853020427820468e-01
2.476202066222941145e-01 6.482577923827719246e-01
2.485818384924491642e-01 6.312511155115849704e-01
2.495434703626041584e-01 7.339022281127647318e-01
2.505051022327591803e-01 6.567165865652384582e-01
2.514667341029142023e-01 6.876800451343463294e-01
2.524283659730692242e-01 7.010958233625537162e-01
2.533899978432243016e-01 9.058866237781302289e-01
2.543516297133793236e-01 9.372401028895573916e-01
2.553132615835342900e-01 9.910973413885066918e-01
2.562748934536893120e-01 8.793338847132510239e-01
2.572365253238443894e-01 1.040732372531628869e+00
2.581981571939994113e-01 1.123196464332572475e+00
2.591597890641544333e-01 1.024185392056725874e+00
2.601214209343094552e-01 8.745184453580243655e-01
2.610830528044644772e-01 9.983499998446170309e-01
2.620446846746194991e-01 1.027416242068042607e+00
2.630063165447745210e-01 1.048799163522353695e+00
2.639679484149295430e-01 1.290010060187594121e+00
2.649295802850845649e-01 1.197528212622362531e+00
2.658912121552395869e-01 1.116198406456163639e+00
2.668528440253946088e-01 1.015113341347337439e+00
2.678144758955496307e-01 1.000395491770472489e+00
2.687761077657046527e-01 1.180231015061522726e+00
2.697377396358597301e-01 1.361595775311478462e+00
2.706993715060147521e-01 1.318252511263391824e+00
2.716610033761697185e-01 1.179586713102732887e+00
2.726226352463247404e-01 1.164393782665392507e+00
2.735842671164798179e-01 1.204594555926654209e+00
2.745458989866348398e-01 1.317288709123175749e+00
2.755075308567898618e-01 1.127968156707591874e+00
2.764691627269448837e-01 1.048391808242588041e+00
2.774307945970999056e-01 1.235267582801938602e+00
2.783924264672549276e-01 1.292610990218211242e+00
2.793540583374099495e-01 1.317836353344024047e+00
2.803156902075649715e-01 1.188170264139266408e+00
2.812773220777199934e-01 9.899955059599143681e-01
2.822389539478750153e-01 8.939349468820090294e-01
2.832005858180300373e-01 9.936658299711105258e-01
2.841622176881850592e-01 1.076041160232360738e+00
2.851238495583400812e-01 1.079212693253200683e+00
2.860854814284951586e-01 1.120404951449934572e+00
2.870471132986501805e-01 1.044820421836398339e+00
2.880087451688051470e-01 1.068171123320599492e+00
2.889703770389601689e-01 1.191768880190764435e+00
2.899320089091152464e-01 1.132186476347982307e+00
2.908936407792702683e-01 9.342129052103125275e-01
2.918552726494252902e-01 8.233747170870167054e-01
2.928169045195803122e-01 1.022026468720234504e+00
2.937785363897353341e-01 9.671938110225752894e-01
2.947401682598903561e-01 6.138689204524858667e-01
2.957018001300453780e-01 5.248909626785049909e-01
2.966634320002003999e-01 6.351330122432017333e-01
2.976250638703554219e-01 6.913728369831950715e-01
2.985866957405104993e-01 8.135852031112484894e-01
2.995483276106654658e-01 7.949196662769431043e-01
3.005099594808204877e-01 8.626520115671603151e-01
3.014715913509755651e-01 7.062860609971295389e-01
3.024332232211305871e-01 5.661320123238411384e-01
3.033948550912856090e-01 5.849208364349607336e-01
3.043564869614405755e-01 6.464340982253666823e-01
3.053181188315956529e-01 6.402200293576250090e-01
3.062797507017506748e-01 7.465345178750659727e-01
3.072413825719056968e-01 6.447638117539717939e-01
3.082030144420607187e-01 6.221958710591160013e-01
3.091646463122157407e-01 7.273805983757384297e-01
3.101262781823707626e-01 4.868714567814542704e-01
3.110879100525257845e-01 3.264198539500497986e-01
3.120495419226808065e-01 2.643796511567160223e-01
3.130111737928358284e-01 3.459477646610480406e-01
3.139728056629909059e-01 4.232652581812992310e-01
3.149344375331459278e-01 4.891173035191265228e-01
3.158960694033008942e-01 8.088112499271105094e-02
3.168577012734559162e-01 2.424111730460047909e-01
3.178193331436109936e-01 1.990171400940212720e-01
3.187809650137660156e-01 7.320239731640398873e-02
3.197425968839210375e-01 2.561689257424468735e-01
3.207042287540760039e-01 3.772965900162148500e-01
3.216658606242310814e-01 4.542470464112504658e-01
3.226274924943861033e-01 4.820515036932953024e-01
3.235891243645411253e-01 4.577868920737238057e-01
3.245507562346961472e-01 3.238057941046150745e-01
3.255123881048511691e-01 3.113687072251352106e-01
3.264740199750061911e-01 3.787575032467920266e-01
3.274356518451612130e-01 4.180323390861033772e-01
3.283972837153162350e-01 4.817942656109224231e-01
3.293589155854712569e-01 3.649526387285604301e-01
3.303205474556263344e-01 4.400696582893743880e-01
3.312821793257813563e-01 3.055001226544682424e-01
3.322438111959363227e-01 1.692197259164593959e-01
3.332054430660913447e-01 1.241771236580575533e-01
3.341670749362464221e-01 2.867346116055493610e-01
3.351287068064014441e-01 5.552117554397781873e-01
3.360903386765564660e-01 5.682074916110337881e-01
3.370519705467114324e-01 4.750711023212197404e-01
3.380136024168665099e-01 5.458852868684438420e-01
3.389752342870215318e-01 4.818477961886777905e-01
3.399368661571765537e-01 3.974197073265557378e-01
3.408984980273315757e-01 4.449487073602220732e-01
3.418601298974865976e-01 4.713738739477513207e-01
3.428217617676416196e-01 4.590036642001820155e-01
3.437833936377966415e-01 4.088504485767714414e-01
3.447450255079516634e-01 2.671374877516043966e-01
3.457066573781066854e-01 3.959130803670092291e-01
3.466682892482617628e-01 4.694446693601683762e-01
3.476299211184167848e-01 6.394696260426613321e-01
3.485915529885717512e-01 5.475578043046063215e-01
3.495531848587267731e-01 5.305898721577726462e-01
3.505148167288818506e-01 5.024479409800051144e-01
3.514764485990368725e-01 6.426310714296050719e-01
3.524380804691918945e-01 4.583896833367120394e-01
3.533997123393468609e-01 3.502491573647290579e-01
3.543613442095019384e-01 4.139104267646018798e-01
3.553229760796569603e-01 5.035929062230692921e-01
3.562846079498119822e-01 4.641070820403747632e-01
3.572462398199670042e-01 4.384407046927165652e-01
3.582078716901220261e-01 4.665636581716761100e-01
3.591695035602770480e-01 6.000433450600120011e-01
3.601311354304320700e-01 7.226853882268144957e-01
3.610927673005870919e-01 6.678269186230245680e-01
3.620543991707421139e-01 4.932259249964126013e-01
3.630160310408971913e-01 6.663462448881780631e-01
3.639776629110522133e-01 5.038438370338305106e-01
3.649392947812071797e-01 5.830567447846206619e-01
3.659009266513622016e-01 5.198622540873429898e-01
3.668625585215172791e-01 5.058937039777049449e-01
3.678241903916723010e-01 6.035946817071504711e-01
3.687858222618273230e-01 5.795209990574363701e-01
3.697474541319822894e-01 4.882368707986373124e-01
3.707090860021373668e-01 5.294661009007342045e-01
3.716707178722923888e-01 6.226145055155747343e-01
3.726323497424474107e-01 3.849183570500365192e-01
3.735939816126024327e-01 3.082244231430131265e-01
3.745556134827574546e-01 3.138168108701933079e-01
3.755172453529124765e-01 4.180737394236295756e-01
3.764788772230674985e-01 3.717011840256922994e-01
3.774405090932225204e-01 4.187330017598540621e-01
3.784021409633775423e-01 4.642438799405397276e-01
3.793637728335326198e-01 6.267352682578923861e-01
3.803254047036876417e-01 7.085158274404719236e-01
3.812870365738426082e-01 6.826731490297426319e-01
3.822486684439976301e-01 5.679844470516997035e-01
3.832103003141527076e-01 4.028958185794202507e-01
3.841719321843077295e-01 3.971192328365127366e-01
3.851335640544627514e-01 5.530622119433807882e-01
3.860951959246177734e-01 4.753459932711372460e-01
3.870568277947727953e-01 4.216845949975152053e-01
3.880184596649278173e-01 3.725508042483234306e-01
3.889800915350828392e-01 5.356712231692100090e-01
3.899417234052378611e-01 5.898131033152367309e-01
3.909033552753928831e-01 5.358609256296347212e-01
3.918649871455479050e-01 4.971803775506096201e-01
3.928266190157029270e-01 5.805128803165864326e-01
3.937882508858579489e-01 5.394074063782952067e-01
3.947498827560129708e-01 5.286575833452324957e-01
3.957115146261680483e-01 6.836259112343050504e-01
3.966731464963230702e-01 7.025857979430938371e-01
3.976347783664780366e-01 6.316754803969857335e-01
3.985964102366330586e-01 5.483271564847278512e-01
3.995580421067881360e-01 5.645137394830719302e-01
4.005196739769430470e-01 5.074133358126324822e-01
4.014813058470981244e-01 5.133149095297078190e-01
4.024429377172531463e-01 5.146965126629829967e-01
4.034045695874082238e-01 4.333601655041832146e-01
