# q (1/Angstrom), Intensity (arb)
2.067508526570814575e-02 7.159028996845290749e+02
2.163671713586316769e-02 7.511003120597363250e+02
2.259834900601819310e-02 7.752562120622540078e+02
2.355998087617321851e-02 7.826304885768397526e+02
2.452161274632824739e-02 7.884531950430140341e+02
2.548324461648326933e-02 7.929681557869073458e+02
2.644487648663829821e-02 7.890471429088482864e+02
2.740650835679332709e-02 7.853372490427981347e+02
2.836814022694834903e-02 7.805652048116717197e+02
2.932977209710337443e-02 7.792913595125829715e+02
3.029140396725839637e-02 7.742483719177799912e+02
3.125303583741342178e-02 7.665916351476287218e+02
3.221466770756845066e-02 7.647831574675693673e+02
3.317629957772347260e-02 7.564677071912542488e+02
3.413793144787850148e-02 7.490076977805746310e+02
3.509956331803352342e-02 7.472540265749288437e+02
3.606119518818855230e-02 7.448734717851735923e+02
3.702282705834358117e-02 7.334010810630340984e+02
3.798445892849860311e-02 7.207405087783618001e+02
3.894609079865363199e-02 7.140404009320855039e+02
3.990772266880865393e-02 7.063164104864014234e+02
4.086935453896367587e-02 6.966585783409087753e+02
4.183098640911870475e-02 6.874017945112660755e+02
4.279261827927372669e-02 6.815872737192802333e+02
4.375425014942875557e-02 6.700820697477382737e+02
4.471588201958377751e-02 6.567291798328255936e+02
4.567751388973880639e-02 6.437180697562311025e+02
4.663914575989382832e-02 6.334326887752620223e+02
4.760077763004885720e-02 6.217530952489566971e+02
4.856240950020387914e-02 6.116850982052785639e+02
4.952404137035890108e-02 6.009080627347332211e+02
5.048567324051392302e-02 5.928842740544396293e+02
5.144730511066895190e-02 5.789138011522542229e+02
5.240893698082397384e-02 5.670719701434974240e+02
5.337056885097899578e-02 5.540812508474126616e+02
5.433220072113403160e-02 5.383285912974579333e+02
5.529383259128905354e-02 5.234110859947202243e+02
5.625546446144407547e-02 5.093663431362622873e+02
5.721709633159910435e-02 4.960200729830362434e+02
5.817872820175412629e-02 4.839211581121601853e+02
5.914036007190914823e-02 4.723721821977330819e+02
6.010199194206417017e-02 4.577510847755149257e+02
6.106362381221920599e-02 4.439330814414514066e+02
6.202525568237422793e-02 4.312048881571483889e+02
6.298688755252924987e-02 4.177401934239280763e+02
6.394851942268428568e-02 4.055375024097523351e+02
6.491015129283930762e-02 3.948603370672061601e+02
6.587178316299432956e-02 3.807074445840283943e+02
6.683341503314935150e-02 3.676211881038235560e+02
6.779504690330438732e-02 3.559826308017430847e+02
6.875667877345940926e-02 3.432771651436440266e+02
6.971831064361443120e-02 3.313990951822023590e+02
7.067994251376945314e-02 3.195293886558755503e+02
7.164157438392447508e-02 3.072577587530093410e+02
7.260320625407949702e-02 2.965918735225256455e+02
7.356483812423453283e-02 2.860876204823674698e+02
7.452646999438955477e-02 2.751200645069794177e+02
7.548810186454457671e-02 2.646675086635008824e+02
7.644973373469959865e-02 2.548869923500456878e+02
7.741136560485463447e-02 2.451869676814193895e+02
7.837299747500965641e-02 2.341919289490240033e+02
7.933462934516467835e-02 2.252372610347317448e+02
8.029626121531971417e-02 2.153516890289384946e+02
8.125789308547473611e-02 2.053340258854110800e+02
8.221952495562975805e-02 1.967614402808233649e+02
8.318115682578479386e-02 1.880502137554766193e+02
8.414278869593981580e-02 1.797881923630736480e+02
8.510442056609483774e-02 1.709155864755185803e+02
8.606605243624985968e-02 1.624104656206552875e+02
8.702768430640489550e-02 1.541984167154267027e+02
8.798931617655991744e-02 1.467374191888510779e+02
8.895094804671493938e-02 1.403697704101835768e+02
8.991257991686996132e-02 1.341234449300976621e+02
9.087421178702498326e-02 1.262085299080022764e+02
9.183584365718000520e-02 1.189190826577404465e+02
9.279747552733502713e-02 1.122000432045378631e+02
9.375910739749006295e-02 1.064011094090431300e+02
9.472073926764508489e-02 1.001210517189225015e+02
9.568237113780010683e-02 9.430672434755665279e+01
9.664400300795514265e-02 8.922709549982653243e+01
9.760563487811016459e-02 8.335205154660310711e+01
9.856726674826518653e-02 7.870968828137573325e+01
9.952889861842022234e-02 7.359953180166135667e+01
1.004905304885752443e-01 6.868371567257472066e+01
1.014521623587302801e-01 6.422672902181601273e+01
1.024137942288853020e-01 6.008618353000277779e+01
1.033754260990403240e-01 5.577914307982273101e+01
1.043370579691953459e-01 5.198049284854810992e+01
1.052986898393503817e-01 4.788715101160296683e+01
1.062603217095053898e-01 4.428401077444989653e+01
1.072219535796604256e-01 4.107934982513884137e+01
1.081835854498154614e-01 3.782460609640155269e+01
1.091452173199704695e-01 3.457464817074465202e+01
1.101068491901255053e-01 3.153680468383181790e+01
1.110684810602805411e-01 2.887767927256070166e+01
1.120301129304355492e-01 2.663541976521156229e+01
1.129917448005905850e-01 2.387691970312435075e+01
1.139533766707456208e-01 2.200136449125295002e+01
1.149150085409006289e-01 1.982772548693673542e+01
1.158766404110556647e-01 1.771244755801116355e+01
1.168382722812106728e-01 1.606963256938448126e+01
1.177999041513657086e-01 1.440513663522058962e+01
1.187615360215207305e-01 1.270277917114604094e+01
1.197231678916757525e-01 1.183938871275106308e+01
1.206847997618307744e-01 1.040895365413332740e+01
1.216464316319858102e-01 8.921899298187064176e+00
1.226080635021408183e-01 7.792734505660856570e+00
1.235696953722958541e-01 7.064563478131482555e+00
1.245313272424508899e-01 6.014371571570830355e+00
1.254929591126059119e-01 5.217558677323587801e+00
1.264545909827609338e-01 4.615745006894716340e+00
1.274162228529159557e-01 4.081907614478833324e+00
1.283778547230709777e-01 3.688176403338310649e+00
1.293394865932259996e-01 3.435035500220230631e+00
1.303011184633810493e-01 3.086299750671322784e+00
1.312627503335360435e-01 2.961765054196423108e+00
1.322243822036910932e-01 2.403063118848447033e+00
1.331860140738460874e-01 2.063775620300432934e+00
1.341476459440011371e-01 2.043523877857900573e+00
1.351092778141561590e-01 1.959655356590090491e+00
1.360709096843111809e-01 1.666752166321291639e+00
1.370325415544662029e-01 1.491127044187333439e+00
1.379941734246212526e-01 1.517348989455058472e+00
1.389558052947762468e-01 1.767915925550298084e+00
1.399174371649312965e-01 2.386568405549880367e+00
1.408790690350863184e-01 2.494971427940328113e+00
1.418407009052413403e-01 2.008994062175670337e+00
1.428023327753963623e-01 2.111318097818941197e+00
1.437639646455513842e-01 2.234580503094843351e+00
1.447255965157064062e-01 2.349772233998887572e+00
1.456872283858614281e-01 2.794359808623791963e+00
1.466488602560164778e-01 2.957488183876854748e+00
1.476104921261714720e-01 2.854127775916559528e+00
1.485721239963265217e-01 3.062850052722581040e+00
1.495337558664815436e-01 3.197714610035671257e+00
1.504953877366365655e-01 3.337573803149691543e+00
1.514570196067915875e-01 3.889010477670403532e+00
1.524186514769466094e-01 4.167308243744034968e+00
1.533802833471016314e-01 4.494806673340146830e+00
1.543419152172566811e-01 4.606106660709262002e+00
1.553035470874116752e-01 5.068978744495147737e+00
1.562651789575667249e-01 5.251729313620440820e+00
1.572268108277217469e-01 5.431340618637428008e+00
1.581884426978767688e-01 5.604609789382767104e+00
1.591500745680317908e-01 5.788912711866959881e+00
1.601117064381868405e-01 6.006277398837564618e+00
1.610733383083418346e-01 6.034211232321315066e+00
1.620349701784968843e-01 6.395266814121402632e+00
1.629966020486519063e-01 6.493834959785548477e+00
1.639582339188069282e-01 6.423170912320387060e+00
1.649198657889619501e-01 6.621994505224986227e+00
1.658814976591169721e-01 6.643272008921123017e+00
1.668431295292719940e-01 6.833363945246322402e+00
1.678047613994270160e-01 6.687419891377356151e+00
1.687663932695820379e-01 6.604667543246236505e+00
1.697280251397370598e-01 7.071920326927163103e+00
1.706896570098921095e-01 6.889430153317615435e+00
1.716512888800471037e-01 6.991024777516113176e+00
1.726129207502021534e-01 6.873778702622772130e+00
1.735745526203571754e-01 7.011516351116739543e+00
1.745361844905121973e-01 7.217315873128200110e+00
1.754978163606672192e-01 7.403789376285526913e+00
1.764594482308222689e-01 6.933319918555888250e+00
1.774210801009772631e-01 6.578357226803156266e+00
1.783827119711323128e-01 6.654051740258786651e+00
1.793443438412873348e-01 7.053034568594366505e+00
1.803059757114423567e-01 7.316182625983799426e+00
1.812676075815973786e-01 6.748970215955996110e+00
1.822292394517524006e-01 6.919825992176591001e+00
1.831908713219074225e-01 6.710389398583039622e+00
1.841525031920624444e-01 6.447497697000635242e+00
1.851141350622174664e-01 6.263711957095878802e+00
1.860757669323724883e-01 6.241488829312835662e+00
1.870373988025275380e-01 6.136071413592112833e+00
1.879990306726825322e-01 5.864033396677751142e+00
1.889606625428375819e-01 5.707006985705394442e+00
1.899222944129926038e-01 5.801471612909292475e+00
1.908839262831476258e-01 5.366085068433761762e+00
1.918455581533026477e-01 4.771151797511830495e+00
1.928071900234576974e-01 4.746164297944254429e+00
1.937688218936126916e-01 4.501600142824681683e+00
1.947304537637677413e-01 4.448074444528991478e+00
1.956920856339227632e-01 4.145841944613668062e+00
1.966537175040777852e-01 4.273528527849848047e+00
1.976153493742328071e-01 4.193400800534423212e+00
1.985769812443878291e-01 3.846002668868710117e+00
1.995386131145428510e-01 3.701181654073618432e+00
2.005002449846978729e-01 3.723749703019965551e+00
2.014618768548528949e-01 3.440766963363120823e+00
2.024235087250079168e-01 3.269399169255319038e+00
2.033851405951629665e-01 3.207922716591255607e+00
2.043467724653179884e-01 2.971455286971416143e+00
2.053084043354730381e-01 2.734508555654535655e+00
2.062700362056280046e-01 2.739672323435048185e+00
2.072316680757830543e-01 2.635932690534264822e+00
2.081932999459380762e-01 2.448067923468769891e+00
2.091549318160931259e-01 2.298372145139339295e+00
2.101165636862481478e-01 1.897088810096466460e+00
2.110781955564031698e-01 1.617987708772268718e+00
2.120398274265581640e-01 1.873357372512643337e+00
2.130014592967132137e-01 1.606634382676016770e+00
2.139630911668682356e-01 1.538970611379077980e+00
2.149247230370232575e-01 1.582956588031322553e+00
2.158863549071783072e-01 1.415486021746840350e+00
2.168479867773333014e-01 1.182168344181917519e+00
2.178096186474883234e-01 1.116959439104228125e+00
2.187712505176433453e-01 9.041060978239769952e-01
2.197328823877983950e-01 1.163366517310240766e+00
2.206945142579534169e-01 1.037396986998263770e+00
2.216561461281084666e-01 8.395871073589908917e-01
2.226177779982634330e-01 5.495712830247398983e-01
2.235794098684184827e-01 4.373078763474325115e-01
2.245410417385735047e-01 6.803669133718450723e-01
2.255026736087285544e-01 7.513154063287146300e-01
2.264643054788835763e-01 8.286470579020317473e-01
2.274259373490385983e-01 4.211876780883336835e-01
2.283875692191935924e-01 4.760307036067885633e-01
2.293492010893486421e-01 4.749242103621362787e-01
2.303108329595036641e-01 5.660426988288165262e-01
2.312724648296586860e-01 6.358555010283772901e-01
2.322340966998137357e-01 4.336855812417681477e-01
2.331957285699687299e-01 2.783401102785774128e-01
2.341573604401237518e-01 6.036260619456363941e-01
2.351189923102787738e-01 5.102813995973178862e-01
2.360806241804338235e-01 7.267029493483683211e-01
2.370422560505888454e-01 5.149356054875688926e-01
2.380038879207438951e-01 2.656597067768515785e-01
2.389655197908988615e-01 5.872368506084697515e-01
2.399271516610539112e-01 5.982210470551407866e-01
2.408887835312089332e-01 4.644274093049673979e-01
2.418504154013639829e-01 4.863542156537903338e-01
2.428120472715190048e-01 5.960813469255583641e-01
2.437736791416740267e-01 3.964572020880829939e-01
2.447353110118290209e-01 5.225965338822007311e-01
2.456969428819840706e-01 6.306345254292793356e-01
2.466585747521390926e-01 8.123732079534278228e-01
2.476202066222941145e-01 1.005445512335402469e+00
2.485818384924491642e-01 9.377414269600734542e-01
2.495434703626041584e-01 8.832980815491175974e-01
2.505051022327591803e-01 8.298240238645178124e-01
2.514667341029142023e-01 6.823872133889032909e-01
2.524283659730692242e-01 7.170605528431188702e-01
2.533899978432243016e-01 9.847623935284524066e-01
2.543516297133793236e-01 8.991725408216595383e-01
2.553132615835342900e-01 8.293614619982108138e-01
2.562748934536893120e-01 9.128951058253420570e-01
2.572365253238443894e-01 1.193959961215703913e+00
2.581981571939994113e-01 1.078009542160870637e+00
2.591597890641544333e-01 8.454657804321676906e-01
2.601214209343094552e-01 9.928010809062506326e-01
2.610830528044644772e-01 9.148634434742568544e-01
2.620446846746194991e-01 1.003375248127902353e+00
2.630063165447745210e-01 1.112810323172023885e+00
2.639679484149295430e-01 1.155071671294503943e+00
2.649295802850845649e-01 1.117615290621628787e+00
2.658912121552395869e-01 1.134149594513679915e+00
2.668528440253946088e-01 1.244900144233575645e+00
2.678144758955496307e-01 1.209996025310811518e+00
2.687761077657046527e-01 1.109918724043545524e+00
2.697377396358597301e-01 9.793259044342299546e-01
2.706993715060147521e-01 1.208448653463019440e+00
2.716610033761697185e-01 1.307927652782716166e+00
2.726226352463247404e-01 1.583028270475768551e+00
2.735842671164798179e-01 1.476784651097794665e+00
2.745458989866348398e-01 1.088893417297846611e+00
2.755075308567898618e-01 1.214095635778839721e+00
2.764691627269448837e-01 1.405128305905599007e+00
2.774307945970999056e-01 1.298595837640146300e+00
2.783924264672549276e-01 1.121738132848491887e+00
2.793540583374099495e-01 1.048581281829477518e+00
2.803156902075649715e-01 1.123118833593597543e+00
2.812773220777199934e-01 1.164947451306026949e+00
2.822389539478750153e-01 8.712836783257174034e-01
2.832005858180300373e-01 7.324927128182352476e-01
2.841622176881850592e-01 9.239075420128344263e-01
2.851238495583400812e-01 1.012441787976801066e+00
2.860854814284951586e-01 1.120025915872460587e+00
2.870471132986501805e-01 1.231297918714805206e+00
2.880087451688051470e-01 1.202834674476349619e+00
2.889703770389601689e-01 7.930704459615114388e-01
2.899320089091152464e-01 6.433255665689614489e-01
2.908936407792702683e-01 1.010490045044214469e+00
2.918552726494252902e-01 1.033952027911464455e+00
2.928169045195803122e-01 1.035155560800259167e+00
2.937785363897353341e-01 9.181502017593530240e-01
2.947401682598903561e-01 8.004098020662340218e-01
2.957018001300453780e-01 1.110179959211869516e+00
2.966634320002003999e-01 9.890424336397671823e-01
2.976250638703554219e-01 8.824274664744287122e-01
2.985866957405104993e-01 8.089131007652774485e-01
2.995483276106654658e-01 9.381894312315850470e-01
3.005099594808204877e-01 8.389694521897439472e-01
3.014715913509755651e-01 5.741322997864735100e-01
3.024332232211305871e-01 4.360242573439165881e-01
3.033948550912856090e-01 4.699204349031731454e-01
3.043564869614405755e-01 5.472878300451036182e-01
3.053181188315956529e-01 4.497330072710639115e-01
3.062797507017506748e-01 5.119600144090554750e-01
3.072413825719056968e-01 6.667053668851750103e-01
3.082030144420607187e-01 6.543829986463087778e-01
3.091646463122157407e-01 5.974287905109108010e-01
3.101262781823707626e-01 5.005691751202796524e-01
3.110879100525257845e-01 4.875254915132494204e-01
3.120495419226808065e-01 5.686414462058344554e-01
3.130111737928358284e-01 5.574769988017962419e-01
3.139728056629909059e-01 4.806589170420672019e-01
3.149344375331459278e-01 6.150722445792560222e-01
3.158960694033008942e-01 6.666009096593974448e-01
3.168577012734559162e-01 5.209957665787712244e-01
3.178193331436109936e-01 4.534625755009678016e-01
3.187809650137660156e-01 5.326538904563307142e-01
3.197425968839210375e-01 5.443066671303284920e-01
3.207042287540760039e-01 5.561983621944754930e-01
3.216658606242310814e-01 5.891514651879745657e-01
3.226274924943861033e-01 3.299159056638920617e-01
3.235891243645411253e-01 3.572833176926444310e-01
3.245507562346961472e-01 5.263783789552611836e-01
3.255123881048511691e-01 3.690775476289829271e-01
3.264740199750061911e-01 3.458841395482821213e-01
3.274356518451612130e-01 4.073057997345124193e-01
3.283972837153162350e-01 3.615791063571371922e-01
3.293589155854712569e-01 2.423124904698319426e-01
3.303205474556263344e-01 1.502089809116320396e-01
3.312821793257813563e-01 3.467144150923466839e-01
3.322438111959363227e-01 6.151550003337966643e-01
3.332054430660913447e-01 4.117726627599118672e-01
3.341670749362464221e-01 4.454243461616975708e-01
3.351287068064014441e-01 5.605131384240742420e-01
3.360903386765564660e-01 5.154093386435043556e-01
3.370519705467114324e-01 3.934199464268530733e-01
3.380136024168665099e-01 5.236383073631927232e-01
3.389752342870215318e-01 5.105154587878146799e-01
3.399368661571765537e-01 5.235306200520994935e-01
3.408984980273315757e-01 4.236064433292519027e-01
3.418601298974865976e-01 5.806054597850263121e-01
3.428217617676416196e-01 5.922857997900159432e-01
3.437833936377966415e-01 6.012623165163581973e-01
3.447450255079516634e-01 4.081927498900270734e-01
3.457066573781066854e-01 2.868666097025922568e-01
3.466682892482617628e-01 2.515826361995827654e-01
3.476299211184167848e-01 4.845156451041070511e-01
3.485915529885717512e-01 5.154088852138087873e-01
3.495531848587267731e-01 4.832098241943576511e-01
3.505148167288818506e-01 4.992652297578246134e-01
3.514764485990368725e-01 4.886403744083196443e-01
3.524380804691918945e-01 5.317701475094160912e-01
3.533997123393468609e-01 4.763349477242826424e-01
3.543613442095019384e-01 3.718702120303198910e-01
3.553229760796569603e-01 5.039745046079637802e-01
3.562846079498119822e-01 5.562346334763077493e-01
3.572462398199670042e-01 4.814642533707882421e-01
3.582078716901220261e-01 4.554627741506074301e-01
3.591695035602770480e-01 4.186118762042951857e-01
3.601311354304320700e-01 3.333205394751530548e-01
3.610927673005870919e-01 5.493213829908079049e-01
3.620543991707421139e-01 5.830011639493655196e-01
3.630160310408971913e-01 6.711381728374554712e-01
3.639776629110522133e-01 7.034006074510088524e-01
3.649392947812071797e-01 6.225601263739086733e-01
3.659009266513622016e-01 6.513207339814179875e-01
3.668625585215172791e-01 5.496180451536396561e-01
3.678241903916723010e-01 5.570516509546337147e-01
3.687858222618273230e-01 7.161695764146678300e-01
3.697474541319822894e-01 7.345274928494198718e-01
3.707090860021373668e-01 6.221838473160872240e-01
3.716707178722923888e-01 6.775133834639177621e-01
3.726323497424474107e-01 8.313391061221402367e-01
3.735939816126024327e-01 7.834003576481087805e-01
3.745556134827574546e-01 5.594240634453271355e-01
3.755172453529124765e-01 4.242406135908822762e-01
3.764788772230674985e-01 5.029973868254806746e-01
3.774405090932225204e-01 5.353211233872343655e-01
3.784021409633775423e-01 6.433464253835090574e-01
3.793637728335326198e-01 5.789900879153897506e-01
3.803254047036876417e-01 6.161424874891388015e-01
3.812870365738426082e-01 6.068802536840678385e-01
3.822486684439976301e-01 7.567398015596360494e-01
3.832103003141527076e-01 6.517200191885947902e-01
3.841719321843077295e-01 5.148415862308866053e-01
3.851335640544627514e-01 5.545487582795765036e-01
3.860951959246177734e-01 5.365114293119290778e-01
3.870568277947727953e-01 2.484164074698469449e-01
3.880184596649278173e-01 4.265719807079868531e-01
3.889800915350828392e-01 5.783072648692879625e-01
3.899417234052378611e-01 4.622648823040051980e-01
3.909033552753928831e-01 4.130133738975771962e-01
3.918649871455479050e-01 4.691477540564186199e-01
3.928266190157029270e-01 3.955414567457999908e-01
3.937882508858579489e-01 4.931481445503322902e-01
3.947498827560129708e-01 5.172773584712473394e-01
3.957115146261680483e-01 4.768542345164483720e-01
3.966731464963230702e-01 5.123580618817946686e-01
3.976347783664780366e-01 4.354827091393644878e-01
3.985964102366330586e-01 2.921806848831600689e-01
3.995580421067881360e-01 4.082098112884331442e-01
4.005196739769430470e-01 3.636571887777364509e-01
4.014813058470981244e-01 5.126685682333480543e-01
4.024429377172531463e-01 4.747876571789149125e-01
4.034045695874082238e-01 5.897730906623586122e-01
