# q (1/Angstrom), Intensity (arb)
2.067508526570814575e-02 5.897353357080962724e+02
2.163671713586316769e-02 6.183507185699921820e+02
2.259834900601819310e-02 6.408816832152507459e+02
2.355998087617321851e-02 6.535778575117592482e+02
2.452161274632824739e-02 6.559758089303692259e+02
2.548324461648326933e-02 6.555589061098460206e+02
2.644487648663829821e-02 6.537518013228499285e+02
2.740650835679332709e-02 6.513913987230000657e+02
2.836814022694834903e-02 6.501124085859788693e+02
2.932977209710337443e-02 6.486158451326290333e+02
3.029140396725839637e-02 6.446972063524948453e+02
3.125303583741342178e-02 6.388140478999126799e+02
3.221466770756845066e-02 6.351703308589654853e+02
3.317629957772347260e-02 6.298499667624665790e+02
3.413793144787850148e-02 6.262612216817859689e+02
3.509956331803352342e-02 6.208251556061463816e+02
3.606119518818855230e-02 6.150860759384214589e+02
3.702282705834358117e-02 6.107884383501959746e+02
3.798445892849860311e-02 6.073496083725290191e+02
3.894609079865363199e-02 6.001024381649812085e+02
3.990772266880865393e-02 5.913120657971887795e+02
4.086935453896367587e-02 5.842084794311124369e+02
4.183098640911870475e-02 5.786722818380691251e+02
4.279261827927372669e-02 5.745905935713211647e+02
4.375425014942875557e-02 5.641612219036853730e+02
4.471588201958377751e-02 5.531069621284827917e+02
4.567751388973880639e-02 5.467644322302243154e+02
4.663914575989382832e-02 5.396793819919861335e+02
4.760077763004885720e-02 5.299711837640057865e+02
4.856240950020387914e-02 5.207804921744726698e+02
4.952404137035890108e-02 5.113619633984107509e+02
5.048567324051392302e-02 5.021617693649312173e+02
5.144730511066895190e-02 4.919812979329924474e+02
5.240893698082397384e-02 4.837779548096041822e+02
5.337056885097899578e-02 4.738171651030592102e+02
5.433220072113403160e-02 4.609612285951351964e+02
5.529383259128905354e-02 4.518287539034209885e+02
5.625546446144407547e-02 4.410838633411363503e+02
5.721709633159910435e-02 4.299210657534642905e+02
5.817872820175412629e-02 4.201093627704549363e+02
5.914036007190914823e-02 4.097831225062175236e+02
6.010199194206417017e-02 3.988106343155243394e+02
6.106362381221920599e-02 3.898466495713296922e+02
6.202525568237422793e-02 3.775945024963293690e+02
6.298688755252924987e-02 3.661893895791350246e+02
6.394851942268428568e-02 3.570379460099362632e+02
6.491015129283930762e-02 3.469940324779752814e+02
6.587178316299432956e-02 3.378217133454886607e+02
6.683341503314935150e-02 3.273520296114617167e+02
6.779504690330438732e-02 3.161776713545271491e+02
6.875667877345940926e-02 3.085402862093931731e+02
6.971831064361443120e-02 2.997436598292416647e+02
7.067994251376945314e-02 2.892366051685415300e+02
7.164157438392447508e-02 2.802663841334519361e+02
7.260320625407949702e-02 2.706690034489852223e+02
7.356483812423453283e-02 2.611556687519282605e+02
7.452646999438955477e-02 2.533960722904522811e+02
7.548810186454457671e-02 2.447266301556680617e+02
7.644973373469959865e-02 2.364885969837378639e+02
7.741136560485463447e-02 2.261134009559554556e+02
7.837299747500965641e-02 2.179170662573419008e+02
7.933462934516467835e-02 2.107823657155577166e+02
8.029626121531971417e-02 2.019335096233574234e+02
8.125789308547473611e-02 1.946232441656260619e+02
8.221952495562975805e-02 1.859179273360097113e+02
8.318115682578479386e-02 1.778071733346500309e+02
8.414278869593981580e-02 1.708391206453597420e+02
8.510442056609483774e-02 1.645171607477093687e+02
8.606605243624985968e-02 1.581784631638929568e+02
8.702768430640489550e-02 1.515491818438522671e+02
8.798931617655991744e-02 1.447120337273738642e+02
8.895094804671493938e-02 1.387289956657247387e+02
8.991257991686996132e-02 1.325938713333874546e+02
9.087421178702498326e-02 1.269037044312351838e+02
9.183584365718000520e-02 1.220037604089926333e+02
9.279747552733502713e-02 1.180570591098911422e+02
9.375910739749006295e-02 1.138883145918206168e+02
9.472073926764508489e-02 1.066769980807338243e+02
9.568237113780010683e-02 9.922237537724967638e+01
9.664400300795514265e-02 9.310279928896933654e+01
9.760563487811016459e-02 8.750818384258482752e+01
9.856726674826518653e-02 8.294698996477764297e+01
9.952889861842022234e-02 7.858527513167834400e+01
1.004905304885752443e-01 7.352286369203608274e+01
1.014521623587302801e-01 6.982062876414765640e+01
1.024137942288853020e-01 6.538996402362194260e+01
1.033754260990403240e-01 6.133169081990395455e+01
1.043370579691953459e-01 5.736166473389285159e+01
1.052986898393503817e-01 5.319893055730517517e+01
1.062603217095053898e-01 5.065712250543150219e+01
1.072219535796604256e-01 4.800076900784045364e+01
1.081835854498154614e-01 4.483804117013897184e+01
1.091452173199704695e-01 4.130513863169977640e+01
1.101068491901255053e-01 3.822538709092236076e+01
1.110684810602805411e-01 3.556647983297575877e+01
1.120301129304355492e-01 3.262724503738982662e+01
1.129917448005905850e-01 3.006108046249948629e+01
1.139533766707456208e-01 2.751914393365547085e+01
1.149150085409006289e-01 2.533634794347208086e+01
1.158766404110556647e-01 2.334783634406738173e+01
1.168382722812106728e-01 2.158927524054998059e+01
1.177999041513657086e-01 1.956771500829559329e+01
1.187615360215207305e-01 1.819351769398812024e+01
1.197231678916757525e-01 1.668836072615338750e+01
1.206847997618307744e-01 1.470183403583621740e+01
1.216464316319858102e-01 1.337359547504904356e+01
1.226080635021408183e-01 1.196491201364525381e+01
1.235696953722958541e-01 1.073339812342726418e+01
1.245313272424508899e-01 9.574736154199595006e+00
1.254929591126059119e-01 8.765856475152869365e+00
1.264545909827609338e-01 7.609312709697366728e+00
1.274162228529159557e-01 6.672711748709154733e+00
1.283778547230709777e-01 5.920832971592925986e+00
1.293394865932259996e-01 5.160824873958663517e+00
1.303011184633810493e-01 4.976890040287607064e+00
1.312627503335360435e-01 4.287650360913929148e+00
1.322243822036910932e-01 3.780649842875224209e+00
1.331860140738460874e-01 3.213051605979114100e+00
1.341476459440011371e-01 2.596464353126780367e+00
1.351092778141561590e-01 2.384113020629936130e+00
1.360709096843111809e-01 2.286950144488614001e+00
1.370325415544662029e-01 2.061818803094876529e+00
1.379941734246212526e-01 1.570131441074416045e+00
1.389558052947762468e-01 1.519124676700187138e+00
1.399174371649312965e-01 1.547733846397370883e+00
1.408790690350863184e-01 1.353209599771240335e+00
1.418407009052413403e-01 1.050190142461477905e+00
1.428023327753963623e-01 1.056756815401559635e+00
1.437639646455513842e-01 1.206264053261214997e+00
1.447255965157064062e-01 1.536946919266501510e+00
1.456872283858614281e-01 1.398917830751923219e+00
1.466488602560164778e-01 1.417222760614560428e+00
1.476104921261714720e-01 1.696994480188543264e+00
1.485721239963265217e-01 1.879889191482501332e+00
1.495337558664815436e-01 1.857594202563848995e+00
1.504953877366365655e-01 1.937246623701184944e+00
1.514570196067915875e-01 2.203501612800813803e+00
1.524186514769466094e-01 2.250627759015571883e+00
1.533802833471016314e-01 2.461068415473338433e+00
1.543419152172566811e-01 3.163290863707416634e+00
1.553035470874116752e-01 3.398885589697844267e+00
1.562651789575667249e-01 3.310488674754605398e+00
1.572268108277217469e-01 3.130873705029191711e+00
1.581884426978767688e-01 3.106285163084624656e+00
1.591500745680317908e-01 3.289718075669803454e+00
1.601117064381868405e-01 3.724488726202341837e+00
1.610733383083418346e-01 3.537962832737136409e+00
1.620349701784968843e-01 3.797517958468052512e+00
1.629966020486519063e-01 3.975063880407141426e+00
1.639582339188069282e-01 4.416848553026792246e+00
1.649198657889619501e-01 4.728540302962191078e+00
1.658814976591169721e-01 4.763073025173856223e+00
1.668431295292719940e-01 5.016741362826326878e+00
1.678047613994270160e-01 5.259135657923991403e+00
1.687663932695820379e-01 4.954025244335902300e+00
1.697280251397370598e-01 5.108664833776529690e+00
1.706896570098921095e-01 5.232612027720367820e+00
1.716512888800471037e-01 5.445737286696161306e+00
1.726129207502021534e-01 5.611251876239435887e+00
1.735745526203571754e-01 5.672294979264346892e+00
1.745361844905121973e-01 5.494322937044277211e+00
1.754978163606672192e-01 5.580502093953192855e+00
1.764594482308222689e-01 5.708809822392478139e+00
1.774210801009772631e-01 5.540314887974307823e+00
1.783827119711323128e-01 5.733615954146735305e+00
1.793443438412873348e-01 6.083459065591100057e+00
1.803059757114423567e-01 6.033003573346306325e+00
1.812676075815973786e-01 5.852349525193218938e+00
1.822292394517524006e-01 5.822923202263176279e+00
1.831908713219074225e-01 5.687065082334772370e+00
1.841525031920624444e-01 5.523385378213202301e+00
1.851141350622174664e-01 5.520723160484500625e+00
1.860757669323724883e-01 5.466032007559608275e+00
1.870373988025275380e-01 5.524524273281915754e+00
1.879990306726825322e-01 5.483308955797351558e+00
1.889606625428375819e-01 5.361762600229059927e+00
1.899222944129926038e-01 5.058224612848377433e+00
1.908839262831476258e-01 4.987682159706938734e+00
1.918455581533026477e-01 4.746103174822120963e+00
1.928071900234576974e-01 4.665051266685892983e+00
1.937688218936126916e-01 4.643914223623728077e+00
1.947304537637677413e-01 4.758793020773502747e+00
1.956920856339227632e-01 4.631247561354420839e+00
1.966537175040777852e-01 4.539306551807822387e+00
1.976153493742328071e-01 4.243184246146459060e+00
1.985769812443878291e-01 3.898900062737968852e+00
1.995386131145428510e-01 4.028902598367722021e+00
2.005002449846978729e-01 3.964559823484020029e+00
2.014618768548528949e-01 3.543814071344012717e+00
2.024235087250079168e-01 3.543499475194860082e+00
2.033851405951629665e-01 3.673410527416937299e+00
2.043467724653179884e-01 3.505057983231797181e+00
2.053084043354730381e-01 3.392488162232439208e+00
2.062700362056280046e-01 3.291079821179380360e+00
2.072316680757830543e-01 2.964214475839934693e+00
2.081932999459380762e-01 2.865155409863184843e+00
2.091549318160931259e-01 2.700091392439354365e+00
2.101165636862481478e-01 2.467741319573299563e+00
2.110781955564031698e-01 2.493667062454107963e+00
2.120398274265581640e-01 2.414637575291848748e+00
2.130014592967132137e-01 2.027072198624669142e+00
2.139630911668682356e-01 1.971106487971230337e+00
2.149247230370232575e-01 1.808518519463081731e+00
2.158863549071783072e-01 2.184066588874578940e+00
2.168479867773333014e-01 1.998963855165452941e+00
2.178096186474883234e-01 1.370028669580058533e+00
2.187712505176433453e-01 1.288419531505855531e+00
2.197328823877983950e-01 1.589801851579888847e+00
2.206945142579534169e-01 1.807305213636020369e+00
2.216561461281084666e-01 1.494685357645018087e+00
2.226177779982634330e-01 1.217117961472574450e+00
2.235794098684184827e-01 1.159926767528041580e+00
2.245410417385735047e-01 8.912469278827650498e-01
2.255026736087285544e-01 9.164919626289638188e-01
2.264643054788835763e-01 8.338836528189190744e-01
2.274259373490385983e-01 6.685862661913546390e-01
2.283875692191935924e-01 8.959248577628926569e-01
2.293492010893486421e-01 7.793281984595346046e-01
2.303108329595036641e-01 6.563993906349239182e-01
2.312724648296586860e-01 7.080753156126142756e-01
2.322340966998137357e-01 5.972579550012682148e-01
2.331957285699687299e-01 5.849835715756164234e-01
2.341573604401237518e-01 6.726483815269865829e-01
2.351189923102787738e-01 5.935045990646443670e-01
2.360806241804338235e-01 3.828772679254264233e-01
2.370422560505888454e-01 4.494823745039795426e-01
2.380038879207438951e-01 5.892602263819242125e-01
2.389655197908988615e-01 3.402717406239794684e-01
2.399271516610539112e-01 1.264067399462405206e-01
2.408887835312089332e-01 1.728864550923780996e-01
2.418504154013639829e-01 5.313622404742162075e-01
2.428120472715190048e-01 4.530918468362052920e-01
2.437736791416740267e-01 3.877052337307631547e-01
2.447353110118290209e-01 2.512469761317994710e-01
2.456969428819840706e-01 1.495458585364950466e-01
2.466585747521390926e-01 4.355321153364535292e-01
2.476202066222941145e-01 4.618386950063033680e-01
2.485818384924491642e-01 4.585834685048908455e-01
2.495434703626041584e-01 4.179439854884599015e-01
2.505051022327591803e-01 4.590291293026815822e-01
2.514667341029142023e-01 4.736380528421655356e-01
2.524283659730692242e-01 4.829437360468347151e-01
2.533899978432243016e-01 5.082632612916384574e-01
2.543516297133793236e-01 5.212680626949754981e-01
2.553132615835342900e-01 4.938094225841140883e-01
2.562748934536893120e-01 3.120560257945363958e-01
2.572365253238443894e-01 2.459104638394578046e-01
2.581981571939994113e-01 3.601436776113580152e-01
2.591597890641544333e-01 1.762019779758539073e-01
2.601214209343094552e-01 3.797765158678068076e-01
2.610830528044644772e-01 5.333811120530036476e-01
2.620446846746194991e-01 6.111033614484213672e-01
2.630063165447745210e-01 8.260400468761019965e-01
2.639679484149295430e-01 7.468160138570389961e-01
2.649295802850845649e-01 7.476196492105096070e-01
2.658912121552395869e-01 8.446241065409125781e-01
2.668528440253946088e-01 9.521288399791814072e-01
2.678144758955496307e-01 7.931006987981348288e-01
2.687761077657046527e-01 9.217391504327849816e-01
2.697377396358597301e-01 8.942445344630662873e-01
2.706993715060147521e-01 7.374988525715124865e-01
2.716610033761697185e-01 8.593509768483045264e-01
2.726226352463247404e-01 9.615960304484474364e-01
2.735842671164798179e-01 1.026471978866169366e+00
2.745458989866348398e-01 9.017430424292243174e-01
2.755075308567898618e-01 7.029215092077585325e-01
2.764691627269448837e-01 8.198765301279635764e-01
2.774307945970999056e-01 6.994294807373542255e-01
2.783924264672549276e-01 8.469061118051826043e-01
2.793540583374099495e-01 8.701794640502100719e-01
2.803156902075649715e-01 9.687349794944850601e-01
2.812773220777199934e-01 9.937127085622492473e-01
2.822389539478750153e-01 1.021798635822698031e+00
2.832005858180300373e-01 1.043641639334374815e+00
2.841622176881850592e-01 8.163337640768126846e-01
2.851238495583400812e-01 8.892577930905289918e-01
2.860854814284951586e-01 8.490878789833793405e-01
2.870471132986501805e-01 8.720087737099184722e-01
2.880087451688051470e-01 9.847213749387542236e-01
2.889703770389601689e-01 8.666741668314656977e-01
2.899320089091152464e-01 7.694200518644827014e-01
2.908936407792702683e-01 7.262155672863208622e-01
2.918552726494252902e-01 1.164016461336803587e+00
2.928169045195803122e-01 1.107213672081506672e+00
2.937785363897353341e-01 7.448252722399253400e-01
2.947401682598903561e-01 5.420703224251184338e-01
2.957018001300453780e-01 4.892159799996704805e-01
2.966634320002003999e-01 8.688163956418755163e-01
2.976250638703554219e-01 9.526093440815976976e-01
2.985866957405104993e-01 9.458329074883273790e-01
2.995483276106654658e-01 8.674022786251249784e-01
3.005099594808204877e-01 7.127358864083248591e-01
3.014715913509755651e-01 5.687965879551413195e-01
3.024332232211305871e-01 5.762800727577577220e-01
3.033948550912856090e-01 6.572954397894079648e-01
3.043564869614405755e-01 7.718842606737226220e-01
3.053181188315956529e-01 6.553832195649320624e-01
3.062797507017506748e-01 6.422016561115242439e-01
3.072413825719056968e-01 5.700433988187256773e-01
3.082030144420607187e-01 6.800709639682764873e-01
3.091646463122157407e-01 8.495952633103733831e-01
3.101262781823707626e-01 8.625616413021326423e-01
3.110879100525257845e-01 5.474301791292148778e-01
3.120495419226808065e-01 5.759676571324021666e-01
3.130111737928358284e-01 6.883849888360664693e-01
3.139728056629909059e-01 5.335895239430712422e-01
3.149344375331459278e-01 3.626161870134900767e-01
3.158960694033008942e-01 3.731637465386761221e-01
3.168577012734559162e-01 5.328691742936868536e-01
3.178193331436109936e-01 5.886208009678064457e-01
3.187809650137660156e-01 6.154533977941660794e-01
3.197425968839210375e-01 3.533751392918311751e-01
3.207042287540760039e-01 4.035906071090131775e-01
3.216658606242310814e-01 3.328999774880827545e-01
3.226274924943861033e-01 5.657080584588243255e-01
3.235891243645411253e-01 4.733214494083455293e-01
3.245507562346961472e-01 3.348478701365493748e-01
3.255123881048511691e-01 2.199348473647120272e-01
3.264740199750061911e-01 4.425491123076277233e-01
3.274356518451612130e-01 3.130014251382249313e-01
3.283972837153162350e-01 1.246085904140379341e-01
3.293589155854712569e-01 4.269284482773372247e-02
3.303205474556263344e-01 1.718580860506442320e-01
3.312821793257813563e-01 1.001960566742710057e-01
3.322438111959363227e-01 0.000000000000000000e+00
3.332054430660913447e-01 6.982196757049052849e-02
3.341670749362464221e-01 2.429572502277430601e-01
3.351287068064014441e-01 1.625670587402581191e-01
3.360903386765564660e-01 1.862954588505267850e-01
3.370519705467114324e-01 3.136811341599674563e-01
3.380136024168665099e-01 3.289014300728361206e-01
3.389752342870215318e-01 3.430012232826058494e-01
3.399368661571765537e-01 2.272535616081192700e-01
3.408984980273315757e-01 6.398501294909664239e-02
3.418601298974865976e-01 2.255943788528291805e-01
3.428217617676416196e-01 1.743145024875616400e-01
3.437833936377966415e-01 3.171741941516401653e-01
3.447450255079516634e-01 3.855932017021110880e-01
3.457066573781066854e-01 3.767537161840088800e-01
3.466682892482617628e-01 5.316567620200771671e-01
3.476299211184167848e-01 3.148467780551236217e-01
3.485915529885717512e-01 2.116004579191113066e-01
3.495531848587267731e-01 7.895697878309704265e-02
3.505148167288818506e-01 9.905460880837324567e-02
3.514764485990368725e-01 1.420435445763352789e-01
3.524380804691918945e-01 4.146268830200732225e-01
3.533997123393468609e-01 4.630087843829464589e-01
3.543613442095019384e-01 2.566520713330078252e-01
3.553229760796569603e-01 3.895094837434527335e-01
3.562846079498119822e-01 5.235730274087444513e-01
3.572462398199670042e-01 2.717881676931419577e-01
3.582078716901220261e-01 3.384918149270035315e-01
3.591695035602770480e-01 4.203003359121453286e-01
3.601311354304320700e-01 2.878331422772326675e-01
3.610927673005870919e-01 3.345377777552833720e-01
3.620543991707421139e-01 3.527609432891729568e-01
3.630160310408971913e-01 3.755458056636911124e-01
3.639776629110522133e-01 3.771599473964748483e-01
3.649392947812071797e-01 3.949428496452718207e-01
3.659009266513622016e-01 3.287165172818440340e-01
3.668625585215172791e-01 1.705436377365643352e-01
3.678241903916723010e-01 1.247942809829076793e-01
3.687858222618273230e-01 2.524004376084292289e-01
3.697474541319822894e-01 3.915352526584392479e-01
3.707090860021373668e-01 3.259224528141260180e-01
3.716707178722923888e-01 3.899932588764443153e-01
3.726323497424474107e-01 4.300493820978843473e-01
3.735939816126024327e-01 5.109550112984528880e-01
3.745556134827574546e-01 3.748086710913831610e-01
3.755172453529124765e-01 3.857163589457002217e-01
3.764788772230674985e-01 4.130462978732118984e-01
3.774405090932225204e-01 6.099935465959731573e-01
3.784021409633775423e-01 3.969618107118577655e-01
3.793637728335326198e-01 2.961446934251057428e-01
3.803254047036876417e-01 3.562549439340756408e-01
3.812870365738426082e-01 4.022768266557186223e-01
3.822486684439976301e-01 4.098188464727954283e-01
3.832103003141527076e-01 3.342704521839401366e-01
3.841719321843077295e-01 3.809488930333486678e-01
3.851335640544627514e-01 5.190238119221106672e-01
3.860951959246177734e-01 4.435273142187377005e-01
3.870568277947727953e-01 3.399643176365927388e-01
3.880184596649278173e-01 2.690385693661774269e-01
3.889800915350828392e-01 2.967723605523922004e-01
3.899417234052378611e-01 2.963387697169892476e-01
3.909033552753928831e-01 4.078121962152181368e-01
3.918649871455479050e-01 4.190729023524752961e-01
3.928266190157029270e-01 4.468324279581707970e-01
3.937882508858579489e-01 4.518283491232111260e-01
3.947498827560129708e-01 4.958301535015721129e-01
3.957115146261680483e-01 5.023029421591864718e-01
3.966731464963230702e-01 3.544469438058222011e-01
3.976347783664780366e-01 2.952109448122151036e-01
3.985964102366330586e-01 3.510059206306728186e-01
3.995580421067881360e-01 3.122199553426021623e-01
4.005196739769430470e-01 4.170613952141799530e-01
4.014813058470981244e-01 3.440885717203663319e-01
4.024429377172531463e-01 3.529179478858388563e-01
4.034045695874082238e-01 4.254630694660690438e-01
