# q (1/Angstrom), Intensity (arb)
2.067508526570814575e-02 7.102954946845200084e+02
2.163671713586316769e-02 7.480694948130318380e+02
2.259834900601819310e-02 7.775659064038561610e+02
2.355998087617321851e-02 7.845864113223618688e+02
2.452161274632824739e-02 7.872602614006341355e+02
2.548324461648326933e-02 7.910413327573667175e+02
2.644487648663829821e-02 7.880462255578005397e+02
2.740650835679332709e-02 7.828246230995891892e+02
2.836814022694834903e-02 7.825002520493002294e+02
2.932977209710337443e-02 7.794585359312269475e+02
3.029140396725839637e-02 7.731217269082954999e+02
3.125303583741342178e-02 7.697074316884934433e+02
3.221466770756845066e-02 7.661363113931960243e+02
3.317629957772347260e-02 7.601447124457685049e+02
3.413793144787850148e-02 7.548124620782955390e+02
3.509956331803352342e-02 7.455157577170247123e+02
3.606119518818855230e-02 7.407784858885728454e+02
3.702282705834358117e-02 7.333837939147579164e+02
3.798445892849860311e-02 7.227518690213391892e+02
3.894609079865363199e-02 7.130614189797488507e+02
3.990772266880865393e-02 7.043837782250005830e+02
4.086935453896367587e-02 6.962346085071569632e+02
4.183098640911870475e-02 6.880329389586244133e+02
4.279261827927372669e-02 6.757128193496530457e+02
4.375425014942875557e-02 6.665951397540469543e+02
4.471588201958377751e-02 6.538919244123537737e+02
4.567751388973880639e-02 6.429355990921446846e+02
4.663914575989382832e-02 6.348866659703558071e+02
4.760077763004885720e-02 6.251915823494265396e+02
4.856240950020387914e-02 6.151979007486130513e+02
4.952404137035890108e-02 6.010292648285804944e+02
5.048567324051392302e-02 5.869245773766061802e+02
5.144730511066895190e-02 5.768595307757707360e+02
5.240893698082397384e-02 5.655667675764124169e+02
5.337056885097899578e-02 5.525261703710237953e+02
5.433220072113403160e-02 5.358917065141998819e+02
5.529383259128905354e-02 5.236275024541037055e+02
5.625546446144407547e-02 5.101770194349527401e+02
5.721709633159910435e-02 4.989800292916659714e+02
5.817872820175412629e-02 4.856084435327044275e+02
5.914036007190914823e-02 4.720886907910462469e+02
6.010199194206417017e-02 4.602750011702603956e+02
6.106362381221920599e-02 4.455227764036306439e+02
6.202525568237422793e-02 4.330369703086221307e+02
6.298688755252924987e-02 4.203009545352948066e+02
6.394851942268428568e-02 4.057588370603647263e+02
6.491015129283930762e-02 3.922495577918550680e+02
6.587178316299432956e-02 3.815336428808194000e+02
6.683341503314935150e-02 3.692049546471032500e+02
6.779504690330438732e-02 3.565186734815114846e+02
6.875667877345940926e-02 3.443623885263738202e+02
6.971831064361443120e-02 3.330882105529249202e+02
7.067994251376945314e-02 3.205377750824931695e+02
7.164157438392447508e-02 3.089745855153386174e+02
7.260320625407949702e-02 2.985058494526430195e+02
7.356483812423453283e-02 2.873185999119788221e+02
7.452646999438955477e-02 2.770265621489243699e+02
7.548810186454457671e-02 2.658577762398600157e+02
7.644973373469959865e-02 2.553309230799972909e+02
7.741136560485463447e-02 2.441377744908140244e+02
7.837299747500965641e-02 2.336077341184341378e+02
7.933462934516467835e-02 2.248963828397091902e+02
8.029626121531971417e-02 2.156836869090419668e+02
8.125789308547473611e-02 2.061720977586354877e+02
8.221952495562975805e-02 1.973127056575438587e+02
8.318115682578479386e-02 1.885171072208495104e+02
8.414278869593981580e-02 1.798822301433910127e+02
8.510442056609483774e-02 1.717503788592818808e+02
8.606605243624985968e-02 1.640094300756167627e+02
8.702768430640489550e-02 1.555301260059451636e+02
8.798931617655991744e-02 1.469606883934008863e+02
8.895094804671493938e-02 1.394822996879024686e+02
8.991257991686996132e-02 1.334546985579898148e+02
9.087421178702498326e-02 1.270207949610725677e+02
9.183584365718000520e-02 1.198377424689831798e+02
9.279747552733502713e-02 1.134512955109131269e+02
9.375910739749006295e-02 1.066594975394797302e+02
9.472073926764508489e-02 1.009625872293567852e+02
9.568237113780010683e-02 9.484037604850561820e+01
9.664400300795514265e-02 8.939900521569295222e+01
9.760563487811016459e-02 8.435500223556920218e+01
9.856726674826518653e-02 7.808900027493962170e+01
9.952889861842022234e-02 7.302116479203453991e+01
1.004905304885752443e-01 6.846646662660924676e+01
1.014521623587302801e-01 6.412171046417972775e+01
1.024137942288853020e-01 5.952173794202590074e+01
1.033754260990403240e-01 5.579509871137087629e+01
1.043370579691953459e-01 5.164807689994933071e+01
1.052986898393503817e-01 4.779092359968679204e+01
1.062603217095053898e-01 4.434702354713292038e+01
1.072219535796604256e-01 4.060441543699870692e+01
1.081835854498154614e-01 3.781094940495140833e+01
1.091452173199704695e-01 3.499790268703188190e+01
1.101068491901255053e-01 3.203944806912325305e+01
1.110684810602805411e-01 2.919049509192643654e+01
1.120301129304355492e-01 2.640272110666179728e+01
1.129917448005905850e-01 2.408037007188569945e+01
1.139533766707456208e-01 2.171897226835716666e+01
1.149150085409006289e-01 1.961453339228432924e+01
1.158766404110556647e-01 1.768489338469256822e+01
1.168382722812106728e-01 1.590293766500275296e+01
1.177999041513657086e-01 1.450532820935535483e+01
1.187615360215207305e-01 1.323376498427904124e+01
1.197231678916757525e-01 1.170562492955145117e+01
1.206847997618307744e-01 1.024427133630769049e+01
1.216464316319858102e-01 9.021734802277325826e+00
1.226080635021408183e-01 7.466703129905187808e+00
1.235696953722958541e-01 6.323547109913516096e+00
1.245313272424508899e-01 5.485115444461669654e+00
1.254929591126059119e-01 5.144762229191645275e+00
1.264545909827609338e-01 4.563149618507399197e+00
1.274162228529159557e-01 4.234283761069473684e+00
1.283778547230709777e-01 3.603720923679674115e+00
1.293394865932259996e-01 3.134767012288548926e+00
1.303011184633810493e-01 2.421166141991211163e+00
1.312627503335360435e-01 2.220289012973182707e+00
1.322243822036910932e-01 1.735221093959161465e+00
1.331860140738460874e-01 1.418940666910366133e+00
1.341476459440011371e-01 1.656823458732635146e+00
1.351092778141561590e-01 1.553338643002803110e+00
1.360709096843111809e-01 1.396332145399004077e+00
1.370325415544662029e-01 1.196022800937832642e+00
1.379941734246212526e-01 1.322725397157224592e+00
1.389558052947762468e-01 1.326626426347530696e+00
1.399174371649312965e-01 1.355485284184620554e+00
1.408790690350863184e-01 1.435220571006563972e+00
1.418407009052413403e-01 1.479948482208790494e+00
1.428023327753963623e-01 1.622653855204681861e+00
1.437639646455513842e-01 1.838869590105854712e+00
1.447255965157064062e-01 2.012350021824286017e+00
1.456872283858614281e-01 2.688958301809464047e+00
1.466488602560164778e-01 2.836255786168120352e+00
1.476104921261714720e-01 2.739931957699685228e+00
1.485721239963265217e-01 2.970052511372202275e+00
1.495337558664815436e-01 3.237424453513646938e+00
1.504953877366365655e-01 3.509565183886198980e+00
1.514570196067915875e-01 3.776719933016256192e+00
1.524186514769466094e-01 4.349042448630214608e+00
1.533802833471016314e-01 4.470413577540607974e+00
1.543419152172566811e-01 4.751305817423880029e+00
1.553035470874116752e-01 4.699025122165689794e+00
1.562651789575667249e-01 4.943275461972572060e+00
1.572268108277217469e-01 5.387736629144839640e+00
1.581884426978767688e-01 5.507705302292979610e+00
1.591500745680317908e-01 5.563127170379612352e+00
1.601117064381868405e-01 5.978012592116360935e+00
1.610733383083418346e-01 6.041190871176969068e+00
1.620349701784968843e-01 5.985280493303356764e+00
1.629966020486519063e-01 6.160378078545207359e+00
1.639582339188069282e-01 6.402577334661419428e+00
1.649198657889619501e-01 6.820227735293610039e+00
1.658814976591169721e-01 6.830797626705582104e+00
1.668431295292719940e-01 6.747117613952084980e+00
1.678047613994270160e-01 6.932095454883896224e+00
1.687663932695820379e-01 6.834256402124843532e+00
1.697280251397370598e-01 6.678214606248296548e+00
1.706896570098921095e-01 6.638180440609872335e+00
1.716512888800471037e-01 6.356431749834793976e+00
1.726129207502021534e-01 6.583314883436834464e+00
1.735745526203571754e-01 6.908000025486117579e+00
1.745361844905121973e-01 6.764380844694592554e+00
1.754978163606672192e-01 7.015807928800636972e+00
1.764594482308222689e-01 6.786465818302282571e+00
1.774210801009772631e-01 6.815245541650504890e+00
1.783827119711323128e-01 6.696794788388203301e+00
1.793443438412873348e-01 6.873659138863736473e+00
1.803059757114423567e-01 6.932482662312644095e+00
1.812676075815973786e-01 6.657133165638200012e+00
1.822292394517524006e-01 6.340080429024535391e+00
1.831908713219074225e-01 6.040457134877659229e+00
1.841525031920624444e-01 6.000948256806651671e+00
1.851141350622174664e-01 6.140243054662477107e+00
1.860757669323724883e-01 6.181525747542057303e+00
1.870373988025275380e-01 5.904786603078175489e+00
1.879990306726825322e-01 5.441053920995756243e+00
1.889606625428375819e-01 5.598814101675518629e+00
1.899222944129926038e-01 5.232447346622848272e+00
1.908839262831476258e-01 4.929462629617969327e+00
1.918455581533026477e-01 4.964226626647526786e+00
1.928071900234576974e-01 4.863858166687013096e+00
1.937688218936126916e-01 4.780149868050585837e+00
1.947304537637677413e-01 4.615300188055719843e+00
1.956920856339227632e-01 4.551284771311607358e+00
1.966537175040777852e-01 4.479625047519071757e+00
1.976153493742328071e-01 4.074976838673478596e+00
1.985769812443878291e-01 3.787413104122812513e+00
1.995386131145428510e-01 3.478783559368540779e+00
2.005002449846978729e-01 3.175106570452189914e+00
2.014618768548528949e-01 3.129443720429161857e+00
2.024235087250079168e-01 3.176261833316690542e+00
2.033851405951629665e-01 3.048635036815454669e+00
2.043467724653179884e-01 2.853731031997174483e+00
2.053084043354730381e-01 2.841240019233019609e+00
2.062700362056280046e-01 2.595877013401636901e+00
2.072316680757830543e-01 2.298314161676145773e+00
2.081932999459380762e-01 2.162100973346674948e+00
2.091549318160931259e-01 2.128543528235422144e+00
2.101165636862481478e-01 1.974428887795717458e+00
2.110781955564031698e-01 1.864767702648471470e+00
2.120398274265581640e-01 1.643378556919429911e+00
2.130014592967132137e-01 1.223644341880181230e+00
2.139630911668682356e-01 1.228861054468961100e+00
2.149247230370232575e-01 1.183015098856056824e+00
2.158863549071783072e-01 1.182096832294330824e+00
2.168479867773333014e-01 1.106272946410122415e+00
2.178096186474883234e-01 9.517810566187634436e-01
2.187712505176433453e-01 8.284008998548344493e-01
2.197328823877983950e-01 8.618097136355480359e-01
2.206945142579534169e-01 5.915269421142710371e-01
2.216561461281084666e-01 5.307095801935162172e-01
2.226177779982634330e-01 6.128378365203346334e-01
2.235794098684184827e-01 7.048523283335867973e-01
2.245410417385735047e-01 2.254160328455796503e-01
2.255026736087285544e-01 2.942733850607801571e-01
2.264643054788835763e-01 5.081762911389802184e-01
2.274259373490385983e-01 5.166909197700917389e-01
2.283875692191935924e-01 3.440982877470588619e-01
2.293492010893486421e-01 3.787072432177147618e-01
2.303108329595036641e-01 1.933954724958439897e-01
2.312724648296586860e-01 3.632784792160492771e-01
2.322340966998137357e-01 3.283077328870973588e-01
2.331957285699687299e-01 2.343306806188074631e-01
2.341573604401237518e-01 2.232989697419007769e-01
2.351189923102787738e-01 0.000000000000000000e+00
2.360806241804338235e-01 2.401717964641036929e-02
2.370422560505888454e-01 1.107641427577021886e-01
2.380038879207438951e-01 1.498269619317156298e-01
2.389655197908988615e-01 1.390253443184228388e-01
2.399271516610539112e-01 1.898504006002745825e-01
2.408887835312089332e-01 5.272589539364140876e-01
2.418504154013639829e-01 3.867746616574585516e-01
2.428120472715190048e-01 4.971998483989565898e-01
2.437736791416740267e-01 4.842013567295566645e-01
2.447353110118290209e-01 5.691610950315855177e-01
2.456969428819840706e-01 3.887679124094027827e-01
2.466585747521390926e-01 5.381212016459002712e-01
2.476202066222941145e-01 4.410237521494906332e-01
2.485818384924491642e-01 6.676491289301687004e-01
2.495434703626041584e-01 7.521095751336872581e-01
2.505051022327591803e-01 5.419401080177621566e-01
2.514667341029142023e-01 4.362934952609300865e-01
2.524283659730692242e-01 6.175065091016911367e-01
2.533899978432243016e-01 6.814228270600999338e-01
2.543516297133793236e-01 8.332605241693400444e-01
2.553132615835342900e-01 6.472006953407891672e-01
2.562748934536893120e-01 8.656436326699825656e-01
2.572365253238443894e-01 8.007295832645162648e-01
2.581981571939994113e-01 7.879664136985766731e-01
2.591597890641544333e-01 5.709608415882101440e-01
2.601214209343094552e-01 6.673519071410254355e-01
2.610830528044644772e-01 5.972813012114279729e-01
2.620446846746194991e-01 8.931488902260369400e-01
2.630063165447745210e-01 9.514241566589944910e-01
2.639679484149295430e-01 8.772946300844637335e-01
2.649295802850845649e-01 1.210478361314702767e+00
2.658912121552395869e-01 1.379933847117452927e+00
2.668528440253946088e-01 1.418606515351225283e+00
2.678144758955496307e-01 1.501357678612226465e+00
2.687761077657046527e-01 1.169444942962176270e+00
2.697377396358597301e-01 1.090616612474704539e+00
2.706993715060147521e-01 9.483210798372070371e-01
2.716610033761697185e-01 8.589149789152514813e-01
2.726226352463247404e-01 9.569746946323149928e-01
2.735842671164798179e-01 9.239099285033809394e-01
2.745458989866348398e-01 8.570582622408302598e-01
2.755075308567898618e-01 9.500809223233126488e-01
2.764691627269448837e-01 1.009452443037432090e+00
2.774307945970999056e-01 9.736315073760692940e-01
2.783924264672549276e-01 1.151503817058788570e+00
2.793540583374099495e-01 1.178040423477103360e+00
2.803156902075649715e-01 1.210310706684492033e+00
2.812773220777199934e-01 1.243934864159893294e+00
2.822389539478750153e-01 1.097235362121512736e+00
2.832005858180300373e-01 9.187798575057328776e-01
2.841622176881850592e-01 1.006049259429044440e+00
2.851238495583400812e-01 8.688683589787515871e-01
2.860854814284951586e-01 7.382377079608950510e-01
2.870471132986501805e-01 7.580558293422363647e-01
2.880087451688051470e-01 8.960340495370004987e-01
2.889703770389601689e-01 9.188231791049510377e-01
2.899320089091152464e-01 1.014384960007355119e+00
2.908936407792702683e-01 1.006595191523707911e+00
2.918552726494252902e-01 8.947923170965026429e-01
2.928169045195803122e-01 8.491621345391777709e-01
2.937785363897353341e-01 7.807730739977394308e-01
2.947401682598903561e-01 9.029491784668657317e-01
2.957018001300453780e-01 6.801993195387829871e-01
2.966634320002003999e-01 5.252283551875756018e-01
2.976250638703554219e-01 5.741956401413546018e-01
2.985866957405104993e-01 6.786898420538918231e-01
2.995483276106654658e-01 3.779211146873855398e-01
3.005099594808204877e-01 4.012444261713348226e-01
3.014715913509755651e-01 4.581994924771244371e-01
3.024332232211305871e-01 4.756153893789338838e-01
3.033948550912856090e-01 4.695633784998172189e-01
3.043564869614405755e-01 4.873762585878829157e-01
3.053181188315956529e-01 4.623961291307736587e-01
3.062797507017506748e-01 3.600583044213401251e-01
3.072413825719056968e-01 3.443847351974440585e-01
3.082030144420607187e-01 2.516946737478420459e-01
3.091646463122157407e-01 4.159336405612208409e-01
3.101262781823707626e-01 3.307032341304996237e-01
3.110879100525257845e-01 3.148327967950201867e-01
3.120495419226808065e-01 1.587148256029706772e-01
3.130111737928358284e-01 1.881316781043658182e-01
3.139728056629909059e-01 2.064422963351155715e-01
3.149344375331459278e-01 1.420419166473578798e-01
3.158960694033008942e-01 9.558359825171791613e-02
3.168577012734559162e-01 2.529691897354275909e-01
3.178193331436109936e-01 2.477613632977373470e-01
3.187809650137660156e-01 3.508875625008052168e-01
3.197425968839210375e-01 2.437719258646531273e-01
3.207042287540760039e-01 1.844324132887820156e-02
3.216658606242310814e-01 1.982512131073299599e-01
3.226274924943861033e-01 2.636346473509902921e-01
3.235891243645411253e-01 1.757726097371410390e-01
3.245507562346961472e-01 1.584434957290810075e-01
3.255123881048511691e-01 8.706685969891125865e-02
3.264740199750061911e-01 3.902601828806950834e-02
3.274356518451612130e-01 7.046513296609546728e-02
3.283972837153162350e-01 5.459440382302460648e-02
3.293589155854712569e-01 1.066378660471549722e-01
3.303205474556263344e-01 3.835052485089818219e-02
3.312821793257813563e-01 7.217455620716251019e-02
3.322438111959363227e-01 2.149043334118232451e-01
3.332054430660913447e-01 2.736791914981395735e-01
3.341670749362464221e-01 2.828151171132944341e-01
3.351287068064014441e-01 3.183367411850213102e-01
3.360903386765564660e-01 2.664417069214906064e-01
3.370519705467114324e-01 1.849050264446674419e-01
3.380136024168665099e-01 1.074478740548592270e-01
3.389752342870215318e-01 7.479486881253905040e-02
3.399368661571765537e-01 1.690150930306586474e-01
3.408984980273315757e-01 2.488239971779897530e-01
3.418601298974865976e-01 1.965876876371979165e-01
3.428217617676416196e-01 2.258996152218237796e-01
3.437833936377966415e-01 1.881358168740661085e-01
3.447450255079516634e-01 2.954901098079396604e-01
3.457066573781066854e-01 3.686095836366298784e-01
3.466682892482617628e-01 2.967042906155512583e-01
3.476299211184167848e-01 2.010124859655597618e-01
3.485915529885717512e-01 1.378011621958528110e-01
3.495531848587267731e-01 3.460182842166297235e-01
3.505148167288818506e-01 2.686716635368604500e-01
3.514764485990368725e-01 4.091555422984782808e-01
3.524380804691918945e-01 4.995820130326471542e-01
3.533997123393468609e-01 2.988858158806699805e-01
3.543613442095019384e-01 4.093928491243481460e-01
3.553229760796569603e-01 5.174098906840178813e-01
3.562846079498119822e-01 6.187496935038545587e-01
3.572462398199670042e-01 6.211948207572532965e-01
3.582078716901220261e-01 5.803007230667205363e-01
3.591695035602770480e-01 5.084099361807297157e-01
3.601311354304320700e-01 4.612830466596058443e-01
3.610927673005870919e-01 2.116947944877551890e-01
3.620543991707421139e-01 1.085663251854960265e-01
3.630160310408971913e-01 2.753456162481953129e-01
3.639776629110522133e-01 4.027046148862893915e-01
3.649392947812071797e-01 4.715376652717750972e-01
3.659009266513622016e-01 4.131470263220791139e-01
3.668625585215172791e-01 3.203906997161247716e-01
3.678241903916723010e-01 4.599556815519179054e-01
3.687858222618273230e-01 4.663073861999400549e-01
3.697474541319822894e-01 4.164959072103151527e-01
3.707090860021373668e-01 3.753447386408552688e-01
3.716707178722923888e-01 2.818455487484996524e-01
3.726323497424474107e-01 3.234865702176925595e-01
3.735939816126024327e-01 3.861023728228722973e-01
3.745556134827574546e-01 4.923945152371018708e-01
3.755172453529124765e-01 4.719539618018018245e-01
3.764788772230674985e-01 5.533365142436821316e-01
3.774405090932225204e-01 3.679087171107227050e-01
3.784021409633775423e-01 1.602715691043208324e-01
3.793637728335326198e-01 1.366123958342093658e-01
3.803254047036876417e-01 4.196104585758391181e-01
3.812870365738426082e-01 2.736487194855641292e-01
3.822486684439976301e-01 3.684442727619448021e-01
3.832103003141527076e-01 4.964907524372641490e-01
3.841719321843077295e-01 5.292734465307340486e-01
3.851335640544627514e-01 3.540403619079697251e-01
3.860951959246177734e-01 3.874646364045375435e-01
3.870568277947727953e-01 3.860314634841728321e-01
3.880184596649278173e-01 4.692511747000622790e-01
3.889800915350828392e-01 3.332594175894492139e-01
3.899417234052378611e-01 2.330132274465164244e-01
3.909033552753928831e-01 4.894108115077635546e-01
3.918649871455479050e-01 5.034900828010719920e-01
3.928266190157029270e-01 3.637102173894248835e-01
3.937882508858579489e-01 4.777688203085581620e-01
3.947498827560129708e-01 3.685485721899262046e-01
3.957115146261680483e-01 2.497430248453902379e-01
3.966731464963230702e-01 2.584727314916719365e-01
3.976347783664780366e-01 3.342153163821173223e-01
3.985964102366330586e-01 3.428389581146085163e-01
3.995580421067881360e-01 3.847546232104122055e-01
4.005196739769430470e-01 4.128201803806774706e-01
4.014813058470981244e-01 3.383270007432201965e-01
4.024429377172531463e-01 3.770003863124848920e-01
4.034045695874082238e-01 2.877129132989466598e-01
