# q (1/Angstrom), Intensity (arb)
2.067508526570814575e-02 7.320533592216362422e+02
2.163671713586316769e-02 7.650733265398265530e+02
2.259834900601819310e-02 7.919826544629797809e+02
2.355998087617321851e-02 8.054368206228701865e+02
2.452161274632824739e-02 8.089568829351761678e+02
2.548324461648326933e-02 8.129193681572720607e+02
2.644487648663829821e-02 8.121050525156084632e+02
2.740650835679332709e-02 8.088967044250208573e+02
2.836814022694834903e-02 8.040295949933647535e+02
2.932977209710337443e-02 8.017101701783936960e+02
3.029140396725839637e-02 7.970831933056917933e+02
3.125303583741342178e-02 7.912195616700257688e+02
3.221466770756845066e-02 7.828718390030928731e+02
3.317629957772347260e-02 7.739659725809691508e+02
3.413793144787850148e-02 7.693803620210378540e+02
3.509956331803352342e-02 7.641064240800379821e+02
3.606119518818855230e-02 7.593322523649131881e+02
3.702282705834358117e-02 7.493170282552762274e+02
3.798445892849860311e-02 7.410476608700327006e+02
3.894609079865363199e-02 7.319707388682892315e+02
3.990772266880865393e-02 7.220666593005879577e+02
4.086935453896367587e-02 7.158350062935504639e+02
4.183098640911870475e-02 7.090911181835120942e+02
4.279261827927372669e-02 6.948111345253115587e+02
4.375425014942875557e-02 6.845235387044759818e+02
4.471588201958377751e-02 6.706296361053674673e+02
4.567751388973880639e-02 6.635291776870690228e+02
4.663914575989382832e-02 6.525377808398253592e+02
4.760077763004885720e-02 6.400285203278061772e+02
4.856240950020387914e-02 6.293987359100784715e+02
4.952404137035890108e-02 6.157507074421192783e+02
5.048567324051392302e-02 6.048913072105398214e+02
5.144730511066895190e-02 5.926819922814322581e+02
5.240893698082397384e-02 5.787105708979977408e+02
5.337056885097899578e-02 5.649418668350915596e+02
5.433220072113403160e-02 5.501814279373119234e+02
5.529383259128905354e-02 5.355923394184886774e+02
5.625546446144407547e-02 5.226744378734168777e+02
5.721709633159910435e-02 5.103950716287459954e+02
5.817872820175412629e-02 4.969090620822007622e+02
5.914036007190914823e-02 4.828975022659877254e+02
6.010199194206417017e-02 4.684192501909766406e+02
6.106362381221920599e-02 4.554062516320588543e+02
6.202525568237422793e-02 4.405201418863089771e+02
6.298688755252924987e-02 4.267964529717115170e+02
6.394851942268428568e-02 4.147553556474319976e+02
6.491015129283930762e-02 4.029069785683903433e+02
6.587178316299432956e-02 3.916662333506249070e+02
6.683341503314935150e-02 3.788726486420306969e+02
6.779504690330438732e-02 3.663868118511020384e+02
6.875667877345940926e-02 3.530243420770089529e+02
6.971831064361443120e-02 3.400903329221038121e+02
7.067994251376945314e-02 3.281361459248570327e+02
7.164157438392447508e-02 3.171208773300098187e+02
7.260320625407949702e-02 3.068492641114763728e+02
7.356483812423453283e-02 2.943888234077307402e+02
7.452646999438955477e-02 2.815414580394680115e+02
7.548810186454457671e-02 2.704058097317019360e+02
7.644973373469959865e-02 2.594505212022163505e+02
7.741136560485463447e-02 2.505356618738000805e+02
7.837299747500965641e-02 2.402347248115869718e+02
7.933462934516467835e-02 2.299487224191085204e+02
8.029626121531971417e-02 2.211424243014609488e+02
8.125789308547473611e-02 2.114620729915282880e+02
8.221952495562975805e-02 2.021753879994067233e+02
8.318115682578479386e-02 1.926996693643295089e+02
8.414278869593981580e-02 1.840225102835224789e+02
8.510442056609483774e-02 1.754313404817866910e+02
8.606605243624985968e-02 1.685916845364553751e+02
8.702768430640489550e-02 1.591707105182347561e+02
8.798931617655991744e-02 1.508290087360690563e+02
8.895094804671493938e-02 1.432971504344713765e+02
8.991257991686996132e-02 1.358020514280416933e+02
9.087421178702498326e-02 1.284011269989086941e+02
9.183584365718000520e-02 1.220914864342913546e+02
9.279747552733502713e-02 1.151370373959925928e+02
9.375910739749006295e-02 1.080135609275149307e+02
9.472073926764508489e-02 1.025961644259135710e+02
9.568237113780010683e-02 9.638658275857947899e+01
9.664400300795514265e-02 9.055277585523744222e+01
9.760563487811016459e-02 8.508652049017742058e+01
9.856726674826518653e-02 7.978960352683020574e+01
9.952889861842022234e-02 7.461597901258326715e+01
1.004905304885752443e-01 6.989405336246383627e+01
1.014521623587302801e-01 6.497418366037263127e+01
1.024137942288853020e-01 6.083265858509589918e+01
1.033754260990403240e-01 5.706851298276706075e+01
1.043370579691953459e-01 5.310212924372616783e+01
1.052986898393503817e-01 4.810720172612850831e+01
1.062603217095053898e-01 4.456954744948140501e+01
1.072219535796604256e-01 4.184077793891085406e+01
1.081835854498154614e-01 3.811530829243088192e+01
1.091452173199704695e-01 3.505767158965207386e+01
1.101068491901255053e-01 3.226065067464099911e+01
1.110684810602805411e-01 2.982583660747156884e+01
1.120301129304355492e-01 2.732376617463501134e+01
1.129917448005905850e-01 2.491369314807721125e+01
1.139533766707456208e-01 2.212374679589176907e+01
1.149150085409006289e-01 1.993323773769439455e+01
1.158766404110556647e-01 1.787486713901692426e+01
1.168382722812106728e-01 1.593376499803267521e+01
1.177999041513657086e-01 1.420075879354110171e+01
1.187615360215207305e-01 1.269736649180027044e+01
1.197231678916757525e-01 1.112889444235539926e+01
1.206847997618307744e-01 9.867213405987680375e+00
1.216464316319858102e-01 9.224795486846829817e+00
1.226080635021408183e-01 7.946076747001701079e+00
1.235696953722958541e-01 6.809930846157900675e+00
1.245313272424508899e-01 6.056489778157569503e+00
1.254929591126059119e-01 5.433692600247823634e+00
1.264545909827609338e-01 4.721675214048602243e+00
1.274162228529159557e-01 4.142350959159021073e+00
1.283778547230709777e-01 3.440722343427278673e+00
1.293394865932259996e-01 3.095228592233468135e+00
1.303011184633810493e-01 2.687347188104109108e+00
1.312627503335360435e-01 2.431103062205711041e+00
1.322243822036910932e-01 1.911801891093865891e+00
1.331860140738460874e-01 1.627837885342430013e+00
1.341476459440011371e-01 1.610030331734506603e+00
1.351092778141561590e-01 1.662131782450856576e+00
1.360709096843111809e-01 1.554752714515501566e+00
1.370325415544662029e-01 1.284739890298705944e+00
1.379941734246212526e-01 1.316837734407659610e+00
1.389558052947762468e-01 1.319107202926772970e+00
1.399174371649312965e-01 1.168861861206572428e+00
1.408790690350863184e-01 1.642059968168251061e+00
1.418407009052413403e-01 1.857324920455404538e+00
1.428023327753963623e-01 1.923916045705624356e+00
1.437639646455513842e-01 2.455167516342161349e+00
1.447255965157064062e-01 2.740646911524315499e+00
1.456872283858614281e-01 2.988665700862519259e+00
1.466488602560164778e-01 2.973282811638245704e+00
1.476104921261714720e-01 2.988168176632552075e+00
1.485721239963265217e-01 3.217434363427393862e+00
1.495337558664815436e-01 3.333621446811658728e+00
1.504953877366365655e-01 3.453910108630150688e+00
1.514570196067915875e-01 3.797055292023706841e+00
1.524186514769466094e-01 4.116540891461752949e+00
1.533802833471016314e-01 4.425271852415423979e+00
1.543419152172566811e-01 4.661977432851358571e+00
1.553035470874116752e-01 4.851055621505921067e+00
1.562651789575667249e-01 5.219958015713498156e+00
1.572268108277217469e-01 5.403582574966058871e+00
1.581884426978767688e-01 5.424854142907339138e+00
1.591500745680317908e-01 5.626305247808680576e+00
1.601117064381868405e-01 6.041064184762294786e+00
1.610733383083418346e-01 6.212933538021115254e+00
1.620349701784968843e-01 6.280780317930865664e+00
1.629966020486519063e-01 6.581196124440452877e+00
1.639582339188069282e-01 6.654254964984236409e+00
1.649198657889619501e-01 6.895096948109824098e+00
1.658814976591169721e-01 7.286760346228863483e+00
1.668431295292719940e-01 7.206456336155373066e+00
1.678047613994270160e-01 6.985502224092311252e+00
1.687663932695820379e-01 7.187467648236602002e+00
1.697280251397370598e-01 7.351094458738792525e+00
1.706896570098921095e-01 7.322040951725600877e+00
1.716512888800471037e-01 7.461018214492433742e+00
1.726129207502021534e-01 7.511547904527802189e+00
1.735745526203571754e-01 7.277933250077101235e+00
1.745361844905121973e-01 7.331697919404902564e+00
1.754978163606672192e-01 7.276265450207599628e+00
1.764594482308222689e-01 7.227390229857107329e+00
1.774210801009772631e-01 7.442299758054044645e+00
1.783827119711323128e-01 7.258797702819048681e+00
1.793443438412873348e-01 6.973825211653807088e+00
1.803059757114423567e-01 7.039391262370596536e+00
1.812676075815973786e-01 6.868570239836351732e+00
1.822292394517524006e-01 7.038108487902658084e+00
1.831908713219074225e-01 6.760736876412636320e+00
1.841525031920624444e-01 6.595676541640653312e+00
1.851141350622174664e-01 6.118052854161948773e+00
1.860757669323724883e-01 6.096281657312697888e+00
1.870373988025275380e-01 6.296210007793945351e+00
1.879990306726825322e-01 5.764601314844778557e+00
1.889606625428375819e-01 5.425150757517315014e+00
1.899222944129926038e-01 5.367984650791541412e+00
1.908839262831476258e-01 5.181075798659744436e+00
1.918455581533026477e-01 4.896138463893414894e+00
1.928071900234576974e-01 4.847502644498959512e+00
1.937688218936126916e-01 4.817996724117570295e+00
1.947304537637677413e-01 4.732139091890186222e+00
1.956920856339227632e-01 4.319042809461507204e+00
1.966537175040777852e-01 4.184241774674298142e+00
1.976153493742328071e-01 4.012320985139304241e+00
1.985769812443878291e-01 3.780144221444686536e+00
1.995386131145428510e-01 3.732910738471673540e+00
2.005002449846978729e-01 3.665781760280072632e+00
2.014618768548528949e-01 3.533463592126889097e+00
2.024235087250079168e-01 2.924441009229372668e+00
2.033851405951629665e-01 2.832656863862474950e+00
2.043467724653179884e-01 2.637908961722082779e+00
2.053084043354730381e-01 2.562314170749278475e+00
2.062700362056280046e-01 2.273250485851288971e+00
2.072316680757830543e-01 2.147513980332231398e+00
2.081932999459380762e-01 2.289247859313412903e+00
2.091549318160931259e-01 2.354960723377185872e+00
2.101165636862481478e-01 1.953313931400078474e+00
2.110781955564031698e-01 1.736016720630178867e+00
2.120398274265581640e-01 1.427994629096343004e+00
2.130014592967132137e-01 1.518136488969219045e+00
2.139630911668682356e-01 1.473125651008508896e+00
2.149247230370232575e-01 1.194625553288137354e+00
2.158863549071783072e-01 1.130893235299009092e+00
2.168479867773333014e-01 9.115418401384118852e-01
2.178096186474883234e-01 1.166084030209450617e+00
2.187712505176433453e-01 1.049938090766314502e+00
2.197328823877983950e-01 6.990451374159185605e-01
2.206945142579534169e-01 8.136038715815416822e-01
2.216561461281084666e-01 6.418181437686278912e-01
2.226177779982634330e-01 6.193550211102021308e-01
2.235794098684184827e-01 4.888612421087650262e-01
2.245410417385735047e-01 4.083568582822891813e-01
2.255026736087285544e-01 5.844058132330651745e-01
2.264643054788835763e-01 5.966673679568579303e-01
2.274259373490385983e-01 5.870314561010729904e-01
2.283875692191935924e-01 4.271013211549465893e-01
2.293492010893486421e-01 5.130638032867906873e-01
2.303108329595036641e-01 6.017459664634898786e-01
2.312724648296586860e-01 5.286078977591692762e-01
2.322340966998137357e-01 5.052081611509642300e-01
2.331957285699687299e-01 2.979821424664841345e-01
2.341573604401237518e-01 1.949962435739820421e-01
2.351189923102787738e-01 3.774633956536632695e-01
2.360806241804338235e-01 4.157704562734032550e-01
2.370422560505888454e-01 2.701329089619086687e-01
2.380038879207438951e-01 2.834357115029533247e-01
2.389655197908988615e-01 2.229507720365084822e-01
2.399271516610539112e-01 3.547433848056833483e-01
2.408887835312089332e-01 3.947697869312776220e-01
2.418504154013639829e-01 2.930696809222048671e-01
2.428120472715190048e-01 2.645174935904499591e-01
2.437736791416740267e-01 2.877516758415588072e-01
2.447353110118290209e-01 3.775091683963189837e-01
2.456969428819840706e-01 3.890103016337675967e-01
2.466585747521390926e-01 5.087682290910606753e-01
2.476202066222941145e-01 3.399346452193192647e-01
2.485818384924491642e-01 5.233529220733785792e-01
2.495434703626041584e-01 6.537157509469224692e-01
2.505051022327591803e-01 8.314587798019559273e-01
2.514667341029142023e-01 7.189019052589813441e-01
2.524283659730692242e-01 8.157993675055692506e-01
2.533899978432243016e-01 6.686054518818416170e-01
2.543516297133793236e-01 6.480146399858810469e-01
2.553132615835342900e-01 7.800066189197885080e-01
2.562748934536893120e-01 8.708528106205690733e-01
2.572365253238443894e-01 7.734707599381138721e-01
2.581981571939994113e-01 9.494781019961280322e-01
2.591597890641544333e-01 8.807536205235635407e-01
2.601214209343094552e-01 9.502658159630890111e-01
2.610830528044644772e-01 9.690162855444270917e-01
2.620446846746194991e-01 1.088477124329500612e+00
2.630063165447745210e-01 1.103809402919164739e+00
2.639679484149295430e-01 1.135071570759961901e+00
2.649295802850845649e-01 1.021146410098438650e+00
2.658912121552395869e-01 1.109812570336181636e+00
2.668528440253946088e-01 1.177095313703805601e+00
2.678144758955496307e-01 1.172186158717327231e+00
2.687761077657046527e-01 1.097396713856543471e+00
2.697377396358597301e-01 1.061944245410863630e+00
2.706993715060147521e-01 9.860346461606717128e-01
2.716610033761697185e-01 1.122283241900117190e+00
2.726226352463247404e-01 1.148940453683163554e+00
2.735842671164798179e-01 1.222973885754743861e+00
2.745458989866348398e-01 1.123573913919557299e+00
2.755075308567898618e-01 1.089635148784637408e+00
2.764691627269448837e-01 1.005930240155823441e+00
2.774307945970999056e-01 9.114150919936747641e-01
2.783924264672549276e-01 1.065058650604505885e+00
2.793540583374099495e-01 1.155163138880567431e+00
2.803156902075649715e-01 1.080195065826021761e+00
2.812773220777199934e-01 9.402658069174201216e-01
2.822389539478750153e-01 1.161074442294857789e+00
2.832005858180300373e-01 8.100057716841178035e-01
2.841622176881850592e-01 7.358518445531316843e-01
2.851238495583400812e-01 8.981857833645108258e-01
2.860854814284951586e-01 9.988476636899257244e-01
2.870471132986501805e-01 1.048775133080631861e+00
2.880087451688051470e-01 1.190246699910346706e+00
2.889703770389601689e-01 9.103330806995764135e-01
2.899320089091152464e-01 7.309478319207585173e-01
2.908936407792702683e-01 6.702957452442284136e-01
2.918552726494252902e-01 8.821423097639105038e-01
2.928169045195803122e-01 9.968799177415057500e-01
2.937785363897353341e-01 9.780934521757238542e-01
2.947401682598903561e-01 7.535621887940990860e-01
2.957018001300453780e-01 6.130532826748051889e-01
2.966634320002003999e-01 7.563639862680311410e-01
2.976250638703554219e-01 6.643814422510914142e-01
2.985866957405104993e-01 5.946350703827505413e-01
2.995483276106654658e-01 7.434156631243098445e-01
3.005099594808204877e-01 6.491470279307449687e-01
3.014715913509755651e-01 5.951741701062225331e-01
3.024332232211305871e-01 6.998041616894496997e-01
3.033948550912856090e-01 6.245131563565990973e-01
3.043564869614405755e-01 6.433105111701777901e-01
3.053181188315956529e-01 6.533464461346234486e-01
3.062797507017506748e-01 6.228022611191477154e-01
3.072413825719056968e-01 5.835110305889017468e-01
3.082030144420607187e-01 4.426639745515608126e-01
3.091646463122157407e-01 2.683261002348125146e-01
3.101262781823707626e-01 3.239548616943181969e-01
3.110879100525257845e-01 4.413539453172603544e-01
3.120495419226808065e-01 4.880014682622650923e-01
3.130111737928358284e-01 2.450662751260708205e-01
3.139728056629909059e-01 3.736138680717715488e-02
3.149344375331459278e-01 6.531443510297663124e-03
3.158960694033008942e-01 5.957823423325692147e-02
3.168577012734559162e-01 2.885087566170305706e-01
3.178193331436109936e-01 3.591654288170715859e-01
3.187809650137660156e-01 3.527627365702592499e-01
3.197425968839210375e-01 1.342690939566324460e-01
3.207042287540760039e-01 1.019693342048455520e-01
3.216658606242310814e-01 1.275051610237731836e-01
3.226274924943861033e-01 0.000000000000000000e+00
3.235891243645411253e-01 1.529728543644779393e-01
3.245507562346961472e-01 4.101418550131015195e-01
3.255123881048511691e-01 4.382239042117674899e-01
3.264740199750061911e-01 2.889220159938759025e-01
3.274356518451612130e-01 2.956575722867569311e-01
3.283972837153162350e-01 4.718238852290923546e-01
3.293589155854712569e-01 5.290878873559883289e-01
3.303205474556263344e-01 4.068213201671042611e-01
3.312821793257813563e-01 2.649422195830339888e-01
3.322438111959363227e-01 3.087508263719342949e-01
3.332054430660913447e-01 3.722755509879220881e-01
3.341670749362464221e-01 3.711785653295542886e-01
3.351287068064014441e-01 3.869468224485395069e-01
3.360903386765564660e-01 3.510580324735990132e-01
3.370519705467114324e-01 3.300732744801564422e-01
3.380136024168665099e-01 3.967347577603064224e-01
3.389752342870215318e-01 3.651158393287090576e-01
3.399368661571765537e-01 4.560817426256349449e-01
3.408984980273315757e-01 4.782319264498440248e-01
3.418601298974865976e-01 4.470388009960153397e-01
3.428217617676416196e-01 2.501904923639806100e-01
3.437833936377966415e-01 2.489366793236023057e-01
3.447450255079516634e-01 4.255248898605756835e-01
3.457066573781066854e-01 5.436700090348480785e-01
3.466682892482617628e-01 4.451912951515488714e-01
3.476299211184167848e-01 4.771682801975920540e-01
3.485915529885717512e-01 4.159348428285198906e-01
3.495531848587267731e-01 3.623341496142593599e-01
3.505148167288818506e-01 4.899062241783127547e-01
3.514764485990368725e-01 4.148122608595485872e-01
3.524380804691918945e-01 4.045854540496165441e-01
3.533997123393468609e-01 3.948468443693258223e-01
3.543613442095019384e-01 3.422353144881142839e-01
3.553229760796569603e-01 3.330334914756747366e-01
3.562846079498119822e-01 4.424714898180539535e-01
3.572462398199670042e-01 3.759969427680367460e-01
3.582078716901220261e-01 4.422770384319711923e-01
3.591695035602770480e-01 5.327397581121324777e-01
3.601311354304320700e-01 5.441685921483454536e-01
3.610927673005870919e-01 4.971938106384143907e-01
3.620543991707421139e-01 6.330499800287014978e-01
3.630160310408971913e-01 6.939435084771226059e-01
3.639776629110522133e-01 5.198359599331254799e-01
3.649392947812071797e-01 5.513714581940902804e-01
3.659009266513622016e-01 5.620619117134424414e-01
3.668625585215172791e-01 7.356266051720332655e-01
3.678241903916723010e-01 6.541209773299030417e-01
3.687858222618273230e-01 5.032127930336365296e-01
3.697474541319822894e-01 4.035693040432448697e-01
3.707090860021373668e-01 6.125841936303260127e-01
3.716707178722923888e-01 5.128081249092737437e-01
3.726323497424474107e-01 4.248494727556959560e-01
3.735939816126024327e-01 4.309951139225915995e-01
3.745556134827574546e-01 4.403913696140762113e-01
3.755172453529124765e-01 4.834338063604803892e-01
3.764788772230674985e-01 6.484715963134988215e-01
3.774405090932225204e-01 3.557116869104213208e-01
3.784021409633775423e-01 5.539800459031418711e-01
3.793637728335326198e-01 5.895601523945011024e-01
3.803254047036876417e-01 4.689326261520569972e-01
3.812870365738426082e-01 3.734317259733188621e-01
3.822486684439976301e-01 4.209467340825590043e-01
3.832103003141527076e-01 4.075192007253924942e-01
3.841719321843077295e-01 3.978317757689282530e-01
3.851335640544627514e-01 4.132292739922611702e-01
3.860951959246177734e-01 4.074908778969152934e-01
3.870568277947727953e-01 3.095755804890529816e-01
3.880184596649278173e-01 3.201458279473925472e-01
3.889800915350828392e-01 3.855704396303138992e-01
3.899417234052378611e-01 4.769564981375467028e-01
3.909033552753928831e-01 5.226944010705594224e-01
3.918649871455479050e-01 6.158756226114618926e-01
3.928266190157029270e-01 5.405574470920235797e-01
3.937882508858579489e-01 4.984123140132865615e-01
3.947498827560129708e-01 3.664624527079212157e-01
3.957115146261680483e-01 3.839478863224137228e-01
3.966731464963230702e-01 3.568345512793449359e-01
3.976347783664780366e-01 2.530306607934562635e-01
3.985964102366330586e-01 3.375607863491048022e-01
3.995580421067881360e-01 3.599302317318553435e-01
4.005196739769430470e-01 4.267974834002501439e-01
4.014813058470981244e-01 3.166609666281381408e-01
4.024429377172531463e-01 3.284456880716533078e-01
4.034045695874082238e-01 4.063722033078072116e-01
