# q (1/Angstrom), Intensity (arb)
2.067508526570814575e-02 8.010530873391492150e+02
2.163671713586316769e-02 8.407278394380493864e+02
2.259834900601819310e-02 8.713138642257191577e+02
2.355998087617321851e-02 8.832558641883067594e+02
2.452161274632824739e-02 8.852515500202766816e+02
2.548324461648326933e-02 8.919662579155248068e+02
2.644487648663829821e-02 8.898352072817036742e+02
2.740650835679332709e-02 8.815437230895114453e+02
2.836814022694834903e-02 8.779448339868406492e+02
2.932977209710337443e-02 8.787762414365091672e+02
3.029140396725839637e-02 8.719957720059300073e+02
3.125303583741342178e-02 8.615817459488256418e+02
3.221466770756845066e-02 8.541024753767619586e+02
3.317629957772347260e-02 8.471038967164713540e+02
3.413793144787850148e-02 8.390018613320548866e+02
3.509956331803352342e-02 8.332342705501366709e+02
3.606119518818855230e-02 8.276231329211856291e+02
3.702282705834358117e-02 8.179808841884748745e+02
3.798445892849860311e-02 8.106750334871770747e+02
3.894609079865363199e-02 7.996176882653278426e+02
3.990772266880865393e-02 7.924045985675891188e+02
4.086935453896367587e-02 7.846588947026565393e+02
4.183098640911870475e-02 7.732469129472115128e+02
4.279261827927372669e-02 7.634822300839226727e+02
4.375425014942875557e-02 7.498559009038103795e+02
4.471588201958377751e-02 7.347239590888337943e+02
4.567751388973880639e-02 7.239014064747326529e+02
4.663914575989382832e-02 7.136474138918645167e+02
4.760077763004885720e-02 7.016136028055337874e+02
4.856240950020387914e-02 6.894209415355818464e+02
4.952404137035890108e-02 6.762637882012222690e+02
5.048567324051392302e-02 6.645086917094658929e+02
5.144730511066895190e-02 6.518213999022360667e+02
5.240893698082397384e-02 6.385997517112037940e+02
5.337056885097899578e-02 6.222271957705153227e+02
5.433220072113403160e-02 6.050867107320701734e+02
5.529383259128905354e-02 5.915674222738431354e+02
5.625546446144407547e-02 5.755420163285599529e+02
5.721709633159910435e-02 5.599097699541753173e+02
5.817872820175412629e-02 5.453767441027271161e+02
5.914036007190914823e-02 5.300675699447513125e+02
6.010199194206417017e-02 5.156045263108405834e+02
6.106362381221920599e-02 5.023045414883113153e+02
6.202525568237422793e-02 4.876589598960848093e+02
6.298688755252924987e-02 4.730991266624770901e+02
6.394851942268428568e-02 4.577718874275245753e+02
6.491015129283930762e-02 4.427099881317994345e+02
6.587178316299432956e-02 4.302311982087538809e+02
6.683341503314935150e-02 4.172098741245825977e+02
6.779504690330438732e-02 4.032309641009349548e+02
6.875667877345940926e-02 3.900262734130988065e+02
6.971831064361443120e-02 3.765613874099212239e+02
7.067994251376945314e-02 3.633909473084877959e+02
7.164157438392447508e-02 3.511881344742399165e+02
7.260320625407949702e-02 3.380732578070487762e+02
7.356483812423453283e-02 3.247210290164431399e+02
7.452646999438955477e-02 3.136752819922602384e+02
7.548810186454457671e-02 3.011385303527914630e+02
7.644973373469959865e-02 2.893258752699623528e+02
7.741136560485463447e-02 2.779992240328410276e+02
7.837299747500965641e-02 2.676256466013750810e+02
7.933462934516467835e-02 2.575141175853678988e+02
8.029626121531971417e-02 2.476913310845287128e+02
8.125789308547473611e-02 2.357215317488133621e+02
8.221952495562975805e-02 2.245391593674392539e+02
8.318115682578479386e-02 2.141648466772181507e+02
8.414278869593981580e-02 2.045664546577277747e+02
8.510442056609483774e-02 1.956341752563531315e+02
8.606605243624985968e-02 1.864217831543574562e+02
8.702768430640489550e-02 1.775064967857408362e+02
8.798931617655991744e-02 1.693537958503334835e+02
8.895094804671493938e-02 1.613124492742789187e+02
8.991257991686996132e-02 1.529606955187250605e+02
9.087421178702498326e-02 1.436111299638102423e+02
9.183584365718000520e-02 1.368104411967367469e+02
9.279747552733502713e-02 1.300682416909945402e+02
9.375910739749006295e-02 1.223486264990041690e+02
9.472073926764508489e-02 1.151996119876732223e+02
9.568237113780010683e-02 1.089729503931815628e+02
9.664400300795514265e-02 1.024545493787625219e+02
9.760563487811016459e-02 9.594318013356848951e+01
9.856726674826518653e-02 8.986714695761287430e+01
9.952889861842022234e-02 8.445360197762590815e+01
1.004905304885752443e-01 7.831176799640589081e+01
1.014521623587302801e-01 7.366094106175486900e+01
1.024137942288853020e-01 6.873399928771951295e+01
1.033754260990403240e-01 6.328710454753772296e+01
1.043370579691953459e-01 5.909077294250425894e+01
1.052986898393503817e-01 5.543305597301342402e+01
1.062603217095053898e-01 5.181985051481603222e+01
1.072219535796604256e-01 4.750903731830818089e+01
1.081835854498154614e-01 4.358492536247029392e+01
1.091452173199704695e-01 4.009622753293979258e+01
1.101068491901255053e-01 3.717800580309510394e+01
1.110684810602805411e-01 3.425906776126212350e+01
1.120301129304355492e-01 3.112089841666512058e+01
1.129917448005905850e-01 2.848303693757519284e+01
1.139533766707456208e-01 2.559158498601981435e+01
1.149150085409006289e-01 2.309156011079030080e+01
1.158766404110556647e-01 2.105022614888904897e+01
1.168382722812106728e-01 1.927356109891336899e+01
1.177999041513657086e-01 1.749990319559924146e+01
1.187615360215207305e-01 1.560088629632135593e+01
1.197231678916757525e-01 1.382517983120394334e+01
1.206847997618307744e-01 1.209357854508883889e+01
1.216464316319858102e-01 1.077506243068678060e+01
1.226080635021408183e-01 9.439761625891222252e+00
1.235696953722958541e-01 8.410533654546632931e+00
1.245313272424508899e-01 7.299248586006072514e+00
1.254929591126059119e-01 6.035262305121968041e+00
1.264545909827609338e-01 5.329386263625842446e+00
1.274162228529159557e-01 4.775116858582862278e+00
1.283778547230709777e-01 4.174401476751498308e+00
1.293394865932259996e-01 3.651063958181168800e+00
1.303011184633810493e-01 3.316433521863029199e+00
1.312627503335360435e-01 2.954193814862623668e+00
1.322243822036910932e-01 2.282885810348023625e+00
1.331860140738460874e-01 2.009099036025300933e+00
1.341476459440011371e-01 1.858231257553683236e+00
1.351092778141561590e-01 1.534067178593254255e+00
1.360709096843111809e-01 1.831026162018051906e+00
1.370325415544662029e-01 2.014312840206390121e+00
1.379941734246212526e-01 1.484139486536992791e+00
1.389558052947762468e-01 1.625408256503511950e+00
1.399174371649312965e-01 1.940384929035442241e+00
1.408790690350863184e-01 1.806759012460204872e+00
1.418407009052413403e-01 1.848483301302486836e+00
1.428023327753963623e-01 2.149891698445539845e+00
1.437639646455513842e-01 2.263869927762133472e+00
1.447255965157064062e-01 2.625808180107338075e+00
1.456872283858614281e-01 3.240348917056838474e+00
1.466488602560164778e-01 3.333339559906502103e+00
1.476104921261714720e-01 3.438151164591644715e+00
1.485721239963265217e-01 3.557169268152428288e+00
1.495337558664815436e-01 3.764918054192616381e+00
1.504953877366365655e-01 4.037531886672461212e+00
1.514570196067915875e-01 4.044816193252966485e+00
1.524186514769466094e-01 4.592241418452776003e+00
1.533802833471016314e-01 5.264863785495549564e+00
1.543419152172566811e-01 5.291417913238941395e+00
1.553035470874116752e-01 5.582851225501457293e+00
1.562651789575667249e-01 5.775371412375900348e+00
1.572268108277217469e-01 6.077495911114144889e+00
1.581884426978767688e-01 6.664468519827057236e+00
1.591500745680317908e-01 6.814200225331749294e+00
1.601117064381868405e-01 6.685000508092965532e+00
1.610733383083418346e-01 6.980695203910318725e+00
1.620349701784968843e-01 7.173884335130058076e+00
1.629966020486519063e-01 7.458286241794798599e+00
1.639582339188069282e-01 7.602774014980607120e+00
1.649198657889619501e-01 7.515355745212218608e+00
1.658814976591169721e-01 7.479602622229609921e+00
1.668431295292719940e-01 7.730307923848076967e+00
1.678047613994270160e-01 7.768626422801858666e+00
1.687663932695820379e-01 8.095608535962472985e+00
1.697280251397370598e-01 8.086879081776999101e+00
1.706896570098921095e-01 8.090102727531125026e+00
1.716512888800471037e-01 8.220391496106667972e+00
1.726129207502021534e-01 8.383118240083447859e+00
1.735745526203571754e-01 8.434336330662638659e+00
1.745361844905121973e-01 8.320046198553395556e+00
1.754978163606672192e-01 7.787076185542975537e+00
1.764594482308222689e-01 7.701733339085187424e+00
1.774210801009772631e-01 7.758208013261185698e+00
1.783827119711323128e-01 7.663723436144870504e+00
1.793443438412873348e-01 7.693598392255974971e+00
1.803059757114423567e-01 7.833788172050532239e+00
1.812676075815973786e-01 7.467978642568336767e+00
1.822292394517524006e-01 7.448030122365643990e+00
1.831908713219074225e-01 7.409936643690333113e+00
1.841525031920624444e-01 7.151053920199839098e+00
1.851141350622174664e-01 7.156421174284883335e+00
1.860757669323724883e-01 7.027221368007687374e+00
1.870373988025275380e-01 6.867842083015446519e+00
1.879990306726825322e-01 6.381709126341664984e+00
1.889606625428375819e-01 6.248712142204528419e+00
1.899222944129926038e-01 6.324986006264200711e+00
1.908839262831476258e-01 6.506989236863290671e+00
1.918455581533026477e-01 5.957997154912295201e+00
1.928071900234576974e-01 5.600656427184723896e+00
1.937688218936126916e-01 5.384358138046099640e+00
1.947304537637677413e-01 5.371478989999040721e+00
1.956920856339227632e-01 5.256219866692596554e+00
1.966537175040777852e-01 4.940678921916251909e+00
1.976153493742328071e-01 4.531914413547813325e+00
1.985769812443878291e-01 4.344131265641077988e+00
1.995386131145428510e-01 4.289261865559446107e+00
2.005002449846978729e-01 4.109818520178663448e+00
2.014618768548528949e-01 3.896933398072309984e+00
2.024235087250079168e-01 3.567612234626061252e+00
2.033851405951629665e-01 3.521417402289984011e+00
2.043467724653179884e-01 3.314696959433600654e+00
2.053084043354730381e-01 3.178075594155583161e+00
2.062700362056280046e-01 2.886149246683366698e+00
2.072316680757830543e-01 2.727703875971201342e+00
2.081932999459380762e-01 2.786685242939004326e+00
2.091549318160931259e-01 2.480795325296956122e+00
2.101165636862481478e-01 2.230901375837067491e+00
2.110781955564031698e-01 2.140005807157383089e+00
2.120398274265581640e-01 2.143845184042600494e+00
2.130014592967132137e-01 2.004613072467542167e+00
2.139630911668682356e-01 1.847770672137599490e+00
2.149247230370232575e-01 1.648052056750799466e+00
2.158863549071783072e-01 1.554645900182496376e+00
2.168479867773333014e-01 1.428435304064379352e+00
2.178096186474883234e-01 1.202161748030324162e+00
2.187712505176433453e-01 1.218229082573987654e+00
2.197328823877983950e-01 1.148311204295815457e+00
2.206945142579534169e-01 7.587708752171593574e-01
2.216561461281084666e-01 8.436751003543427885e-01
2.226177779982634330e-01 9.714864122459445639e-01
2.235794098684184827e-01 8.078015363413264538e-01
2.245410417385735047e-01 6.944539593417644596e-01
2.255026736087285544e-01 5.776399348839618142e-01
2.264643054788835763e-01 5.292348545020040262e-01
2.274259373490385983e-01 4.341511442770347173e-01
2.283875692191935924e-01 5.410577522518167370e-01
2.293492010893486421e-01 5.269553485771041323e-01
2.303108329595036641e-01 5.729524131743772841e-01
2.312724648296586860e-01 7.613680982467556646e-01
2.322340966998137357e-01 7.075058995784431204e-01
2.331957285699687299e-01 6.286464327116192408e-01
2.341573604401237518e-01 5.920242328377547381e-01
2.351189923102787738e-01 6.465780597572781119e-01
2.360806241804338235e-01 5.784241894177419852e-01
2.370422560505888454e-01 4.584911779186455760e-01
2.380038879207438951e-01 5.108264742748787057e-01
2.389655197908988615e-01 5.411908517272756569e-01
2.399271516610539112e-01 6.668641168217064319e-01
2.408887835312089332e-01 5.343152485331685853e-01
2.418504154013639829e-01 4.399654273033206664e-01
2.428120472715190048e-01 6.405919475114529860e-01
2.437736791416740267e-01 5.642357082552500458e-01
2.447353110118290209e-01 7.283956280414045636e-01
2.456969428819840706e-01 6.985805694467970284e-01
2.466585747521390926e-01 5.643383457511070844e-01
2.476202066222941145e-01 4.973300354651719601e-01
2.485818384924491642e-01 5.529899331328884671e-01
2.495434703626041584e-01 8.807248079588632095e-01
2.505051022327591803e-01 8.995745565755228768e-01
2.514667341029142023e-01 9.532869833670467585e-01
2.524283659730692242e-01 8.412081585048483134e-01
2.533899978432243016e-01 1.012394660004353852e+00
2.543516297133793236e-01 1.029090629985315530e+00
2.553132615835342900e-01 9.456143778432029023e-01
2.562748934536893120e-01 9.328611733337837109e-01
2.572365253238443894e-01 1.063899775911536949e+00
2.581981571939994113e-01 9.475547035964524412e-01
2.591597890641544333e-01 9.184852518630925999e-01
2.601214209343094552e-01 1.056357531183095944e+00
2.610830528044644772e-01 1.189742526732249672e+00
2.620446846746194991e-01 1.159662223444023255e+00
2.630063165447745210e-01 1.168070101592256549e+00
2.639679484149295430e-01 1.175137949433857187e+00
2.649295802850845649e-01 1.091113323210343822e+00
2.658912121552395869e-01 1.076555295943546042e+00
2.668528440253946088e-01 1.163279756716114832e+00
2.678144758955496307e-01 1.109984613988441282e+00
2.687761077657046527e-01 1.297652361209316041e+00
2.697377396358597301e-01 1.338920061007652151e+00
2.706993715060147521e-01 1.128445834773902590e+00
2.716610033761697185e-01 1.287342680213818369e+00
2.726226352463247404e-01 1.381268107391605326e+00
2.735842671164798179e-01 1.408209780844110526e+00
2.745458989866348398e-01 1.415234734808258565e+00
2.755075308567898618e-01 1.431859630652340343e+00
2.764691627269448837e-01 1.411610624786533208e+00
2.774307945970999056e-01 1.246933850496297680e+00
2.783924264672549276e-01 1.173946841402287333e+00
2.793540583374099495e-01 1.152987107987865301e+00
2.803156902075649715e-01 1.156005093426092145e+00
2.812773220777199934e-01 1.089488244927700578e+00
2.822389539478750153e-01 1.188517258542614030e+00
2.832005858180300373e-01 1.231098532379871102e+00
2.841622176881850592e-01 1.051056223036745507e+00
2.851238495583400812e-01 1.083692376380625433e+00
2.860854814284951586e-01 1.230088473535904114e+00
2.870471132986501805e-01 1.208973518435534800e+00
2.880087451688051470e-01 9.619154152034141703e-01
2.889703770389601689e-01 9.622717350410816550e-01
2.899320089091152464e-01 1.131991033762165699e+00
2.908936407792702683e-01 1.098218292133626761e+00
2.918552726494252902e-01 9.381355338765295926e-01
2.928169045195803122e-01 8.253370085791971178e-01
2.937785363897353341e-01 7.684250036937179118e-01
2.947401682598903561e-01 8.331911011173396275e-01
2.957018001300453780e-01 9.170327144540983966e-01
2.966634320002003999e-01 9.512511910889287492e-01
2.976250638703554219e-01 8.522695557087693885e-01
2.985866957405104993e-01 7.790127881211432737e-01
2.995483276106654658e-01 7.815762720960641730e-01
3.005099594808204877e-01 7.510243377877614535e-01
3.014715913509755651e-01 6.805727030731958394e-01
3.024332232211305871e-01 7.921702160594001896e-01
3.033948550912856090e-01 7.138110680454055057e-01
3.043564869614405755e-01 7.449772551170106283e-01
3.053181188315956529e-01 7.568304077852232581e-01
3.062797507017506748e-01 6.690522454325531498e-01
3.072413825719056968e-01 5.024788968082063434e-01
3.082030144420607187e-01 4.842966161589252749e-01
3.091646463122157407e-01 4.780314279535673450e-01
3.101262781823707626e-01 4.075799831857835898e-01
3.110879100525257845e-01 5.183123424446129945e-01
3.120495419226808065e-01 3.428439180216855675e-01
3.130111737928358284e-01 1.376816523830299843e-01
3.139728056629909059e-01 3.416646616561216376e-01
3.149344375331459278e-01 3.038430715027615747e-01
3.158960694033008942e-01 2.427323494536892667e-01
3.168577012734559162e-01 3.077839540530540319e-01
3.178193331436109936e-01 3.372766672093270302e-01
3.187809650137660156e-01 4.409757179342541633e-01
3.197425968839210375e-01 3.870546235161178572e-01
3.207042287540760039e-01 2.666134670918935967e-01
3.216658606242310814e-01 2.463609852542241185e-01
3.226274924943861033e-01 1.830520360549208192e-01
3.235891243645411253e-01 3.009965551264954797e-01
3.245507562346961472e-01 3.027124935809162309e-01
3.255123881048511691e-01 3.460535476778900943e-01
3.264740199750061911e-01 2.261110041350917754e-01
3.274356518451612130e-01 3.053569037439487488e-01
3.283972837153162350e-01 2.862339841008321173e-01
3.293589155854712569e-01 1.490477094604329977e-01
3.303205474556263344e-01 2.260069279806486975e-01
3.312821793257813563e-01 3.110523629483488151e-01
3.322438111959363227e-01 3.441050697791290247e-01
3.332054430660913447e-01 3.218859752912663907e-01
3.341670749362464221e-01 3.810996019628589693e-01
3.351287068064014441e-01 1.593489054806802585e-01
3.360903386765564660e-01 1.977995081141799005e-01
3.370519705467114324e-01 3.985149354236625641e-01
3.380136024168665099e-01 2.741638681377693842e-01
3.389752342870215318e-01 2.298559694924193764e-01
3.399368661571765537e-01 2.249134479267809184e-01
3.408984980273315757e-01 3.867567382212087068e-01
3.418601298974865976e-01 2.975694762123701764e-01
3.428217617676416196e-01 2.700758875021698202e-01
3.437833936377966415e-01 4.505188919489491184e-01
3.447450255079516634e-01 3.640299771088741920e-01
3.457066573781066854e-01 3.881779679210701772e-01
3.466682892482617628e-01 4.648011281926187621e-01
3.476299211184167848e-01 3.526719356722054499e-01
3.485915529885717512e-01 3.658506064942805835e-01
3.495531848587267731e-01 4.949190583529805565e-01
3.505148167288818506e-01 6.162555581479871591e-01
3.514764485990368725e-01 5.150132820879775863e-01
3.524380804691918945e-01 4.593922528578957554e-01
3.533997123393468609e-01 3.986518918948931400e-01
3.543613442095019384e-01 3.489669633375349633e-01
3.553229760796569603e-01 2.448528503076374818e-01
3.562846079498119822e-01 3.969034430907854016e-01
3.572462398199670042e-01 4.630914528920726525e-01
3.582078716901220261e-01 4.112653130627030862e-01
3.591695035602770480e-01 4.291835029291526382e-01
3.601311354304320700e-01 4.913661209343693770e-01
3.610927673005870919e-01 5.795268385453198334e-01
3.620543991707421139e-01 4.252161583021809577e-01
3.630160310408971913e-01 4.598980859561905277e-01
3.639776629110522133e-01 5.071764338935942362e-01
3.649392947812071797e-01 5.219424605314983978e-01
3.659009266513622016e-01 4.577401468718207411e-01
3.668625585215172791e-01 4.361709115255223423e-01
3.678241903916723010e-01 4.747117670916765064e-01
3.687858222618273230e-01 4.896206917853760388e-01
3.697474541319822894e-01 4.068369929221056225e-01
3.707090860021373668e-01 5.190658991104619702e-01
3.716707178722923888e-01 5.984197123196963730e-01
3.726323497424474107e-01 4.933844362706274467e-01
3.735939816126024327e-01 5.671848594386048603e-01
3.745556134827574546e-01 6.004501229143670571e-01
3.755172453529124765e-01 4.182778963201023714e-01
3.764788772230674985e-01 3.549903727795644670e-01
3.774405090932225204e-01 4.171289566749081246e-01
3.784021409633775423e-01 5.690809905570617389e-01
3.793637728335326198e-01 4.639864803358513257e-01
3.803254047036876417e-01 4.692887883457075304e-01
3.812870365738426082e-01 4.415770247662180736e-01
3.822486684439976301e-01 5.681363336688924903e-01
3.832103003141527076e-01 5.283132019876113361e-01
3.841719321843077295e-01 4.067062473139273493e-01
3.851335640544627514e-01 4.568188868453830764e-01
3.860951959246177734e-01 4.148122958500870539e-01
3.870568277947727953e-01 3.586613246772536456e-01
3.880184596649278173e-01 5.661021717743146553e-01
3.889800915350828392e-01 6.970956391208709135e-01
3.899417234052378611e-01 4.604565410714371865e-01
3.909033552753928831e-01 3.237938701179317036e-01
3.918649871455479050e-01 3.487782648527506524e-01
3.928266190157029270e-01 3.725314881019130553e-01
3.937882508858579489e-01 3.918361986241798434e-01
3.947498827560129708e-01 4.566569056509841573e-01
3.957115146261680483e-01 4.653691591829627328e-01
3.966731464963230702e-01 4.685584498135675346e-01
3.976347783664780366e-01 4.753933554355356250e-01
3.985964102366330586e-01 2.803267553119823674e-01
3.995580421067881360e-01 2.569875822176825864e-01
4.005196739769430470e-01 5.123802227533147402e-01
4.014813058470981244e-01 5.719808448851821936e-01
4.024429377172531463e-01 3.689514865481235972e-01
4.034045695874082238e-01 2.323511203995600738e-01
