# q (1/Angstrom), Intensity (arb)
2.067508526570814575e-02 7.839496245078706806e+02
2.163671713586316769e-02 8.181665483795194405e+02
2.259834900601819310e-02 8.500199065397774802e+02
2.355998087617321851e-02 8.600675373504831214e+02
2.452161274632824739e-02 8.661813430680776946e+02
2.548324461648326933e-02 8.701837745946229461e+02
2.644487648663829821e-02 8.637394902156906937e+02
2.740650835679332709e-02 8.629733961162925198e+02
2.836814022694834903e-02 8.597192484257412843e+02
2.932977209710337443e-02 8.560793563135746354e+02
3.029140396725839637e-02 8.484331654642533067e+02
3.125303583741342178e-02 8.407645361626472322e+02
3.221466770756845066e-02 8.359175262039356085e+02
3.317629957772347260e-02 8.310756522206689851e+02
3.413793144787850148e-02 8.223763091262485432e+02
3.509956331803352342e-02 8.164539010121089859e+02
3.606119518818855230e-02 8.107692533803342485e+02
3.702282705834358117e-02 8.027777979183679236e+02
3.798445892849860311e-02 7.953972560385561792e+02
3.894609079865363199e-02 7.869171453649360046e+02
3.990772266880865393e-02 7.785958039657988365e+02
4.086935453896367587e-02 7.643053681847409280e+02
4.183098640911870475e-02 7.549572052288808663e+02
4.279261827927372669e-02 7.466572042077323204e+02
4.375425014942875557e-02 7.316917120788905322e+02
4.471588201958377751e-02 7.191070941349106533e+02
4.567751388973880639e-02 7.102433821069615760e+02
4.663914575989382832e-02 6.971391682118473909e+02
4.760077763004885720e-02 6.854226878152760492e+02
4.856240950020387914e-02 6.722062081533900937e+02
4.952404137035890108e-02 6.594788360126459565e+02
5.048567324051392302e-02 6.493253601485795343e+02
5.144730511066895190e-02 6.361801655832277902e+02
5.240893698082397384e-02 6.219812659908019441e+02
5.337056885097899578e-02 6.072937529808651789e+02
5.433220072113403160e-02 5.933312292902754734e+02
5.529383259128905354e-02 5.790144471570137057e+02
5.625546446144407547e-02 5.645691908510956409e+02
5.721709633159910435e-02 5.489695271691831522e+02
5.817872820175412629e-02 5.332969685028616595e+02
5.914036007190914823e-02 5.166975564197779249e+02
6.010199194206417017e-02 5.036065982286840494e+02
6.106362381221920599e-02 4.880589750006901113e+02
6.202525568237422793e-02 4.726716827182073644e+02
6.298688755252924987e-02 4.596234338213166097e+02
6.394851942268428568e-02 4.474338424592433512e+02
6.491015129283930762e-02 4.349845731778441973e+02
6.587178316299432956e-02 4.216657436785192772e+02
6.683341503314935150e-02 4.078971030729634322e+02
6.779504690330438732e-02 3.927612424635896105e+02
6.875667877345940926e-02 3.798869343143109063e+02
6.971831064361443120e-02 3.677356819317743657e+02
7.067994251376945314e-02 3.552101939151071974e+02
7.164157438392447508e-02 3.423490879256259518e+02
7.260320625407949702e-02 3.300865800689355183e+02
7.356483812423453283e-02 3.173441237157874184e+02
7.452646999438955477e-02 3.053608426183157007e+02
7.548810186454457671e-02 2.935164125459722300e+02
7.644973373469959865e-02 2.822429531357182668e+02
7.741136560485463447e-02 2.713576337867608004e+02
7.837299747500965641e-02 2.611509772592891636e+02
7.933462934516467835e-02 2.511827819707469871e+02
8.029626121531971417e-02 2.391400822772683625e+02
8.125789308547473611e-02 2.287165755819741833e+02
8.221952495562975805e-02 2.187045488094476298e+02
8.318115682578479386e-02 2.094692503196582436e+02
8.414278869593981580e-02 2.002316195323419663e+02
8.510442056609483774e-02 1.918942520897744259e+02
8.606605243624985968e-02 1.813742696991090497e+02
8.702768430640489550e-02 1.719629480403435764e+02
8.798931617655991744e-02 1.643482590237128989e+02
8.895094804671493938e-02 1.565969291989704004e+02
8.991257991686996132e-02 1.494755334621289933e+02
9.087421178702498326e-02 1.420220443495028348e+02
9.183584365718000520e-02 1.327228862141158743e+02
9.279747552733502713e-02 1.252278627043848189e+02
9.375910739749006295e-02 1.186246947262503397e+02
9.472073926764508489e-02 1.123936277817273321e+02
9.568237113780010683e-02 1.061656522571845187e+02
9.664400300795514265e-02 9.919761994720431630e+01
9.760563487811016459e-02 9.351279502594820769e+01
9.856726674826518653e-02 8.745869795953007042e+01
9.952889861842022234e-02 8.153316738454287815e+01
1.004905304885752443e-01 7.723492715468285041e+01
1.014521623587302801e-01 7.193805968990574229e+01
1.024137942288853020e-01 6.724394770316050085e+01
1.033754260990403240e-01 6.282221462335107276e+01
1.043370579691953459e-01 5.833939071756732631e+01
1.052986898393503817e-01 5.438172139998834353e+01
1.062603217095053898e-01 5.010296730205462978e+01
1.072219535796604256e-01 4.554492687993081290e+01
1.081835854498154614e-01 4.185735120707754220e+01
1.091452173199704695e-01 3.936942517842967959e+01
1.101068491901255053e-01 3.582498066357729272e+01
1.110684810602805411e-01 3.267310032861297486e+01
1.120301129304355492e-01 3.003149028890045003e+01
1.129917448005905850e-01 2.736327891934362810e+01
1.139533766707456208e-01 2.486406464770301028e+01
1.149150085409006289e-01 2.254904931254961298e+01
1.158766404110556647e-01 2.035556999660311206e+01
1.168382722812106728e-01 1.854064131963025730e+01
1.177999041513657086e-01 1.674350253307435921e+01
1.187615360215207305e-01 1.506642203135842095e+01
1.197231678916757525e-01 1.341428492611634127e+01
1.206847997618307744e-01 1.169946878172310889e+01
1.216464316319858102e-01 1.061748628939225370e+01
1.226080635021408183e-01 9.160632234034785881e+00
1.235696953722958541e-01 7.789965536382627675e+00
1.245313272424508899e-01 7.240589640178082931e+00
1.254929591126059119e-01 6.392338959819390709e+00
1.264545909827609338e-01 4.960560261468646814e+00
1.274162228529159557e-01 4.266960610206261606e+00
1.283778547230709777e-01 4.076414506774185043e+00
1.293394865932259996e-01 3.659852114464893447e+00
1.303011184633810493e-01 2.926088478282000693e+00
1.312627503335360435e-01 2.534568786184351552e+00
1.322243822036910932e-01 2.141518301705531258e+00
1.331860140738460874e-01 1.872670823414498642e+00
1.341476459440011371e-01 1.923690533820153092e+00
1.351092778141561590e-01 1.635996055254025805e+00
1.360709096843111809e-01 1.327929740555514826e+00
1.370325415544662029e-01 1.536604381838809985e+00
1.379941734246212526e-01 1.509029239635651720e+00
1.389558052947762468e-01 1.608114387221938557e+00
1.399174371649312965e-01 1.829327711831524539e+00
1.408790690350863184e-01 1.896477144560329009e+00
1.418407009052413403e-01 1.864540677234437283e+00
1.428023327753963623e-01 2.017846914323939700e+00
1.437639646455513842e-01 2.177016840677364229e+00
1.447255965157064062e-01 2.544154390456071724e+00
1.456872283858614281e-01 2.914692307578658159e+00
1.466488602560164778e-01 2.966289087104645006e+00
1.476104921261714720e-01 3.106391758797094838e+00
1.485721239963265217e-01 3.297340633381168118e+00
1.495337558664815436e-01 3.583366910712360465e+00
1.504953877366365655e-01 3.978911991886306510e+00
1.514570196067915875e-01 4.048110278122447170e+00
1.524186514769466094e-01 4.285690231345832046e+00
1.533802833471016314e-01 4.405242773522385136e+00
1.543419152172566811e-01 5.075561914830540644e+00
1.553035470874116752e-01 5.478833200110997836e+00
1.562651789575667249e-01 5.289351287837604332e+00
1.572268108277217469e-01 5.762233731071034981e+00
1.581884426978767688e-01 6.086181248805363708e+00
1.591500745680317908e-01 6.587901925275119197e+00
1.601117064381868405e-01 6.891806479990091105e+00
1.610733383083418346e-01 6.449781401144999649e+00
1.620349701784968843e-01 6.593767370862760657e+00
1.629966020486519063e-01 6.987148737172940827e+00
1.639582339188069282e-01 6.864337686528070748e+00
1.649198657889619501e-01 7.055040570318869442e+00
1.658814976591169721e-01 7.330475049417419342e+00
1.668431295292719940e-01 7.371280162920989198e+00
1.678047613994270160e-01 7.593346678294633278e+00
1.687663932695820379e-01 7.785574130618272193e+00
1.697280251397370598e-01 7.811207955258094415e+00
1.706896570098921095e-01 7.695817752330576411e+00
1.716512888800471037e-01 7.960217734944929902e+00
1.726129207502021534e-01 8.013123257439268343e+00
1.735745526203571754e-01 7.873345265994618813e+00
1.745361844905121973e-01 7.900582346699668079e+00
1.754978163606672192e-01 7.682074271071890337e+00
1.764594482308222689e-01 7.675636759729126624e+00
1.774210801009772631e-01 7.912280375707542390e+00
1.783827119711323128e-01 7.712236104791838187e+00
1.793443438412873348e-01 7.875898284684243578e+00
1.803059757114423567e-01 7.608822948970114908e+00
1.812676075815973786e-01 7.339374908621373095e+00
1.822292394517524006e-01 7.387950889231326812e+00
1.831908713219074225e-01 7.096417957592606740e+00
1.841525031920624444e-01 6.978723320111697603e+00
1.851141350622174664e-01 6.760967703615740731e+00
1.860757669323724883e-01 6.834634483816248718e+00
1.870373988025275380e-01 6.575127597340564733e+00
1.879990306726825322e-01 6.310459282715449092e+00
1.889606625428375819e-01 6.206981050163989266e+00
1.899222944129926038e-01 6.159884091979524356e+00
1.908839262831476258e-01 6.005662840894903098e+00
1.918455581533026477e-01 5.426841246584793055e+00
1.928071900234576974e-01 5.309170477052479242e+00
1.937688218936126916e-01 5.423351936801630302e+00
1.947304537637677413e-01 4.980405765755321568e+00
1.956920856339227632e-01 4.795173040993223168e+00
1.966537175040777852e-01 4.718318687742197426e+00
1.976153493742328071e-01 4.535444423646367795e+00
1.985769812443878291e-01 4.207217283411370801e+00
1.995386131145428510e-01 4.006932672702465226e+00
2.005002449846978729e-01 3.692095900139214848e+00
2.014618768548528949e-01 3.680971723664050899e+00
2.024235087250079168e-01 3.425775871403555328e+00
2.033851405951629665e-01 3.141859779192902380e+00
2.043467724653179884e-01 3.111496721184852987e+00
2.053084043354730381e-01 2.994498368906270969e+00
2.062700362056280046e-01 2.743101711724506231e+00
2.072316680757830543e-01 2.695336664812824523e+00
2.081932999459380762e-01 2.625025536504519863e+00
2.091549318160931259e-01 2.197801479883171538e+00
2.101165636862481478e-01 1.945666489916700215e+00
2.110781955564031698e-01 1.737113669094153323e+00
2.120398274265581640e-01 1.760134766516298299e+00
2.130014592967132137e-01 1.758213271774206277e+00
2.139630911668682356e-01 1.478806762258567886e+00
2.149247230370232575e-01 1.461462402602720090e+00
2.158863549071783072e-01 1.374927618404104379e+00
2.168479867773333014e-01 1.441839880831370380e+00
2.178096186474883234e-01 1.127017921517424526e+00
2.187712505176433453e-01 8.521791335890753771e-01
2.197328823877983950e-01 9.702964644040541486e-01
2.206945142579534169e-01 1.137769780944537956e+00
2.216561461281084666e-01 8.154536371363576563e-01
2.226177779982634330e-01 6.381860172137479026e-01
2.235794098684184827e-01 5.607880925045662934e-01
2.245410417385735047e-01 7.076078383411861239e-01
2.255026736087285544e-01 5.756515238421471281e-01
2.264643054788835763e-01 4.715705509958922903e-01
2.274259373490385983e-01 3.147463679081425880e-01
2.283875692191935924e-01 2.326416660129666525e-01
2.293492010893486421e-01 3.969972205244900465e-01
2.303108329595036641e-01 2.750473651761424776e-01
2.312724648296586860e-01 2.811475146703941164e-01
2.322340966998137357e-01 2.226977667908442982e-01
2.331957285699687299e-01 3.187415464050218361e-01
2.341573604401237518e-01 2.513396271449828134e-01
2.351189923102787738e-01 4.191332877516202871e-01
2.360806241804338235e-01 5.290472683509221952e-01
2.370422560505888454e-01 3.877044201382560118e-01
2.380038879207438951e-01 2.643497626324773364e-01
2.389655197908988615e-01 1.072638170442736794e-01
2.399271516610539112e-01 0.000000000000000000e+00
2.408887835312089332e-01 3.270869298538947589e-01
2.418504154013639829e-01 2.215120068018947563e-01
2.428120472715190048e-01 1.940390119650245992e-01
2.437736791416740267e-01 3.466314722985686103e-01
2.447353110118290209e-01 4.931932267768068812e-01
2.456969428819840706e-01 7.445620788028399772e-01
2.466585747521390926e-01 5.534344592154525344e-01
2.476202066222941145e-01 6.158491054684098742e-01
2.485818384924491642e-01 6.639429849280062967e-01
2.495434703626041584e-01 6.901916439720636731e-01
2.505051022327591803e-01 8.010694478398043827e-01
2.514667341029142023e-01 6.343340970851159000e-01
2.524283659730692242e-01 7.126634310080781631e-01
2.533899978432243016e-01 8.574428762476529187e-01
2.543516297133793236e-01 8.483144134010345283e-01
2.553132615835342900e-01 9.453045669203135049e-01
2.562748934536893120e-01 1.127378521796337907e+00
2.572365253238443894e-01 1.153539321344677404e+00
2.581981571939994113e-01 1.156570741018345672e+00
2.591597890641544333e-01 1.127155694536835284e+00
2.601214209343094552e-01 9.931912617338127802e-01
2.610830528044644772e-01 9.593196585726815329e-01
2.620446846746194991e-01 9.383000796104994379e-01
2.630063165447745210e-01 1.170574431790349479e+00
2.639679484149295430e-01 9.933717301842612812e-01
2.649295802850845649e-01 9.502102302456272298e-01
2.658912121552395869e-01 1.008100781002475799e+00
2.668528440253946088e-01 1.064958192447551966e+00
2.678144758955496307e-01 9.822835609308135929e-01
2.687761077657046527e-01 1.329987324116569170e+00
2.697377396358597301e-01 1.410125083605439755e+00
2.706993715060147521e-01 1.179543376948046784e+00
2.716610033761697185e-01 1.087244425656685110e+00
2.726226352463247404e-01 8.252385120258765028e-01
2.735842671164798179e-01 1.096497015887951676e+00
2.745458989866348398e-01 9.909637295070403695e-01
2.755075308567898618e-01 1.103040092074930811e+00
2.764691627269448837e-01 1.210584745416351637e+00
2.774307945970999056e-01 1.186290855694512203e+00
2.783924264672549276e-01 1.175766399762700587e+00
2.793540583374099495e-01 1.154093892519409081e+00
2.803156902075649715e-01 1.114285536645351016e+00
2.812773220777199934e-01 1.220209460508161925e+00
2.822389539478750153e-01 9.675199283491906499e-01
2.832005858180300373e-01 8.474363976219301264e-01
2.841622176881850592e-01 8.966898116516048844e-01
2.851238495583400812e-01 1.045673835779801664e+00
2.860854814284951586e-01 1.005327315916254349e+00
2.870471132986501805e-01 9.627112923250251697e-01
2.880087451688051470e-01 9.220656715092587774e-01
2.889703770389601689e-01 9.005945331083680117e-01
2.899320089091152464e-01 7.178197720891041911e-01
2.908936407792702683e-01 8.077892699060313930e-01
2.918552726494252902e-01 7.603058375186186879e-01
2.928169045195803122e-01 7.561327693713977283e-01
2.937785363897353341e-01 6.571912362202567692e-01
2.947401682598903561e-01 6.286065904752256017e-01
2.957018001300453780e-01 9.171265974553648448e-01
2.966634320002003999e-01 8.136130970427188913e-01
2.976250638703554219e-01 6.318687897961474675e-01
2.985866957405104993e-01 8.004582243991187340e-01
2.995483276106654658e-01 7.536869363688118995e-01
3.005099594808204877e-01 6.933675613550001060e-01
3.014715913509755651e-01 6.862326405171295107e-01
3.024332232211305871e-01 6.353447178817788199e-01
3.033948550912856090e-01 5.521937012371829212e-01
3.043564869614405755e-01 6.323395988974880311e-01
3.053181188315956529e-01 5.515423407797257482e-01
3.062797507017506748e-01 4.450748254464684805e-01
3.072413825719056968e-01 5.722112458535342228e-01
3.082030144420607187e-01 3.676871810656798800e-01
3.091646463122157407e-01 3.215659827301742268e-01
3.101262781823707626e-01 3.766130616411409449e-01
3.110879100525257845e-01 1.703898007016633187e-01
3.120495419226808065e-01 2.436008731978205333e-01
3.130111737928358284e-01 4.409226581217247087e-01
3.139728056629909059e-01 3.673796887865421468e-01
3.149344375331459278e-01 3.677198758063866535e-01
3.158960694033008942e-01 2.896433460919816127e-01
3.168577012734559162e-01 2.196868253786945502e-01
3.178193331436109936e-01 4.008949401926038547e-01
3.187809650137660156e-01 3.154477591264814862e-01
3.197425968839210375e-01 1.654942359722326728e-01
3.207042287540760039e-01 1.487112784894151218e-01
3.216658606242310814e-01 2.394147756323405929e-01
3.226274924943861033e-01 1.208947376332503154e-01
3.235891243645411253e-01 2.757535076053763134e-01
3.245507562346961472e-01 2.510600837082783698e-01
3.255123881048511691e-01 1.817866334458706490e-01
3.264740199750061911e-01 1.179937323963109463e-01
3.274356518451612130e-01 1.428150895320854374e-01
3.283972837153162350e-01 7.939049900953776273e-02
3.293589155854712569e-01 2.427368313193767335e-01
3.303205474556263344e-01 3.116216866858358969e-01
3.312821793257813563e-01 2.376069778759557494e-01
3.322438111959363227e-01 1.825782605814048054e-01
3.332054430660913447e-01 9.061960093651677539e-02
3.341670749362464221e-01 6.594706885855572409e-02
3.351287068064014441e-01 1.274783920286388650e-01
3.360903386765564660e-01 2.758631229396542039e-01
3.370519705467114324e-01 1.023573689410142151e-01
3.380136024168665099e-01 3.238961011789243116e-01
3.389752342870215318e-01 2.491478271934219890e-01
3.399368661571765537e-01 2.661133089039928734e-01
3.408984980273315757e-01 4.427264567319468824e-01
3.418601298974865976e-01 2.879890605061170561e-01
3.428217617676416196e-01 1.436031638522052845e-01
3.437833936377966415e-01 1.115440879573661448e-01
3.447450255079516634e-01 1.395030729946853398e-01
3.457066573781066854e-01 3.350374117160086485e-01
3.466682892482617628e-01 2.619933476921936233e-01
3.476299211184167848e-01 1.930888786608271346e-01
3.485915529885717512e-01 2.326712132363759622e-01
3.495531848587267731e-01 1.660404254909373378e-01
3.505148167288818506e-01 3.271442463097251618e-01
3.514764485990368725e-01 3.014411921663082694e-01
3.524380804691918945e-01 2.921212803873949326e-01
3.533997123393468609e-01 3.834093989992162221e-01
3.543613442095019384e-01 4.336316061350977691e-01
3.553229760796569603e-01 2.121973450494856195e-01
3.562846079498119822e-01 2.055905022593300657e-01
3.572462398199670042e-01 3.759824374461224750e-01
3.582078716901220261e-01 3.736569192799379380e-01
3.591695035602770480e-01 3.287840776129087317e-01
3.601311354304320700e-01 2.710625929545038559e-01
3.610927673005870919e-01 2.256037985518659639e-01
3.620543991707421139e-01 4.007719273365317747e-01
3.630160310408971913e-01 4.081251625053106125e-01
3.639776629110522133e-01 4.176476064928991150e-01
3.649392947812071797e-01 3.535617769421826040e-01
3.659009266513622016e-01 3.166222144990662457e-01
3.668625585215172791e-01 4.194423130321247584e-01
3.678241903916723010e-01 4.640902591683300216e-01
3.687858222618273230e-01 2.030058413884283652e-01
3.697474541319822894e-01 2.927819435772249790e-01
3.707090860021373668e-01 2.349648661294132523e-01
3.716707178722923888e-01 3.145988611925076839e-01
3.726323497424474107e-01 3.588967283398787345e-01
3.735939816126024327e-01 2.817401724037580379e-01
3.745556134827574546e-01 3.319959070883129471e-01
3.755172453529124765e-01 4.011923835945800931e-01
3.764788772230674985e-01 4.659530877771942414e-01
3.774405090932225204e-01 4.499919646155632336e-01
3.784021409633775423e-01 3.761775070194097736e-01
3.793637728335326198e-01 3.165409952389595105e-01
3.803254047036876417e-01 3.429524096663278954e-01
3.812870365738426082e-01 2.992513268739394050e-01
3.822486684439976301e-01 3.665041393188772645e-01
3.832103003141527076e-01 3.409474637805764985e-01
3.841719321843077295e-01 4.621982929957155761e-01
3.851335640544627514e-01 3.566414811511577909e-01
3.860951959246177734e-01 3.151133071703746680e-01
3.870568277947727953e-01 3.768707193077212025e-01
3.880184596649278173e-01 4.839865247138668281e-01
3.889800915350828392e-01 3.911457255381876053e-01
3.899417234052378611e-01 3.054241807703661493e-01
3.909033552753928831e-01 1.307553523372781967e-01
3.918649871455479050e-01 1.046920831140205621e-01
3.928266190157029270e-01 1.423390218212752245e-01
3.937882508858579489e-01 1.665105259593140374e-01
3.947498827560129708e-01 1.475682999605112400e-01
3.957115146261680483e-01 1.900758931711230559e-01
3.966731464963230702e-01 3.106383549497664376e-01
3.976347783664780366e-01 1.961576804115203743e-01
3.985964102366330586e-01 2.145936272358071051e-01
3.995580421067881360e-01 2.426134681529781290e-01
4.005196739769430470e-01 3.379057062543999734e-01
4.014813058470981244e-01 4.342702251684364967e-01
4.024429377172531463e-01 3.233447244635776485e-01
4.034045695874082238e-01 3.117670982501152821e-01
