# q (1/Angstrom), Intensity (arb)
2.067508526570814575e-02 8.029648810046212475e+02
2.163671713586316769e-02 8.399635823309571379e+02
2.259834900601819310e-02 8.750092956535333997e+02
2.355998087617321851e-02 8.826033959283985268e+02
2.452161274632824739e-02 8.862677627686277901e+02
2.548324461648326933e-02 8.866017811886706568e+02
2.644487648663829821e-02 8.866910034253445474e+02
2.740650835679332709e-02 8.861073649906962828e+02
2.836814022694834903e-02 8.843172111426573565e+02
2.932977209710337443e-02 8.795716142219190488e+02
3.029140396725839637e-02 8.696533805632028589e+02
3.125303583741342178e-02 8.604593833591469547e+02
3.221466770756845066e-02 8.576029188781061521e+02
3.317629957772347260e-02 8.492246803995209348e+02
3.413793144787850148e-02 8.457628353425291152e+02
3.509956331803352342e-02 8.387205593045518981e+02
3.606119518818855230e-02 8.348054754412693228e+02
3.702282705834358117e-02 8.247513982927913503e+02
3.798445892849860311e-02 8.122871888307033714e+02
3.894609079865363199e-02 8.031509545166762791e+02
3.990772266880865393e-02 7.930783465476467882e+02
4.086935453896367587e-02 7.835375874135669392e+02
4.183098640911870475e-02 7.738329800118025332e+02
4.279261827927372669e-02 7.639816311152293338e+02
4.375425014942875557e-02 7.518185969904944841e+02
4.471588201958377751e-02 7.349500855905173466e+02
4.567751388973880639e-02 7.232147442855771260e+02
4.663914575989382832e-02 7.109914250640218825e+02
4.760077763004885720e-02 6.992799837068738498e+02
4.856240950020387914e-02 6.875361542813774349e+02
4.952404137035890108e-02 6.754251608639912092e+02
5.048567324051392302e-02 6.648992195650369013e+02
5.144730511066895190e-02 6.513431198162828650e+02
5.240893698082397384e-02 6.373764704014297422e+02
5.337056885097899578e-02 6.191715771685230720e+02
5.433220072113403160e-02 6.027974854303724896e+02
5.529383259128905354e-02 5.892716420546806830e+02
5.625546446144407547e-02 5.776433669465230878e+02
5.721709633159910435e-02 5.633704662083262065e+02
5.817872820175412629e-02 5.467386218139992025e+02
5.914036007190914823e-02 5.317249021232671566e+02
6.010199194206417017e-02 5.172768336021025561e+02
6.106362381221920599e-02 5.016797506164081710e+02
6.202525568237422793e-02 4.865857090606002089e+02
6.298688755252924987e-02 4.715287087380396542e+02
6.394851942268428568e-02 4.587598939467353603e+02
6.491015129283930762e-02 4.451859120667966181e+02
6.587178316299432956e-02 4.313365219435723361e+02
6.683341503314935150e-02 4.155397303433866227e+02
6.779504690330438732e-02 4.021112013453298459e+02
6.875667877345940926e-02 3.889837229981550308e+02
6.971831064361443120e-02 3.757582040785755453e+02
7.067994251376945314e-02 3.647352811101044381e+02
7.164157438392447508e-02 3.517750959316574608e+02
7.260320625407949702e-02 3.387792244151807495e+02
7.356483812423453283e-02 3.247492140263753981e+02
7.452646999438955477e-02 3.130215336405843800e+02
7.548810186454457671e-02 3.011974393786578048e+02
7.644973373469959865e-02 2.905382356501432923e+02
7.741136560485463447e-02 2.772715830085195421e+02
7.837299747500965641e-02 2.661206544288850750e+02
7.933462934516467835e-02 2.566992124339467409e+02
8.029626121531971417e-02 2.456368828883894651e+02
8.125789308547473611e-02 2.344090490176254775e+02
8.221952495562975805e-02 2.251851532647142164e+02
8.318115682578479386e-02 2.156052374095588391e+02
8.414278869593981580e-02 2.062411938618672593e+02
8.510442056609483774e-02 1.964103609333822931e+02
8.606605243624985968e-02 1.867634763326492475e+02
8.702768430640489550e-02 1.766545151144477188e+02
8.798931617655991744e-02 1.685600208509563913e+02
8.895094804671493938e-02 1.603891663613819958e+02
8.991257991686996132e-02 1.524991036967167020e+02
9.087421178702498326e-02 1.450892444217849402e+02
9.183584365718000520e-02 1.372594950207534907e+02
9.279747552733502713e-02 1.298405101046527079e+02
9.375910739749006295e-02 1.227819087463877992e+02
9.472073926764508489e-02 1.158903980230615502e+02
9.568237113780010683e-02 1.090868292215480153e+02
9.664400300795514265e-02 1.020281210580974687e+02
9.760563487811016459e-02 9.498044584217851138e+01
9.856726674826518653e-02 8.977980978531974188e+01
9.952889861842022234e-02 8.471246784375193783e+01
1.004905304885752443e-01 7.886555846879664955e+01
1.014521623587302801e-01 7.397083806432016218e+01
1.024137942288853020e-01 6.967679226287836514e+01
1.033754260990403240e-01 6.471221739668214923e+01
1.043370579691953459e-01 5.990282009523245677e+01
1.052986898393503817e-01 5.583335828885407182e+01
1.062603217095053898e-01 5.199621608058630784e+01
1.072219535796604256e-01 4.784131882246861522e+01
1.081835854498154614e-01 4.445275596924702199e+01
1.091452173199704695e-01 4.126021215409122078e+01
1.101068491901255053e-01 3.789316159037583986e+01
1.110684810602805411e-01 3.425890686179835143e+01
1.120301129304355492e-01 3.126840429063022597e+01
1.129917448005905850e-01 2.841456587579599713e+01
1.139533766707456208e-01 2.588854979109672527e+01
1.149150085409006289e-01 2.367581742708074799e+01
1.158766404110556647e-01 2.142773885648504972e+01
1.168382722812106728e-01 1.936453200866611368e+01
1.177999041513657086e-01 1.708920797301824379e+01
1.187615360215207305e-01 1.537197864182237339e+01
1.197231678916757525e-01 1.385562641036909071e+01
1.206847997618307744e-01 1.232520047717979494e+01
1.216464316319858102e-01 1.103625027886513621e+01
1.226080635021408183e-01 9.651781816370544220e+00
1.235696953722958541e-01 8.289036786072401242e+00
1.245313272424508899e-01 7.184239408098033408e+00
1.254929591126059119e-01 6.168004620226057000e+00
1.264545909827609338e-01 5.329768839634560607e+00
1.274162228529159557e-01 4.427980077461157293e+00
1.283778547230709777e-01 3.896633823002957797e+00
1.293394865932259996e-01 3.525711738158246789e+00
1.303011184633810493e-01 3.206240961603736395e+00
1.312627503335360435e-01 2.622945223623244004e+00
1.322243822036910932e-01 1.938027622063113853e+00
1.331860140738460874e-01 1.786798086557510601e+00
1.341476459440011371e-01 1.676483961002119827e+00
1.351092778141561590e-01 1.405359574520787191e+00
1.360709096843111809e-01 1.445511259854608710e+00
1.370325415544662029e-01 1.600678679852265418e+00
1.379941734246212526e-01 1.704986236360266361e+00
1.389558052947762468e-01 1.689866155617966825e+00
1.399174371649312965e-01 1.691288035946143964e+00
1.408790690350863184e-01 1.795027301745779624e+00
1.418407009052413403e-01 2.026540660193131060e+00
1.428023327753963623e-01 2.264552523626978342e+00
1.437639646455513842e-01 2.510158235159302365e+00
1.447255965157064062e-01 2.379080563343094923e+00
1.456872283858614281e-01 2.722911557541070948e+00
1.466488602560164778e-01 2.990097174329381602e+00
1.476104921261714720e-01 2.989587911260329633e+00
1.485721239963265217e-01 3.423492449901278434e+00
1.495337558664815436e-01 4.157351695147738724e+00
1.504953877366365655e-01 4.131511157911447185e+00
1.514570196067915875e-01 4.548686172214800649e+00
1.524186514769466094e-01 4.540392568321223621e+00
1.533802833471016314e-01 4.678964830201575609e+00
1.543419152172566811e-01 5.186004929560745325e+00
1.553035470874116752e-01 5.390885416900069060e+00
1.562651789575667249e-01 5.629596465992037224e+00
1.572268108277217469e-01 5.778753880067228010e+00
1.581884426978767688e-01 5.713576390416832851e+00
1.591500745680317908e-01 6.316854371544842195e+00
1.601117064381868405e-01 6.656525509949879904e+00
1.610733383083418346e-01 6.849772881194564178e+00
1.620349701784968843e-01 7.153366162570666376e+00
1.629966020486519063e-01 7.326933183802740501e+00
1.639582339188069282e-01 7.406681692591035926e+00
1.649198657889619501e-01 7.266148193349348361e+00
1.658814976591169721e-01 7.258735721457792778e+00
1.668431295292719940e-01 7.391745715159423469e+00
1.678047613994270160e-01 8.087118522569916479e+00
1.687663932695820379e-01 8.181951254853728983e+00
1.697280251397370598e-01 8.307579562008999829e+00
1.706896570098921095e-01 8.208635740221382093e+00
1.716512888800471037e-01 8.124589191518047926e+00
1.726129207502021534e-01 8.012853270704852093e+00
1.735745526203571754e-01 8.073956429614984387e+00
1.745361844905121973e-01 8.380978260418626036e+00
1.754978163606672192e-01 8.007539308367693565e+00
1.764594482308222689e-01 7.736863485975302268e+00
1.774210801009772631e-01 7.805542073923760427e+00
1.783827119711323128e-01 7.949211143513380762e+00
1.793443438412873348e-01 7.835043060567670636e+00
1.803059757114423567e-01 7.860491817239307011e+00
1.812676075815973786e-01 7.820044678089615786e+00
1.822292394517524006e-01 7.637574384962633189e+00
1.831908713219074225e-01 7.541569661028766802e+00
1.841525031920624444e-01 7.319367421527257278e+00
1.851141350622174664e-01 6.989764683411575419e+00
1.860757669323724883e-01 6.871081072344633611e+00
1.870373988025275380e-01 6.610807270780792777e+00
1.879990306726825322e-01 6.729374749874640571e+00
1.889606625428375819e-01 6.549340635571663682e+00
1.899222944129926038e-01 6.189913224939900260e+00
1.908839262831476258e-01 5.938750991702157478e+00
1.918455581533026477e-01 5.698457627477946374e+00
1.928071900234576974e-01 5.711747867318226923e+00
1.937688218936126916e-01 5.760568999342520868e+00
1.947304537637677413e-01 5.004971396683369989e+00
1.956920856339227632e-01 4.727759890190764480e+00
1.966537175040777852e-01 4.949124475652670441e+00
1.976153493742328071e-01 4.813884608653225428e+00
1.985769812443878291e-01 4.574814233616720571e+00
1.995386131145428510e-01 4.346406551687906017e+00
2.005002449846978729e-01 3.994888379514588195e+00
2.014618768548528949e-01 3.785241568674432955e+00
2.024235087250079168e-01 3.628455657538708579e+00
2.033851405951629665e-01 3.483779020791278214e+00
2.043467724653179884e-01 3.367526600771434175e+00
2.053084043354730381e-01 3.099610387759913266e+00
2.062700362056280046e-01 2.818218821490198422e+00
2.072316680757830543e-01 2.648066672131403010e+00
2.081932999459380762e-01 2.355114122361886331e+00
2.091549318160931259e-01 2.330975449818414091e+00
2.101165636862481478e-01 2.214100697669916684e+00
2.110781955564031698e-01 2.103332615796102090e+00
2.120398274265581640e-01 2.057033174803919451e+00
2.130014592967132137e-01 1.677207260126802879e+00
2.139630911668682356e-01 1.251731691951754044e+00
2.149247230370232575e-01 1.303224562795524122e+00
2.158863549071783072e-01 1.162593232076890359e+00
2.168479867773333014e-01 1.186161999943816880e+00
2.178096186474883234e-01 1.327169273829539975e+00
2.187712505176433453e-01 9.022507904270362644e-01
2.197328823877983950e-01 7.243004248070796791e-01
2.206945142579534169e-01 6.579507411843685816e-01
2.216561461281084666e-01 7.143771320369260991e-01
2.226177779982634330e-01 5.796283688684162883e-01
2.235794098684184827e-01 6.569129774882611628e-01
2.245410417385735047e-01 6.750399551210364280e-01
2.255026736087285544e-01 6.352112139972270199e-01
2.264643054788835763e-01 4.447997200056903466e-01
2.274259373490385983e-01 2.996896000525559600e-01
2.283875692191935924e-01 4.637498791888994276e-01
2.293492010893486421e-01 3.862602440976559137e-01
2.303108329595036641e-01 3.521347652393203020e-01
2.312724648296586860e-01 4.151601185934197247e-01
2.322340966998137357e-01 3.282704586561706606e-01
2.331957285699687299e-01 1.949493288123740342e-01
2.341573604401237518e-01 3.164461995705138975e-01
2.351189923102787738e-01 2.790104881670245618e-01
2.360806241804338235e-01 4.983576673490190956e-01
2.370422560505888454e-01 6.516180177621357927e-01
2.380038879207438951e-01 4.214065764912575673e-01
2.389655197908988615e-01 4.766615906823545856e-01
2.399271516610539112e-01 4.361338156080982742e-01
2.408887835312089332e-01 4.687347806869119893e-01
2.418504154013639829e-01 3.996554616451746256e-01
2.428120472715190048e-01 5.455063367983719047e-01
2.437736791416740267e-01 6.282068842759258587e-01
2.447353110118290209e-01 4.548543900637653792e-01
2.456969428819840706e-01 1.943218209441539557e-01
2.466585747521390926e-01 4.466525927816213937e-01
2.476202066222941145e-01 5.945334203035059772e-01
2.485818384924491642e-01 7.308112606651349097e-01
2.495434703626041584e-01 7.529321310827050695e-01
2.505051022327591803e-01 6.142106847864035046e-01
2.514667341029142023e-01 5.046364958300522119e-01
2.524283659730692242e-01 6.486174220559810522e-01
2.533899978432243016e-01 1.020104050915026761e+00
2.543516297133793236e-01 1.247508055797190707e+00
2.553132615835342900e-01 1.128844646248204242e+00
2.562748934536893120e-01 9.322287983850117143e-01
2.572365253238443894e-01 8.588929893391359371e-01
2.581981571939994113e-01 8.267468127527308752e-01
2.591597890641544333e-01 8.788685171812922192e-01
2.601214209343094552e-01 9.490152548158441448e-01
2.610830528044644772e-01 8.698637332556948820e-01
2.620446846746194991e-01 1.090468067324493973e+00
2.630063165447745210e-01 1.044687911463405783e+00
2.639679484149295430e-01 1.031920615522274431e+00
2.649295802850845649e-01 1.031464484777110613e+00
2.658912121552395869e-01 1.001703517114496123e+00
2.668528440253946088e-01 1.308427766626948596e+00
2.678144758955496307e-01 1.285862050275202506e+00
2.687761077657046527e-01 1.095249068387133207e+00
2.697377396358597301e-01 1.285742903001580117e+00
2.706993715060147521e-01 1.378804760405571983e+00
2.716610033761697185e-01 1.444905580566281600e+00
2.726226352463247404e-01 1.457499063315481180e+00
2.735842671164798179e-01 1.368789840302255811e+00
2.745458989866348398e-01 1.261515706859434260e+00
2.755075308567898618e-01 1.348080540856905429e+00
2.764691627269448837e-01 1.248650175830285036e+00
2.774307945970999056e-01 1.217786559451358386e+00
2.783924264672549276e-01 1.238630208547910172e+00
2.793540583374099495e-01 1.246124071533330380e+00
2.803156902075649715e-01 1.130723112646464301e+00
2.812773220777199934e-01 1.019161577924545981e+00
2.822389539478750153e-01 1.084711241585345931e+00
2.832005858180300373e-01 1.132002868980290344e+00
2.841622176881850592e-01 1.246038695425959020e+00
2.851238495583400812e-01 1.151846628648396376e+00
2.860854814284951586e-01 1.227747970414629464e+00
2.870471132986501805e-01 1.230108152988552916e+00
2.880087451688051470e-01 1.150851418260714354e+00
2.889703770389601689e-01 9.750492054714925416e-01
2.899320089091152464e-01 8.028525243000643741e-01
2.908936407792702683e-01 9.168268138934614342e-01
2.918552726494252902e-01 8.551590966522297776e-01
2.928169045195803122e-01 9.709697766369806970e-01
2.937785363897353341e-01 1.186356013646648222e+00
2.947401682598903561e-01 9.910379808426164061e-01
2.957018001300453780e-01 9.309849501089608736e-01
2.966634320002003999e-01 7.972003227252990598e-01
2.976250638703554219e-01 7.229718758697742942e-01
2.985866957405104993e-01 6.162420679230393716e-01
2.995483276106654658e-01 6.771590741017483595e-01
3.005099594808204877e-01 7.211720279539406420e-01
3.014715913509755651e-01 7.189904500034600687e-01
3.024332232211305871e-01 8.113580950679235571e-01
3.033948550912856090e-01 7.504263118041976099e-01
3.043564869614405755e-01 4.730254751387725776e-01
3.053181188315956529e-01 5.284292448274534593e-01
3.062797507017506748e-01 3.979927544744086276e-01
3.072413825719056968e-01 3.799903646411806335e-01
3.082030144420607187e-01 4.292954819463972171e-01
3.091646463122157407e-01 4.412103218275156280e-01
3.101262781823707626e-01 4.858998379789838395e-01
3.110879100525257845e-01 1.765377590577195122e-01
3.120495419226808065e-01 2.481871130704718098e-01
3.130111737928358284e-01 3.287674365567099244e-01
3.139728056629909059e-01 3.265630706732025601e-01
3.149344375331459278e-01 4.691078083992259451e-01
3.158960694033008942e-01 2.921785695888736711e-01
3.168577012734559162e-01 6.292340638979965206e-02
3.178193331436109936e-01 2.063595528939856649e-01
3.187809650137660156e-01 2.411623096626520635e-01
3.197425968839210375e-01 2.592217845705171442e-01
3.207042287540760039e-01 2.700706330568323210e-01
3.216658606242310814e-01 3.577484206428209745e-01
3.226274924943861033e-01 5.720075950144121180e-02
3.235891243645411253e-01 3.930909786737757372e-02
3.245507562346961472e-01 2.757779890788150112e-01
3.255123881048511691e-01 2.063716464301599274e-01
3.264740199750061911e-01 2.424038036808155994e-01
3.274356518451612130e-01 3.418179232589189098e-01
3.283972837153162350e-01 1.752100177967257366e-01
3.293589155854712569e-01 6.168828358872957551e-02
3.303205474556263344e-01 3.468899425504652356e-01
3.312821793257813563e-01 2.774684868600196808e-01
3.322438111959363227e-01 1.586232363026738312e-01
3.332054430660913447e-01 2.585323577185469901e-01
3.341670749362464221e-01 3.934625418084856108e-01
3.351287068064014441e-01 2.374789766977905003e-01
3.360903386765564660e-01 2.185065119252023180e-01
3.370519705467114324e-01 1.736985852791903540e-01
3.380136024168665099e-01 8.700385311303193703e-02
3.389752342870215318e-01 2.895552498863693813e-01
3.399368661571765537e-01 3.132467709928370425e-01
3.408984980273315757e-01 1.425398115004092858e-01
3.418601298974865976e-01 2.410090033118734709e-01
3.428217617676416196e-01 2.006033157588156257e-01
3.437833936377966415e-01 1.685379638418282866e-01
3.447450255079516634e-01 1.896460384183242809e-01
3.457066573781066854e-01 3.615451495578270169e-01
3.466682892482617628e-01 4.246182232765676190e-01
3.476299211184167848e-01 2.796150365660636794e-01
3.485915529885717512e-01 3.567691306123066397e-01
3.495531848587267731e-01 3.754495039988725580e-01
3.505148167288818506e-01 4.362395002749188677e-01
3.514764485990368725e-01 4.347246671647084781e-01
3.524380804691918945e-01 3.970907382676713837e-01
3.533997123393468609e-01 1.970950616497368912e-01
3.543613442095019384e-01 2.295707222899814326e-01
3.553229760796569603e-01 2.979764485356639625e-01
3.562846079498119822e-01 3.073369676200705669e-01
3.572462398199670042e-01 2.938726270032780974e-01
3.582078716901220261e-01 3.563086102804149391e-01
3.591695035602770480e-01 2.485893479067975420e-01
3.601311354304320700e-01 3.177340956508309944e-01
3.610927673005870919e-01 4.376783906316248363e-01
3.620543991707421139e-01 2.861097891284636319e-01
3.630160310408971913e-01 1.572090895569751012e-01
3.639776629110522133e-01 3.630737384359257192e-01
3.649392947812071797e-01 5.099732968179964132e-01
3.659009266513622016e-01 3.805511704385011740e-01
3.668625585215172791e-01 4.363646077394491840e-01
3.678241903916723010e-01 5.284119389467640815e-01
3.687858222618273230e-01 3.770702011594018188e-01
3.697474541319822894e-01 3.228630676891377504e-01
3.707090860021373668e-01 5.228788522238296821e-01
3.716707178722923888e-01 4.933727219560566368e-01
3.726323497424474107e-01 5.046558875006006417e-01
3.735939816126024327e-01 4.390273477612787190e-01
3.745556134827574546e-01 5.194139956111989420e-01
3.755172453529124765e-01 5.987012351922196274e-01
3.764788772230674985e-01 5.168735335668657171e-01
3.774405090932225204e-01 4.963329055436176418e-01
3.784021409633775423e-01 6.363129124177220319e-01
3.793637728335326198e-01 3.562928385634869244e-01
3.803254047036876417e-01 4.597044762391924166e-01
3.812870365738426082e-01 3.934306372740650204e-01
3.822486684439976301e-01 3.326984092674045712e-01
3.832103003141527076e-01 3.797242121901298617e-01
3.841719321843077295e-01 3.629498757568683232e-01
3.851335640544627514e-01 4.005903795931189393e-01
3.860951959246177734e-01 3.205886893313270036e-01
3.870568277947727953e-01 4.059736257295796236e-01
3.880184596649278173e-01 3.379604329425553999e-01
3.889800915350828392e-01 4.318131078215934338e-01
3.899417234052378611e-01 3.642637184450308041e-01
3.909033552753928831e-01 2.523717867122705627e-01
3.918649871455479050e-01 2.405633800562938518e-01
3.928266190157029270e-01 2.432700418604234471e-01
3.937882508858579489e-01 2.092011958905466429e-01
3.947498827560129708e-01 2.710584654279131200e-01
3.957115146261680483e-01 2.237446288993645283e-01
3.966731464963230702e-01 2.208439629666187898e-01
3.976347783664780366e-01 1.560209875476274988e-01
3.985964102366330586e-01 3.403259808204595060e-01
3.995580421067881360e-01 3.547076762868250910e-01
4.005196739769430470e-01 2.596637733647924051e-01
4.014813058470981244e-01 2.442204134233385560e-01
4.024429377172531463e-01 3.426397322949235047e-01
4.034045695874082238e-01 3.434484991236637086e-01
