# q (1/Angstrom), Intensity (arb)
2.067508526570814575e-02 7.775541022570389487e+02
2.163671713586316769e-02 8.166026006541823108e+02
2.259834900601819310e-02 8.496250154912805783e+02
2.355998087617321851e-02 8.604943181674682364e+02
2.452161274632824739e-02 8.629134144850886514e+02
2.548324461648326933e-02 8.643525558038081726e+02
2.644487648663829821e-02 8.628610521529876678e+02
2.740650835679332709e-02 8.598003745540887621e+02
2.836814022694834903e-02 8.547277667471167888e+02
2.932977209710337443e-02 8.487383576152420801e+02
3.029140396725839637e-02 8.484768119002025060e+02
3.125303583741342178e-02 8.402462581733748266e+02
3.221466770756845066e-02 8.336661155107575496e+02
3.317629957772347260e-02 8.267670710560917087e+02
3.413793144787850148e-02 8.232689166260568072e+02
3.509956331803352342e-02 8.163620441759587720e+02
3.606119518818855230e-02 8.093497125872825109e+02
3.702282705834358117e-02 8.003211261538333474e+02
3.798445892849860311e-02 7.917485863387888685e+02
3.894609079865363199e-02 7.817732930082304392e+02
3.990772266880865393e-02 7.700335672356741270e+02
4.086935453896367587e-02 7.613642988490715879e+02
4.183098640911870475e-02 7.544875556472283051e+02
4.279261827927372669e-02 7.449208792670418688e+02
4.375425014942875557e-02 7.343227851394140089e+02
4.471588201958377751e-02 7.209172940156507821e+02
4.567751388973880639e-02 7.091693377528058591e+02
4.663914575989382832e-02 6.951666525869136422e+02
4.760077763004885720e-02 6.811955213240917146e+02
4.856240950020387914e-02 6.707305661978679154e+02
4.952404137035890108e-02 6.609231454540205277e+02
5.048567324051392302e-02 6.486000816220717979e+02
5.144730511066895190e-02 6.339901689369753512e+02
5.240893698082397384e-02 6.214422200003899661e+02
5.337056885097899578e-02 6.050240346611302584e+02
5.433220072113403160e-02 5.898022051010409541e+02
5.529383259128905354e-02 5.750615949802416935e+02
5.625546446144407547e-02 5.596360410798718021e+02
5.721709633159910435e-02 5.445844688007199466e+02
5.817872820175412629e-02 5.323405809043025556e+02
5.914036007190914823e-02 5.193811693640375324e+02
6.010199194206417017e-02 5.049078052605019025e+02
6.106362381221920599e-02 4.888385977220526115e+02
6.202525568237422793e-02 4.754882347980086479e+02
6.298688755252924987e-02 4.604313278819319635e+02
6.394851942268428568e-02 4.466348513853127429e+02
6.491015129283930762e-02 4.334302559574422276e+02
6.587178316299432956e-02 4.204925219473942093e+02
6.683341503314935150e-02 4.063160670014526659e+02
6.779504690330438732e-02 3.920220175121803550e+02
6.875667877345940926e-02 3.802340844832880293e+02
6.971831064361443120e-02 3.675106064742576564e+02
7.067994251376945314e-02 3.545033409611265256e+02
7.164157438392447508e-02 3.431510676934219646e+02
7.260320625407949702e-02 3.294293744204935024e+02
7.356483812423453283e-02 3.162811314481865566e+02
7.452646999438955477e-02 3.036107771247381493e+02
7.548810186454457671e-02 2.926022729211325100e+02
7.644973373469959865e-02 2.826820598374627593e+02
7.741136560485463447e-02 2.714696601646955969e+02
7.837299747500965641e-02 2.601787971113301410e+02
7.933462934516467835e-02 2.495293503198970200e+02
8.029626121531971417e-02 2.392737277148734449e+02
8.125789308547473611e-02 2.291363245044202017e+02
8.221952495562975805e-02 2.180515486056661700e+02
8.318115682578479386e-02 2.080704455136270496e+02
8.414278869593981580e-02 1.999699503988207425e+02
8.510442056609483774e-02 1.904456271994701240e+02
8.606605243624985968e-02 1.813304218636703524e+02
8.702768430640489550e-02 1.725960142110633626e+02
8.798931617655991744e-02 1.646982084404277771e+02
8.895094804671493938e-02 1.571246981439853414e+02
8.991257991686996132e-02 1.484741128072196545e+02
9.087421178702498326e-02 1.399882395033515081e+02
9.183584365718000520e-02 1.324859163814096519e+02
9.279747552733502713e-02 1.257904637486486195e+02
9.375910739749006295e-02 1.182349732376760585e+02
9.472073926764508489e-02 1.118264991596184359e+02
9.568237113780010683e-02 1.060549772191491940e+02
9.664400300795514265e-02 9.959871756158443645e+01
9.760563487811016459e-02 9.311079324094714593e+01
9.856726674826518653e-02 8.679384519107279061e+01
9.952889861842022234e-02 8.144753832182684050e+01
1.004905304885752443e-01 7.664709928009003193e+01
1.014521623587302801e-01 7.152038812420217084e+01
1.024137942288853020e-01 6.742647947023452559e+01
1.033754260990403240e-01 6.293684753375668350e+01
1.043370579691953459e-01 5.758457356357308754e+01
1.052986898393503817e-01 5.367752310702360319e+01
1.062603217095053898e-01 4.960173816794055313e+01
1.072219535796604256e-01 4.610834546088771901e+01
1.081835854498154614e-01 4.253953660703031403e+01
1.091452173199704695e-01 3.901496928040461398e+01
1.101068491901255053e-01 3.577362415542370400e+01
1.110684810602805411e-01 3.273332843324956798e+01
1.120301129304355492e-01 2.972596010742144657e+01
1.129917448005905850e-01 2.689484208993681591e+01
1.139533766707456208e-01 2.477809417941560710e+01
1.149150085409006289e-01 2.272223538149427213e+01
1.158766404110556647e-01 2.083304219496925924e+01
1.168382722812106728e-01 1.837049008935619199e+01
1.177999041513657086e-01 1.659672965693141933e+01
1.187615360215207305e-01 1.464399817657890068e+01
1.197231678916757525e-01 1.293951220382642120e+01
1.206847997618307744e-01 1.211379578688199032e+01
1.216464316319858102e-01 1.066541736674003715e+01
1.226080635021408183e-01 9.224752718711602739e+00
1.235696953722958541e-01 8.023183247754108294e+00
1.245313272424508899e-01 7.093813445438147625e+00
1.254929591126059119e-01 5.984784120641428729e+00
1.264545909827609338e-01 5.116678149420160082e+00
1.274162228529159557e-01 4.701552387432620606e+00
1.283778547230709777e-01 4.137837469373074839e+00
1.293394865932259996e-01 3.379231840073472881e+00
1.303011184633810493e-01 3.006241638100810576e+00
1.312627503335360435e-01 2.410308570051597599e+00
1.322243822036910932e-01 2.192117649958948533e+00
1.331860140738460874e-01 2.073546061179708744e+00
1.341476459440011371e-01 2.061189080629247883e+00
1.351092778141561590e-01 1.868082522348085917e+00
1.360709096843111809e-01 1.621074215225128512e+00
1.370325415544662029e-01 1.328329669308836003e+00
1.379941734246212526e-01 1.226974689964205112e+00
1.389558052947762468e-01 9.867657340019313494e-01
1.399174371649312965e-01 1.191014863518379485e+00
1.408790690350863184e-01 1.841019291040165484e+00
1.418407009052413403e-01 2.013092229326719718e+00
1.428023327753963623e-01 2.167543555549773515e+00
1.437639646455513842e-01 2.193863511094541252e+00
1.447255965157064062e-01 2.351659708188389430e+00
1.456872283858614281e-01 2.406925663258995485e+00
1.466488602560164778e-01 2.813600527231653103e+00
1.476104921261714720e-01 3.038829390557712173e+00
1.485721239963265217e-01 3.463501861645273294e+00
1.495337558664815436e-01 3.646227556662839930e+00
1.504953877366365655e-01 3.982597178471369403e+00
1.514570196067915875e-01 4.391490552670116898e+00
1.524186514769466094e-01 4.540988697363491866e+00
1.533802833471016314e-01 4.843190652893458292e+00
1.543419152172566811e-01 5.270192285742844263e+00
1.553035470874116752e-01 5.442848311522187288e+00
1.562651789575667249e-01 5.538015443311479657e+00
1.572268108277217469e-01 5.584756143764128211e+00
1.581884426978767688e-01 5.479723825522491154e+00
1.591500745680317908e-01 5.953014177268538987e+00
1.601117064381868405e-01 6.349423984167756885e+00
1.610733383083418346e-01 6.805211245607090120e+00
1.620349701784968843e-01 6.974952954469976873e+00
1.629966020486519063e-01 6.989627035821161627e+00
1.639582339188069282e-01 7.070844398366382677e+00
1.649198657889619501e-01 7.307685785378755128e+00
1.658814976591169721e-01 7.206762798232528411e+00
1.668431295292719940e-01 7.281374678638403708e+00
1.678047613994270160e-01 7.472802188075352348e+00
1.687663932695820379e-01 7.856163905983166273e+00
1.697280251397370598e-01 7.912479637806182353e+00
1.706896570098921095e-01 7.982487681769068644e+00
1.716512888800471037e-01 7.960727996928543604e+00
1.726129207502021534e-01 7.998115896168471295e+00
1.735745526203571754e-01 8.063559378789385335e+00
1.745361844905121973e-01 7.702346454608949955e+00
1.754978163606672192e-01 7.702040314427211598e+00
1.764594482308222689e-01 7.610191892856704499e+00
1.774210801009772631e-01 7.712564999908799734e+00
1.783827119711323128e-01 7.540805602174209810e+00
1.793443438412873348e-01 7.481819023899845433e+00
1.803059757114423567e-01 7.612744033000378607e+00
1.812676075815973786e-01 7.408839181768605897e+00
1.822292394517524006e-01 7.419322145886507514e+00
1.831908713219074225e-01 7.365378996417799584e+00
1.841525031920624444e-01 7.044432804695649253e+00
1.851141350622174664e-01 7.047222454996632024e+00
1.860757669323724883e-01 6.705791057957018353e+00
1.870373988025275380e-01 6.596070929604668009e+00
1.879990306726825322e-01 6.322606801762354678e+00
1.889606625428375819e-01 6.024865644495498884e+00
1.899222944129926038e-01 5.977379191403286995e+00
1.908839262831476258e-01 5.666155798631901774e+00
1.918455581533026477e-01 5.640172744322210718e+00
1.928071900234576974e-01 5.730388984522726048e+00
1.937688218936126916e-01 5.281917078767261131e+00
1.947304537637677413e-01 4.980124249500637035e+00
1.956920856339227632e-01 4.852223959380726370e+00
1.966537175040777852e-01 4.652758043551632028e+00
1.976153493742328071e-01 4.532637705896284785e+00
1.985769812443878291e-01 4.287566035208193682e+00
1.995386131145428510e-01 3.931651028356000666e+00
2.005002449846978729e-01 3.867876521288323488e+00
2.014618768548528949e-01 3.550059414235875010e+00
2.024235087250079168e-01 3.469193458984126011e+00
2.033851405951629665e-01 3.251019281015530282e+00
2.043467724653179884e-01 3.269655274156548330e+00
2.053084043354730381e-01 3.221376456490744999e+00
2.062700362056280046e-01 3.037004002673160841e+00
2.072316680757830543e-01 2.619941178329419529e+00
2.081932999459380762e-01 2.624498678984803490e+00
2.091549318160931259e-01 2.649907563180580183e+00
2.101165636862481478e-01 2.398438339997106539e+00
2.110781955564031698e-01 2.266895644060586079e+00
2.120398274265581640e-01 1.873595795787274199e+00
2.130014592967132137e-01 1.851718430005597327e+00
2.139630911668682356e-01 1.818040393157506429e+00
2.149247230370232575e-01 1.560221703118550352e+00
2.158863549071783072e-01 1.623478263257268850e+00
2.168479867773333014e-01 1.486326780556083804e+00
2.178096186474883234e-01 1.132206373732806526e+00
2.187712505176433453e-01 1.150374654148812681e+00
2.197328823877983950e-01 1.012143617493741488e+00
2.206945142579534169e-01 6.789266557809163771e-01
2.216561461281084666e-01 7.611650572333417131e-01
2.226177779982634330e-01 6.677226406924638979e-01
2.235794098684184827e-01 5.695384042355371434e-01
2.245410417385735047e-01 6.780834685050933786e-01
2.255026736087285544e-01 6.019691594614435814e-01
2.264643054788835763e-01 7.331633032322493193e-01
2.274259373490385983e-01 4.949116483357727247e-01
2.283875692191935924e-01 3.927000645146634383e-01
2.293492010893486421e-01 5.406591964776126247e-01
2.303108329595036641e-01 5.301755658995901399e-01
2.312724648296586860e-01 4.202510240229635485e-01
2.322340966998137357e-01 3.369795609979924222e-01
2.331957285699687299e-01 2.288124604360994852e-01
2.341573604401237518e-01 2.095061153630695117e-01
2.351189923102787738e-01 2.760729016862057961e-01
2.360806241804338235e-01 4.825761544715732043e-01
2.370422560505888454e-01 5.470719691312808663e-01
2.380038879207438951e-01 4.663548834442252655e-01
2.389655197908988615e-01 4.469967603011113511e-01
2.399271516610539112e-01 6.527804111242687668e-01
2.408887835312089332e-01 7.060297715558299103e-01
2.418504154013639829e-01 7.425456413730593397e-01
2.428120472715190048e-01 5.906378790922595101e-01
2.437736791416740267e-01 4.236610320232188087e-01
2.447353110118290209e-01 4.252810176559798094e-01
2.456969428819840706e-01 7.619184795102924568e-01
2.466585747521390926e-01 6.660381140369651121e-01
2.476202066222941145e-01 7.638959085829988283e-01
2.485818384924491642e-01 6.654481792235635851e-01
2.495434703626041584e-01 6.397701630981806886e-01
2.505051022327591803e-01 6.956237198383448117e-01
2.514667341029142023e-01 7.619805015284093486e-01
2.524283659730692242e-01 8.613071908956300149e-01
2.533899978432243016e-01 8.613580747924984848e-01
2.543516297133793236e-01 6.370392526573418479e-01
2.553132615835342900e-01 6.666286943823536149e-01
2.562748934536893120e-01 8.525410601841940661e-01
2.572365253238443894e-01 9.906840238036700441e-01
2.581981571939994113e-01 1.002662959220035788e+00
2.591597890641544333e-01 9.927896281647008436e-01
2.601214209343094552e-01 1.116854499278147728e+00
2.610830528044644772e-01 1.007474570126944968e+00
2.620446846746194991e-01 1.100373277818309958e+00
2.630063165447745210e-01 1.267688095007205362e+00
2.639679484149295430e-01 1.185480787851318496e+00
2.649295802850845649e-01 1.174259990511568930e+00
2.658912121552395869e-01 1.244919752081020903e+00
2.668528440253946088e-01 1.295509370545602224e+00
2.678144758955496307e-01 1.113609357596089922e+00
2.687761077657046527e-01 1.280403885759692884e+00
2.697377396358597301e-01 1.311675014026992159e+00
2.706993715060147521e-01 1.030026097198465607e+00
2.716610033761697185e-01 1.134028637186958122e+00
2.726226352463247404e-01 1.186660504086205492e+00
2.735842671164798179e-01 1.249602225820371615e+00
2.745458989866348398e-01 1.442256144639827653e+00
2.755075308567898618e-01 1.369887459896578008e+00
2.764691627269448837e-01 1.309182949596188195e+00
2.774307945970999056e-01 1.323361353166184529e+00
2.783924264672549276e-01 1.129424484440082921e+00
2.793540583374099495e-01 1.378887257355440710e+00
2.803156902075649715e-01 1.406674252286443050e+00
2.812773220777199934e-01 1.143521131650345524e+00
2.822389539478750153e-01 1.060902498751904233e+00
2.832005858180300373e-01 1.181563127466034757e+00
2.841622176881850592e-01 1.056292916481233135e+00
2.851238495583400812e-01 8.433141246691313597e-01
2.860854814284951586e-01 1.006596453572974781e+00
2.870471132986501805e-01 1.022204318231644038e+00
2.880087451688051470e-01 8.677555564168280000e-01
2.889703770389601689e-01 8.248805938333916288e-01
2.899320089091152464e-01 8.523194600118983999e-01
2.908936407792702683e-01 9.888148316399352211e-01
2.918552726494252902e-01 7.796878722281874730e-01
2.928169045195803122e-01 7.896323192498435617e-01
2.937785363897353341e-01 8.981884046262926802e-01
2.947401682598903561e-01 9.867823063531453442e-01
2.957018001300453780e-01 9.251475618777647014e-01
2.966634320002003999e-01 8.736674306578784410e-01
2.976250638703554219e-01 7.952112708504373018e-01
2.985866957405104993e-01 7.188756194581316095e-01
2.995483276106654658e-01 5.882585978114143188e-01
3.005099594808204877e-01 4.712916281595411760e-01
3.014715913509755651e-01 4.779698279717514708e-01
3.024332232211305871e-01 4.971924856242679880e-01
3.033948550912856090e-01 6.216318548125485677e-01
3.043564869614405755e-01 4.199765130261958745e-01
3.053181188315956529e-01 3.808834917483032712e-01
3.062797507017506748e-01 3.706574766970724966e-01
3.072413825719056968e-01 4.534982993605254364e-01
3.082030144420607187e-01 5.617242882002742022e-01
3.091646463122157407e-01 6.516631081658417202e-01
3.101262781823707626e-01 4.891675768107610622e-01
3.110879100525257845e-01 2.963533925750034825e-01
3.120495419226808065e-01 3.708010808639343736e-01
3.130111737928358284e-01 4.114620937174073845e-01
3.139728056629909059e-01 3.597742415304630015e-01
3.149344375331459278e-01 2.469528998077876736e-01
3.158960694033008942e-01 3.031059805368521154e-01
3.168577012734559162e-01 2.981224530215520474e-01
3.178193331436109936e-01 4.123832642426137340e-01
3.187809650137660156e-01 5.700309710952069508e-01
3.197425968839210375e-01 3.521471932301913910e-01
3.207042287540760039e-01 2.999540742570445673e-01
3.216658606242310814e-01 3.417466193003448893e-01
3.226274924943861033e-01 2.930744048808477942e-01
3.235891243645411253e-01 2.363301458681803524e-01
3.245507562346961472e-01 1.825472918422299529e-01
3.255123881048511691e-01 2.730649175654278338e-01
3.264740199750061911e-01 3.646471719988326754e-01
3.274356518451612130e-01 2.535924109295777384e-01
3.283972837153162350e-01 2.146149500608416361e-01
3.293589155854712569e-01 1.973648114422346111e-01
3.303205474556263344e-01 3.046996039446234761e-01
3.312821793257813563e-01 3.617881586660871562e-01
3.322438111959363227e-01 1.898560710558392373e-01
3.332054430660913447e-01 1.874336067375601544e-01
3.341670749362464221e-01 2.671390699879019337e-01
3.351287068064014441e-01 2.201013710978330096e-01
3.360903386765564660e-01 2.992321548395366904e-01
3.370519705467114324e-01 3.417405023383786045e-01
3.380136024168665099e-01 2.824243198763056739e-01
3.389752342870215318e-01 2.337686183213740776e-01
3.399368661571765537e-01 3.415495925480698247e-01
3.408984980273315757e-01 2.161732869368790944e-01
3.418601298974865976e-01 1.040911138775477696e-01
3.428217617676416196e-01 2.303905371350829512e-01
3.437833936377966415e-01 4.228102561370263857e-01
3.447450255079516634e-01 3.815443310106090280e-01
3.457066573781066854e-01 3.046875612774044839e-01
3.466682892482617628e-01 2.228399601561470433e-01
3.476299211184167848e-01 1.874784111785956497e-01
3.485915529885717512e-01 3.118794830950868402e-01
3.495531848587267731e-01 3.477632750878107970e-01
3.505148167288818506e-01 3.751858531587153323e-01
3.514764485990368725e-01 3.042312478909252604e-01
3.524380804691918945e-01 2.982730401286382005e-01
3.533997123393468609e-01 2.814430509377352507e-01
3.543613442095019384e-01 3.523870144917076175e-01
3.553229760796569603e-01 4.782792944932090506e-01
3.562846079498119822e-01 5.040266509866526690e-01
3.572462398199670042e-01 4.735307055928394959e-01
3.582078716901220261e-01 3.720894416326245846e-01
3.591695035602770480e-01 4.987301987862338137e-01
3.601311354304320700e-01 3.671582111389923853e-01
3.610927673005870919e-01 5.784364550206113620e-01
3.620543991707421139e-01 5.336533343618725667e-01
3.630160310408971913e-01 5.164983379002912045e-01
3.639776629110522133e-01 5.277723961708211675e-01
3.649392947812071797e-01 4.855457072525872775e-01
3.659009266513622016e-01 4.261219414200674294e-01
3.668625585215172791e-01 4.490400376719954068e-01
3.678241903916723010e-01 5.516809136807232505e-01
3.687858222618273230e-01 4.394710904991043776e-01
3.697474541319822894e-01 5.121953938742294099e-01
3.707090860021373668e-01 4.479009292888811444e-01
3.716707178722923888e-01 4.739392741017098842e-01
3.726323497424474107e-01 5.410037779054590601e-01
3.735939816126024327e-01 4.215212143049065219e-01
3.745556134827574546e-01 3.176748540353315775e-01
3.755172453529124765e-01 3.346851739741119047e-01
3.764788772230674985e-01 2.600674078141764767e-01
3.774405090932225204e-01 3.936679691805480275e-01
3.784021409633775423e-01 4.859124488479658055e-01
3.793637728335326198e-01 3.847867903911073029e-01
3.803254047036876417e-01 4.900529986971662311e-01
3.812870365738426082e-01 6.287278310664845549e-01
3.822486684439976301e-01 5.075489573634648366e-01
3.832103003141527076e-01 3.834199179710182648e-01
3.841719321843077295e-01 4.318307058793671160e-01
3.851335640544627514e-01 5.281507716773781169e-01
3.860951959246177734e-01 2.911301851947563080e-01
3.870568277947727953e-01 2.811954522922839317e-01
3.880184596649278173e-01 3.856419501502337255e-01
3.889800915350828392e-01 5.077885663245176318e-01
3.899417234052378611e-01 4.852036131198893543e-01
3.909033552753928831e-01 3.460161471246046005e-01
3.918649871455479050e-01 4.134160080778812585e-01
3.928266190157029270e-01 3.247100557800948195e-01
3.937882508858579489e-01 2.896473748669912140e-01
3.947498827560129708e-01 3.523360290338466427e-01
3.957115146261680483e-01 1.064638210806343466e-01
3.966731464963230702e-01 2.054384146979835180e-01
3.976347783664780366e-01 3.607637455665582138e-01
3.985964102366330586e-01 4.329940958107485471e-01
3.995580421067881360e-01 3.567655164693981362e-01
4.005196739769430470e-01 4.008522981073738833e-01
4.014813058470981244e-01 3.507226251805661832e-01
4.024429377172531463e-01 2.454949838457167743e-01
4.034045695874082238e-01 3.280740687616052753e-01
