# q (1/Angstrom), Intensity (arb)
2.067508526570814575e-02 8.065319305925366962e+02
2.163671713586316769e-02 8.460602847461445890e+02
2.259834900601819310e-02 8.741415656746536342e+02
2.355998087617321851e-02 8.849518420630405444e+02
2.452161274632824739e-02 8.909377121331448279e+02
2.548324461648326933e-02 8.905562696557936988e+02
2.644487648663829821e-02 8.871177224106933181e+02
2.740650835679332709e-02 8.904536825432369369e+02
2.836814022694834903e-02 8.850543663857901038e+02
2.932977209710337443e-02 8.776959080217338851e+02
3.029140396725839637e-02 8.743319881217770444e+02
3.125303583741342178e-02 8.665727358745529045e+02
3.221466770756845066e-02 8.584055788381087950e+02
3.317629957772347260e-02 8.460751235472014287e+02
3.413793144787850148e-02 8.419881316972911236e+02
3.509956331803352342e-02 8.383548693761997583e+02
3.606119518818855230e-02 8.332812169302732173e+02
3.702282705834358117e-02 8.247616572699030257e+02
3.798445892849860311e-02 8.127727816861654446e+02
3.894609079865363199e-02 8.031975652012562250e+02
3.990772266880865393e-02 7.973495535800179823e+02
4.086935453896367587e-02 7.886132122963740585e+02
4.183098640911870475e-02 7.761501890566421480e+02
4.279261827927372669e-02 7.621141511952149585e+02
4.375425014942875557e-02 7.492663934138224704e+02
4.471588201958377751e-02 7.374163510022037826e+02
4.567751388973880639e-02 7.245957855061336659e+02
4.663914575989382832e-02 7.102520953132893737e+02
4.760077763004885720e-02 6.999311754897264564e+02
4.856240950020387914e-02 6.916614152127273201e+02
4.952404137035890108e-02 6.795254019808463681e+02
5.048567324051392302e-02 6.651938707552830010e+02
5.144730511066895190e-02 6.487375357905917781e+02
5.240893698082397384e-02 6.354848312364370031e+02
5.337056885097899578e-02 6.213156109311709088e+02
5.433220072113403160e-02 6.067055833141687344e+02
5.529383259128905354e-02 5.925228418788142335e+02
5.625546446144407547e-02 5.768011456186285386e+02
5.721709633159910435e-02 5.618081345104449156e+02
5.817872820175412629e-02 5.458519806396917602e+02
5.914036007190914823e-02 5.297594688012409279e+02
6.010199194206417017e-02 5.157587756747005869e+02
6.106362381221920599e-02 5.039009339377962533e+02
6.202525568237422793e-02 4.897044361362127916e+02
6.298688755252924987e-02 4.741723759579666648e+02
6.394851942268428568e-02 4.616568174677231582e+02
6.491015129283930762e-02 4.462998807851558922e+02
6.587178316299432956e-02 4.321997038117501120e+02
6.683341503314935150e-02 4.180874992835210833e+02
6.779504690330438732e-02 4.038721186686333340e+02
6.875667877345940926e-02 3.906568637358848264e+02
6.971831064361443120e-02 3.762434345676820726e+02
7.067994251376945314e-02 3.628761216375254435e+02
7.164157438392447508e-02 3.505643133864689389e+02
7.260320625407949702e-02 3.393299829556837039e+02
7.356483812423453283e-02 3.249468514914159414e+02
7.452646999438955477e-02 3.138868643952839648e+02
7.548810186454457671e-02 3.026797207009117869e+02
7.644973373469959865e-02 2.905614628877571590e+02
7.741136560485463447e-02 2.793166954655425229e+02
7.837299747500965641e-02 2.686632289949469055e+02
7.933462934516467835e-02 2.582135035342856781e+02
8.029626121531971417e-02 2.463066478323250976e+02
8.125789308547473611e-02 2.350593945296887455e+02
8.221952495562975805e-02 2.250834174967248771e+02
8.318115682578479386e-02 2.162858872811879394e+02
8.414278869593981580e-02 2.063186567004181313e+02
8.510442056609483774e-02 1.960209147155747758e+02
8.606605243624985968e-02 1.869276450802873342e+02
8.702768430640489550e-02 1.785401176118878368e+02
8.798931617655991744e-02 1.701420907357481838e+02
8.895094804671493938e-02 1.611048284887955617e+02
8.991257991686996132e-02 1.520010197093679665e+02
9.087421178702498326e-02 1.446955529949489403e+02
9.183584365718000520e-02 1.366579599058733265e+02
9.279747552733502713e-02 1.294206240673312038e+02
9.375910739749006295e-02 1.228006004909257172e+02
9.472073926764508489e-02 1.158095356133402731e+02
9.568237113780010683e-02 1.090052860588113930e+02
9.664400300795514265e-02 1.020408175818022585e+02
9.760563487811016459e-02 9.600088889805334702e+01
9.856726674826518653e-02 9.011499271884954965e+01
9.952889861842022234e-02 8.424545503237182231e+01
1.004905304885752443e-01 7.842381412626764359e+01
1.014521623587302801e-01 7.342955552836440347e+01
1.024137942288853020e-01 6.938727813993159543e+01
1.033754260990403240e-01 6.526108634943877007e+01
1.043370579691953459e-01 6.030248698133409846e+01
1.052986898393503817e-01 5.561469074724305983e+01
1.062603217095053898e-01 5.149272767026948827e+01
1.072219535796604256e-01 4.788968898636692018e+01
1.081835854498154614e-01 4.435510185954647255e+01
1.091452173199704695e-01 4.097363168666204558e+01
1.101068491901255053e-01 3.785650809138901707e+01
1.110684810602805411e-01 3.437836482174143526e+01
1.120301129304355492e-01 3.203246444343674426e+01
1.129917448005905850e-01 2.954447540535804961e+01
1.139533766707456208e-01 2.660790876201459554e+01
1.149150085409006289e-01 2.360628356971565367e+01
1.158766404110556647e-01 2.144802245797587759e+01
1.168382722812106728e-01 1.951561861268761078e+01
1.177999041513657086e-01 1.744925493230084257e+01
1.187615360215207305e-01 1.535127309814267349e+01
1.197231678916757525e-01 1.378073639282960272e+01
1.206847997618307744e-01 1.261211536961028301e+01
1.216464316319858102e-01 1.094670101418584807e+01
1.226080635021408183e-01 9.231455691388088525e+00
1.235696953722958541e-01 8.252887270478442616e+00
1.245313272424508899e-01 7.448407403040892660e+00
1.254929591126059119e-01 6.611322138279298599e+00
1.264545909827609338e-01 5.723954863389923986e+00
1.274162228529159557e-01 4.761523968580597455e+00
1.283778547230709777e-01 3.897993679331047900e+00
1.293394865932259996e-01 3.557590037912785164e+00
1.303011184633810493e-01 3.188413101042389286e+00
1.312627503335360435e-01 2.948138373636471243e+00
1.322243822036910932e-01 2.439292508938230242e+00
1.331860140738460874e-01 2.137741522003260286e+00
1.341476459440011371e-01 1.933683629831428163e+00
1.351092778141561590e-01 1.792825718725516992e+00
1.360709096843111809e-01 1.599871591360528811e+00
1.370325415544662029e-01 1.344895376022968492e+00
1.379941734246212526e-01 1.491368035573657380e+00
1.389558052947762468e-01 1.857012707262043705e+00
1.399174371649312965e-01 1.748215969916856238e+00
1.408790690350863184e-01 1.663539067156783346e+00
1.418407009052413403e-01 2.263834216564365676e+00
1.428023327753963623e-01 2.183846394682870340e+00
1.437639646455513842e-01 2.105793385695104547e+00
1.447255965157064062e-01 2.302223915365527063e+00
1.456872283858614281e-01 3.050139748224165004e+00
1.466488602560164778e-01 3.312528647812598592e+00
1.476104921261714720e-01 3.634053459702368372e+00
1.485721239963265217e-01 3.507133591444894449e+00
1.495337558664815436e-01 3.710672363867370649e+00
1.504953877366365655e-01 4.266695395919558820e+00
1.514570196067915875e-01 4.582503807997778011e+00
1.524186514769466094e-01 4.949902336899835831e+00
1.533802833471016314e-01 5.010153104980261674e+00
1.543419152172566811e-01 5.154551066308140861e+00
1.553035470874116752e-01 5.416442973549383311e+00
1.562651789575667249e-01 5.519073425310637049e+00
1.572268108277217469e-01 5.880541606535736321e+00
1.581884426978767688e-01 6.117826189768464928e+00
1.591500745680317908e-01 6.641385961213739364e+00
1.601117064381868405e-01 6.918177849037100202e+00
1.610733383083418346e-01 7.125104176335774753e+00
1.620349701784968843e-01 7.307997799668783045e+00
1.629966020486519063e-01 7.311454424053373202e+00
1.639582339188069282e-01 7.009361102845815594e+00
1.649198657889619501e-01 7.157130672170467278e+00
1.658814976591169721e-01 7.583693603619877877e+00
1.668431295292719940e-01 8.100349749590890269e+00
1.678047613994270160e-01 8.130811866570052615e+00
1.687663932695820379e-01 8.031267550990651927e+00
1.697280251397370598e-01 7.987678553966116368e+00
1.706896570098921095e-01 8.089960766760817990e+00
1.716512888800471037e-01 8.104180691941415660e+00
1.726129207502021534e-01 8.395499250131468472e+00
1.735745526203571754e-01 8.168417656000901417e+00
1.745361844905121973e-01 7.789507341237687399e+00
1.754978163606672192e-01 7.875761258320054026e+00
1.764594482308222689e-01 8.051236200213157446e+00
1.774210801009772631e-01 8.267670629999862797e+00
1.783827119711323128e-01 8.069012539680663565e+00
1.793443438412873348e-01 7.902627586662941184e+00
1.803059757114423567e-01 8.084617408226822732e+00
1.812676075815973786e-01 8.036571165161326746e+00
1.822292394517524006e-01 7.794460630562102921e+00
1.831908713219074225e-01 7.614318379021000283e+00
1.841525031920624444e-01 7.372649523150105466e+00
1.851141350622174664e-01 7.237778191773724501e+00
1.860757669323724883e-01 7.091592348979684601e+00
1.870373988025275380e-01 6.885129971268913351e+00
1.879990306726825322e-01 6.597799774606901480e+00
1.889606625428375819e-01 6.384084114400582877e+00
1.899222944129926038e-01 6.089696353203944312e+00
1.908839262831476258e-01 6.180689278078514093e+00
1.918455581533026477e-01 6.074205391991764458e+00
1.928071900234576974e-01 5.686541640118626617e+00
1.937688218936126916e-01 5.590281861887152814e+00
1.947304537637677413e-01 5.414449259859622998e+00
1.956920856339227632e-01 5.205720099698083914e+00
1.966537175040777852e-01 4.948161706098797907e+00
1.976153493742328071e-01 4.840309133231841088e+00
1.985769812443878291e-01 4.640059496157910246e+00
1.995386131145428510e-01 4.294677973490081513e+00
2.005002449846978729e-01 3.928464245321290349e+00
2.014618768548528949e-01 3.946380026197271462e+00
2.024235087250079168e-01 3.715580240429435577e+00
2.033851405951629665e-01 3.534925460353601778e+00
2.043467724653179884e-01 3.332883663949637310e+00
2.053084043354730381e-01 3.290495928926020497e+00
2.062700362056280046e-01 2.987951622411259223e+00
2.072316680757830543e-01 2.568220913530531391e+00
2.081932999459380762e-01 2.584357064162812634e+00
2.091549318160931259e-01 2.586189269290887438e+00
2.101165636862481478e-01 2.264040320482049395e+00
2.110781955564031698e-01 2.208750213865439349e+00
2.120398274265581640e-01 2.010175417189380198e+00
2.130014592967132137e-01 1.949150380370792135e+00
2.139630911668682356e-01 1.746830615135525733e+00
2.149247230370232575e-01 1.551434922187596044e+00
2.158863549071783072e-01 1.478027439981190128e+00
2.168479867773333014e-01 1.360626037974839164e+00
2.178096186474883234e-01 1.246986733070745146e+00
2.187712505176433453e-01 1.082216669618752292e+00
2.197328823877983950e-01 8.600316462471262469e-01
2.206945142579534169e-01 9.392986387446313756e-01
2.216561461281084666e-01 9.081636346944712557e-01
2.226177779982634330e-01 1.041374493508019583e+00
2.235794098684184827e-01 9.383155835508318887e-01
2.245410417385735047e-01 6.397081556205712616e-01
2.255026736087285544e-01 5.121561564755090501e-01
2.264643054788835763e-01 5.462008563417128926e-01
2.274259373490385983e-01 4.950176694808483546e-01
2.283875692191935924e-01 4.860194855813695369e-01
2.293492010893486421e-01 5.936294987605243989e-01
2.303108329595036641e-01 8.131844260040779204e-01
2.312724648296586860e-01 7.801785183150009573e-01
2.322340966998137357e-01 8.226122578723931156e-01
2.331957285699687299e-01 5.292288875009667493e-01
2.341573604401237518e-01 4.333112746285436856e-01
2.351189923102787738e-01 4.012923563681312089e-01
2.360806241804338235e-01 3.189545781002216529e-01
2.370422560505888454e-01 3.946810018553286170e-01
2.380038879207438951e-01 5.388409319098030892e-01
2.389655197908988615e-01 3.909492862316845674e-01
2.399271516610539112e-01 4.954830077601499738e-01
2.408887835312089332e-01 6.140415467958888485e-01
2.418504154013639829e-01 4.622302221014962242e-01
2.428120472715190048e-01 6.486356553372267797e-01
2.437736791416740267e-01 5.856300043504347741e-01
2.447353110118290209e-01 5.384569356269430784e-01
2.456969428819840706e-01 6.476487603131353410e-01
2.466585747521390926e-01 8.877747340875572490e-01
2.476202066222941145e-01 9.530503495907396427e-01
2.485818384924491642e-01 7.615582580335420460e-01
2.495434703626041584e-01 7.775990737103342099e-01
2.505051022327591803e-01 8.304872091985444627e-01
2.514667341029142023e-01 6.937508948465449521e-01
2.524283659730692242e-01 7.265866364083706230e-01
2.533899978432243016e-01 9.616636056256382403e-01
2.543516297133793236e-01 1.104297490559627448e+00
2.553132615835342900e-01 1.043578258118646573e+00
2.562748934536893120e-01 1.004159549039567167e+00
2.572365253238443894e-01 8.285046095231862751e-01
2.581981571939994113e-01 9.539554120223314726e-01
2.591597890641544333e-01 1.147119312059025731e+00
2.601214209343094552e-01 1.240963230391948002e+00
2.610830528044644772e-01 1.016191893923394929e+00
2.620446846746194991e-01 1.257717798404801357e+00
2.630063165447745210e-01 1.333951735298725794e+00
2.639679484149295430e-01 1.147734571083997679e+00
2.649295802850845649e-01 1.363132158060988530e+00
2.658912121552395869e-01 1.283989024940122903e+00
2.668528440253946088e-01 1.137140396553487420e+00
2.678144758955496307e-01 1.360677329894961929e+00
2.687761077657046527e-01 1.344683125983749505e+00
2.697377396358597301e-01 1.351263125919153651e+00
2.706993715060147521e-01 1.343709861051678445e+00
2.716610033761697185e-01 1.254466869045135269e+00
2.726226352463247404e-01 1.355595079116223900e+00
2.735842671164798179e-01 1.282985819999677091e+00
2.745458989866348398e-01 1.246755699022056518e+00
2.755075308567898618e-01 1.348626985036030845e+00
2.764691627269448837e-01 1.254001756919951305e+00
2.774307945970999056e-01 1.222705114861771136e+00
2.783924264672549276e-01 1.203845270002151580e+00
2.793540583374099495e-01 1.315906298627307791e+00
2.803156902075649715e-01 1.300424204027727626e+00
2.812773220777199934e-01 1.264158737056220616e+00
2.822389539478750153e-01 1.341431250754130389e+00
2.832005858180300373e-01 1.372469339624284856e+00
2.841622176881850592e-01 1.279961940439829249e+00
2.851238495583400812e-01 1.191465508594806266e+00
2.860854814284951586e-01 1.143040276200078864e+00
2.870471132986501805e-01 1.135677882740086631e+00
2.880087451688051470e-01 1.130330365603839482e+00
2.889703770389601689e-01 1.313279939231808413e+00
2.899320089091152464e-01 1.333306305243624479e+00
2.908936407792702683e-01 9.817448667778094773e-01
2.918552726494252902e-01 9.188448362461869579e-01
2.928169045195803122e-01 8.645184046561915636e-01
2.937785363897353341e-01 8.124398395517253846e-01
2.947401682598903561e-01 8.375614931931920637e-01
2.957018001300453780e-01 9.426096574225013569e-01
2.966634320002003999e-01 8.386866682275240237e-01
2.976250638703554219e-01 8.274976573292178728e-01
2.985866957405104993e-01 9.219253374687070846e-01
2.995483276106654658e-01 6.401650361194413108e-01
3.005099594808204877e-01 5.159713449290279641e-01
3.014715913509755651e-01 5.735704125605813886e-01
3.024332232211305871e-01 7.463411182680985689e-01
3.033948550912856090e-01 6.280481413860528050e-01
3.043564869614405755e-01 4.657411469304264529e-01
3.053181188315956529e-01 5.512836964084115721e-01
3.062797507017506748e-01 5.863977562161544199e-01
3.072413825719056968e-01 5.164794189628132415e-01
3.082030144420607187e-01 4.512103799800293302e-01
3.091646463122157407e-01 5.200320058080656338e-01
3.101262781823707626e-01 5.900157628667592746e-01
3.110879100525257845e-01 3.850266344067101443e-01
3.120495419226808065e-01 5.231429593325671590e-01
3.130111737928358284e-01 6.266722966913782500e-01
3.139728056629909059e-01 3.622114616006193444e-01
3.149344375331459278e-01 4.231324186931146869e-01
3.158960694033008942e-01 3.040412077635501475e-01
3.168577012734559162e-01 2.046215254594940802e-01
3.178193331436109936e-01 1.701201579784985540e-01
3.187809650137660156e-01 3.240678747789829117e-01
3.197425968839210375e-01 4.277750690053174765e-01
3.207042287540760039e-01 4.424492380992397500e-01
3.216658606242310814e-01 4.632809952805772014e-01
3.226274924943861033e-01 2.831696826193628169e-01
3.235891243645411253e-01 1.661024155252022183e-01
3.245507562346961472e-01 1.418202332502325191e-01
3.255123881048511691e-01 2.382796291158904012e-01
3.264740199750061911e-01 1.596558006390758067e-01
3.274356518451612130e-01 2.962823746617466725e-01
3.283972837153162350e-01 2.452301385467841044e-01
3.293589155854712569e-01 2.575600478022508355e-01
3.303205474556263344e-01 3.922970401808463237e-01
3.312821793257813563e-01 3.521748728616138635e-01
3.322438111959363227e-01 2.830033625173200562e-01
3.332054430660913447e-01 1.323776444943405295e-01
3.341670749362464221e-01 2.478753310022092649e-01
3.351287068064014441e-01 3.017801882292516780e-01
3.360903386765564660e-01 3.752855398892052108e-01
3.370519705467114324e-01 3.861105293040338893e-01
3.380136024168665099e-01 1.183246937609396809e-01
3.389752342870215318e-01 1.682316763948925598e-01
3.399368661571765537e-01 4.253245440471573602e-01
3.408984980273315757e-01 3.361843410465468196e-01
3.418601298974865976e-01 2.448148898537922946e-01
3.428217617676416196e-01 2.609401505766584251e-01
3.437833936377966415e-01 3.490139265088281206e-01
3.447450255079516634e-01 2.650379616594271681e-01
3.457066573781066854e-01 3.676727184643304724e-01
3.466682892482617628e-01 4.823286465294032155e-01
3.476299211184167848e-01 6.277099005824275935e-01
3.485915529885717512e-01 5.466480816031449308e-01
3.495531848587267731e-01 1.733772301270839478e-01
3.505148167288818506e-01 1.960810719632775090e-01
3.514764485990368725e-01 3.925993803794654013e-01
3.524380804691918945e-01 4.508332515497208703e-01
3.533997123393468609e-01 4.020543931833024942e-01
3.543613442095019384e-01 3.558716649333710791e-01
3.553229760796569603e-01 2.538256183901097529e-01
3.562846079498119822e-01 4.004670068402944594e-01
3.572462398199670042e-01 4.116597247373263713e-01
3.582078716901220261e-01 5.101699853286163489e-01
3.591695035602770480e-01 4.407812090586737952e-01
3.601311354304320700e-01 5.637962149722035576e-01
3.610927673005870919e-01 5.345104688359647582e-01
3.620543991707421139e-01 4.373473093845525739e-01
3.630160310408971913e-01 3.856280501660265259e-01
3.639776629110522133e-01 5.697642149095081265e-01
3.649392947812071797e-01 4.830805542325400381e-01
3.659009266513622016e-01 4.637461120727799369e-01
3.668625585215172791e-01 4.853690648438089283e-01
3.678241903916723010e-01 5.541529196504058064e-01
3.687858222618273230e-01 5.790391406911261640e-01
3.697474541319822894e-01 6.214423262159840533e-01
3.707090860021373668e-01 5.440506723295754909e-01
3.716707178722923888e-01 5.101103206279873348e-01
3.726323497424474107e-01 5.015336654182576126e-01
3.735939816126024327e-01 4.755508393406415735e-01
3.745556134827574546e-01 4.966827624545437914e-01
3.755172453529124765e-01 2.737421604557859212e-01
3.764788772230674985e-01 4.197492993717766296e-01
3.774405090932225204e-01 3.602877693381500990e-01
3.784021409633775423e-01 4.968820826996456219e-01
3.793637728335326198e-01 5.664001034996353212e-01
3.803254047036876417e-01 5.272090175757746522e-01
3.812870365738426082e-01 4.287784219573147482e-01
3.822486684439976301e-01 4.670131125631620250e-01
3.832103003141527076e-01 5.150564383870346319e-01
3.841719321843077295e-01 5.902211931909100429e-01
3.851335640544627514e-01 4.287121646840716949e-01
3.860951959246177734e-01 4.635687820060532260e-01
3.870568277947727953e-01 5.596594707753972386e-01
3.880184596649278173e-01 4.586540681372603956e-01
3.889800915350828392e-01 4.563744777946290299e-01
3.899417234052378611e-01 3.335636314745045183e-01
3.909033552753928831e-01 3.617035858456283393e-01
3.918649871455479050e-01 4.276103032992111252e-01
3.928266190157029270e-01 4.910134599431650315e-01
3.937882508858579489e-01 4.983899519023111679e-01
3.947498827560129708e-01 3.761631204706006315e-01
3.957115146261680483e-01 4.581813670502192792e-01
3.966731464963230702e-01 5.589715480033170536e-01
3.976347783664780366e-01 4.432423061110455365e-01
3.985964102366330586e-01 1.906642592295284544e-01
3.995580421067881360e-01 3.973772973088642857e-01
4.005196739769430470e-01 3.679283267212518638e-01
4.014813058470981244e-01 3.934281297166606350e-01
4.024429377172531463e-01 2.867137872534932796e-01
4.034045695874082238e-01 1.739118935040266933e-01
