# q (1/Angstrom), Intensity (arb)
2.067508526570814575e-02 7.722458525821489275e+02
2.163671713586316769e-02 8.033389431525805549e+02
2.259834900601819310e-02 8.326788120196556520e+02
2.355998087617321851e-02 8.457761278769627324e+02
2.452161274632824739e-02 8.529040309218408993e+02
2.548324461648326933e-02 8.526280243875818314e+02
2.644487648663829821e-02 8.496982099822874943e+02
2.740650835679332709e-02 8.491551793726077904e+02
2.836814022694834903e-02 8.459890585045263833e+02
2.932977209710337443e-02 8.412178231300048310e+02
3.029140396725839637e-02 8.329167335234321854e+02
3.125303583741342178e-02 8.305028171728218922e+02
3.221466770756845066e-02 8.216148166479198380e+02
3.317629957772347260e-02 8.161537472090236633e+02
3.413793144787850148e-02 8.110089289012441895e+02
3.509956331803352342e-02 8.047182582927014209e+02
3.606119518818855230e-02 7.982212749439988784e+02
3.702282705834358117e-02 7.918108402085326816e+02
3.798445892849860311e-02 7.803640117491942192e+02
3.894609079865363199e-02 7.682746151510416439e+02
3.990772266880865393e-02 7.602991335275410165e+02
4.086935453896367587e-02 7.517419507705709520e+02
4.183098640911870475e-02 7.433393952708427150e+02
4.279261827927372669e-02 7.357842948943026613e+02
4.375425014942875557e-02 7.220497260512555613e+02
4.471588201958377751e-02 7.077056738165617844e+02
4.567751388973880639e-02 6.953840853036053886e+02
4.663914575989382832e-02 6.830324195056601866e+02
4.760077763004885720e-02 6.729210331943031633e+02
4.856240950020387914e-02 6.625871091326041551e+02
4.952404137035890108e-02 6.493522628678637147e+02
5.048567324051392302e-02 6.377665834018941950e+02
5.144730511066895190e-02 6.213418830569916054e+02
5.240893698082397384e-02 6.094748465212603605e+02
5.337056885097899578e-02 5.974636554534808965e+02
5.433220072113403160e-02 5.815049510534117871e+02
5.529383259128905354e-02 5.665672662286078776e+02
5.625546446144407547e-02 5.510982222467389420e+02
5.721709633159910435e-02 5.361437603421993572e+02
5.817872820175412629e-02 5.222545848711398548e+02
5.914036007190914823e-02 5.092529756379270793e+02
6.010199194206417017e-02 4.959460328669675278e+02
6.106362381221920599e-02 4.804051328649096035e+02
6.202525568237422793e-02 4.659739967973686703e+02
6.298688755252924987e-02 4.527106668223142378e+02
6.394851942268428568e-02 4.403820372836136130e+02
6.491015129283930762e-02 4.270641554075438080e+02
6.587178316299432956e-02 4.134066054182270022e+02
6.683341503314935150e-02 3.995812534881040392e+02
6.779504690330438732e-02 3.859900883996300536e+02
6.875667877345940926e-02 3.727974334267669860e+02
6.971831064361443120e-02 3.607171442615562569e+02
7.067994251376945314e-02 3.475276969389649366e+02
7.164157438392447508e-02 3.333510802883201336e+02
7.260320625407949702e-02 3.238232066504573368e+02
7.356483812423453283e-02 3.119892974754574766e+02
7.452646999438955477e-02 2.999179147321005416e+02
7.548810186454457671e-02 2.875209261047358495e+02
7.644973373469959865e-02 2.771620357829890509e+02
7.741136560485463447e-02 2.662129975895230700e+02
7.837299747500965641e-02 2.551838983491331874e+02
7.933462934516467835e-02 2.448509855299714673e+02
8.029626121531971417e-02 2.345527069013443509e+02
8.125789308547473611e-02 2.244133704053642191e+02
8.221952495562975805e-02 2.150050933648613238e+02
8.318115682578479386e-02 2.045633898332822298e+02
8.414278869593981580e-02 1.954376260925820645e+02
8.510442056609483774e-02 1.865895476610885169e+02
8.606605243624985968e-02 1.773717159501117067e+02
8.702768430640489550e-02 1.691632668378404389e+02
8.798931617655991744e-02 1.608213098208636040e+02
8.895094804671493938e-02 1.524573156505033182e+02
8.991257991686996132e-02 1.457755613428049628e+02
9.087421178702498326e-02 1.382361823629394451e+02
9.183584365718000520e-02 1.296866341499679152e+02
9.279747552733502713e-02 1.224563376183649694e+02
9.375910739749006295e-02 1.160367581031311488e+02
9.472073926764508489e-02 1.100470500391705002e+02
9.568237113780010683e-02 1.037116090436176705e+02
9.664400300795514265e-02 9.702641721150318688e+01
9.760563487811016459e-02 9.160199669907868270e+01
9.856726674826518653e-02 8.592273688411995636e+01
9.952889861842022234e-02 7.976050912474396171e+01
1.004905304885752443e-01 7.496767125946752230e+01
1.014521623587302801e-01 6.981417470504231915e+01
1.024137942288853020e-01 6.520367911173148912e+01
1.033754260990403240e-01 6.050765346896491792e+01
1.043370579691953459e-01 5.576387547047376358e+01
1.052986898393503817e-01 5.209395385461272099e+01
1.062603217095053898e-01 4.847367964033104215e+01
1.072219535796604256e-01 4.462897091179263498e+01
1.081835854498154614e-01 4.128034240791367893e+01
1.091452173199704695e-01 3.816127690335548550e+01
1.101068491901255053e-01 3.505668242608987839e+01
1.110684810602805411e-01 3.202974503599740785e+01
1.120301129304355492e-01 2.892434854637861363e+01
1.129917448005905850e-01 2.648945939904707814e+01
1.139533766707456208e-01 2.450030359097421240e+01
1.149150085409006289e-01 2.186295792094644597e+01
1.158766404110556647e-01 2.011101891183102452e+01
1.168382722812106728e-01 1.795102445506550737e+01
1.177999041513657086e-01 1.604458842511779793e+01
1.187615360215207305e-01 1.446403486056279775e+01
1.197231678916757525e-01 1.251195742950749334e+01
1.206847997618307744e-01 1.079809420901790418e+01
1.216464316319858102e-01 9.621612017100307668e+00
1.226080635021408183e-01 8.759542189497132370e+00
1.235696953722958541e-01 7.865869079698008193e+00
1.245313272424508899e-01 6.853901345615401652e+00
1.254929591126059119e-01 6.064227361383146331e+00
1.264545909827609338e-01 5.131114348875293274e+00
1.274162228529159557e-01 4.033412725146899191e+00
1.283778547230709777e-01 3.666787211945628400e+00
1.293394865932259996e-01 2.943783320224710565e+00
1.303011184633810493e-01 2.790845262177665376e+00
1.312627503335360435e-01 2.330521382447706458e+00
1.322243822036910932e-01 1.991831385115457209e+00
1.331860140738460874e-01 1.907096409155251138e+00
1.341476459440011371e-01 1.611461899461051672e+00
1.351092778141561590e-01 1.899071246992988904e+00
1.360709096843111809e-01 1.965987252902351656e+00
1.370325415544662029e-01 1.655824326406385438e+00
1.379941734246212526e-01 1.427200928819939207e+00
1.389558052947762468e-01 1.674416205595939289e+00
1.399174371649312965e-01 1.934422385019839652e+00
1.408790690350863184e-01 1.760275287681714929e+00
1.418407009052413403e-01 1.810517933967464188e+00
1.428023327753963623e-01 2.129289151373981781e+00
1.437639646455513842e-01 2.268319952347329860e+00
1.447255965157064062e-01 2.347753261829556237e+00
1.456872283858614281e-01 2.609850461486580286e+00
1.466488602560164778e-01 3.038466887585251186e+00
1.476104921261714720e-01 3.207863826576556221e+00
1.485721239963265217e-01 3.560269194231842960e+00
1.495337558664815436e-01 3.776817431434121630e+00
1.504953877366365655e-01 3.982632503632512311e+00
1.514570196067915875e-01 4.364481775809455399e+00
1.524186514769466094e-01 4.728557145165517284e+00
1.533802833471016314e-01 4.647012121068147650e+00
1.543419152172566811e-01 4.903608848695906630e+00
1.553035470874116752e-01 5.286138621021670758e+00
1.562651789575667249e-01 5.630910473380055237e+00
1.572268108277217469e-01 6.027720308094451696e+00
1.581884426978767688e-01 6.199592085046873535e+00
1.591500745680317908e-01 6.515462301591110617e+00
1.601117064381868405e-01 6.544610119568531559e+00
1.610733383083418346e-01 6.611942684646386681e+00
1.620349701784968843e-01 6.972578044280083986e+00
1.629966020486519063e-01 7.210900639958037317e+00
1.639582339188069282e-01 7.512246323908577494e+00
1.649198657889619501e-01 7.307762576311432667e+00
1.658814976591169721e-01 7.081592053479266013e+00
1.668431295292719940e-01 7.135240843771939012e+00
1.678047613994270160e-01 7.214450412367973797e+00
1.687663932695820379e-01 7.264598739571425767e+00
1.697280251397370598e-01 7.354780255173253067e+00
1.706896570098921095e-01 7.375884947768856392e+00
1.716512888800471037e-01 7.960717533064830320e+00
1.726129207502021534e-01 7.954491437226906214e+00
1.735745526203571754e-01 8.055579148422321367e+00
1.745361844905121973e-01 7.797294214908333743e+00
1.754978163606672192e-01 7.443445089508067269e+00
1.764594482308222689e-01 7.537319308322015132e+00
1.774210801009772631e-01 7.222865265731066131e+00
1.783827119711323128e-01 7.368364041185817115e+00
1.793443438412873348e-01 7.184758968670770685e+00
1.803059757114423567e-01 7.175443762137174275e+00
1.812676075815973786e-01 7.372203234078430256e+00
1.822292394517524006e-01 7.307403748502853347e+00
1.831908713219074225e-01 6.976936484086241563e+00
1.841525031920624444e-01 6.881563225352437030e+00
1.851141350622174664e-01 6.672378903119330573e+00
1.860757669323724883e-01 6.512192166029002749e+00
1.870373988025275380e-01 6.313010447896818533e+00
1.879990306726825322e-01 6.105133466340330273e+00
1.889606625428375819e-01 5.929619278418474693e+00
1.899222944129926038e-01 5.926766428367162831e+00
1.908839262831476258e-01 5.697676571800048606e+00
1.918455581533026477e-01 5.354063676427490037e+00
1.928071900234576974e-01 5.310780469262819992e+00
1.937688218936126916e-01 4.941704693203668342e+00
1.947304537637677413e-01 4.695310612055880739e+00
1.956920856339227632e-01 4.587000988923421119e+00
1.966537175040777852e-01 4.613126227725128814e+00
1.976153493742328071e-01 4.648567165381354727e+00
1.985769812443878291e-01 4.407705801775804844e+00
1.995386131145428510e-01 4.050565455296798234e+00
2.005002449846978729e-01 3.909908107500669416e+00
2.014618768548528949e-01 3.543877273400610761e+00
2.024235087250079168e-01 3.355048512660687265e+00
2.033851405951629665e-01 3.323737109612228124e+00
2.043467724653179884e-01 3.197612378158044777e+00
2.053084043354730381e-01 2.900763431613569310e+00
2.062700362056280046e-01 2.743614374058527261e+00
2.072316680757830543e-01 2.699626368442000768e+00
2.081932999459380762e-01 2.492713815201479832e+00
2.091549318160931259e-01 2.314943223346048740e+00
2.101165636862481478e-01 2.018762483751828540e+00
2.110781955564031698e-01 1.924899533839745658e+00
2.120398274265581640e-01 1.804161266056027557e+00
2.130014592967132137e-01 1.571143117855534399e+00
2.139630911668682356e-01 1.336696114507134325e+00
2.149247230370232575e-01 1.400458582683199893e+00
2.158863549071783072e-01 1.305087761325694373e+00
2.168479867773333014e-01 1.176031583068414932e+00
2.178096186474883234e-01 1.277230734326835204e+00
2.187712505176433453e-01 1.104585556256989065e+00
2.197328823877983950e-01 8.746538363122411397e-01
2.206945142579534169e-01 8.452602681107421745e-01
2.216561461281084666e-01 6.085654987393844806e-01
2.226177779982634330e-01 5.129685266148058531e-01
2.235794098684184827e-01 6.095309606917460599e-01
2.245410417385735047e-01 6.711374468775126445e-01
2.255026736087285544e-01 5.405653827355756391e-01
2.264643054788835763e-01 6.158600765398958288e-01
2.274259373490385983e-01 6.166678823802698162e-01
2.283875692191935924e-01 7.083669812581909753e-01
2.293492010893486421e-01 6.269489717808092166e-01
2.303108329595036641e-01 3.676079680610513378e-01
2.312724648296586860e-01 1.893558016111462905e-01
2.322340966998137357e-01 2.693462777382826800e-01
2.331957285699687299e-01 2.526513968826691325e-01
2.341573604401237518e-01 3.329184997799821133e-01
2.351189923102787738e-01 4.329985924161370292e-01
2.360806241804338235e-01 5.033824902558983183e-01
2.370422560505888454e-01 5.340335500538806457e-01
2.380038879207438951e-01 2.088362146570084121e-01
2.389655197908988615e-01 2.156354919752025978e-01
2.399271516610539112e-01 3.845544501461510833e-01
2.408887835312089332e-01 3.781336758173381440e-01
2.418504154013639829e-01 3.067468884275577068e-01
2.428120472715190048e-01 2.070423511442207598e-01
2.437736791416740267e-01 3.166361972879343512e-01
2.447353110118290209e-01 6.142451968819742092e-01
2.456969428819840706e-01 3.959519059243490346e-01
2.466585747521390926e-01 5.559481758577895505e-01
2.476202066222941145e-01 5.623417538323671749e-01
2.485818384924491642e-01 6.801853101627237663e-01
2.495434703626041584e-01 6.870243221499237052e-01
2.505051022327591803e-01 8.838438770648906484e-01
2.514667341029142023e-01 1.085178504882303940e+00
2.524283659730692242e-01 8.878230943252205520e-01
2.533899978432243016e-01 8.041311177128278587e-01
2.543516297133793236e-01 1.012308122034990987e+00
2.553132615835342900e-01 8.826109285688303885e-01
2.562748934536893120e-01 9.928273920219510273e-01
2.572365253238443894e-01 9.670697528190892456e-01
2.581981571939994113e-01 9.595917057732741284e-01
2.591597890641544333e-01 8.994440043230120807e-01
2.601214209343094552e-01 8.670209092398799555e-01
2.610830528044644772e-01 9.874230783752580010e-01
2.620446846746194991e-01 1.098403211490861509e+00
2.630063165447745210e-01 1.189421261422349829e+00
2.639679484149295430e-01 9.876593060105278710e-01
2.649295802850845649e-01 9.752421551622560969e-01
2.658912121552395869e-01 9.884652508408819926e-01
2.668528440253946088e-01 1.119511327336088158e+00
2.678144758955496307e-01 1.282036187809726613e+00
2.687761077657046527e-01 1.373015331917098791e+00
2.697377396358597301e-01 1.287991097042262112e+00
2.706993715060147521e-01 1.130435395820672539e+00
2.716610033761697185e-01 1.258547477938098069e+00
2.726226352463247404e-01 1.269123130841947500e+00
2.735842671164798179e-01 1.410962932188457586e+00
2.745458989866348398e-01 1.160071823899659904e+00
2.755075308567898618e-01 1.092801191859944510e+00
2.764691627269448837e-01 9.442651588521506767e-01
2.774307945970999056e-01 1.046907866770009576e+00
2.783924264672549276e-01 1.086711520183509805e+00
2.793540583374099495e-01 1.081955285707682179e+00
2.803156902075649715e-01 1.284008302139454827e+00
2.812773220777199934e-01 1.363044158413416085e+00
2.822389539478750153e-01 1.257990299835803683e+00
2.832005858180300373e-01 9.286357072956334946e-01
2.841622176881850592e-01 9.450192756164241814e-01
2.851238495583400812e-01 8.456495250003079889e-01
2.860854814284951586e-01 9.660833258388272782e-01
2.870471132986501805e-01 1.051326187803319101e+00
2.880087451688051470e-01 9.434758998664101171e-01
2.889703770389601689e-01 7.761580657910336356e-01
2.899320089091152464e-01 9.120260481624953286e-01
2.908936407792702683e-01 9.203958991908471887e-01
2.918552726494252902e-01 8.954560529706689920e-01
2.928169045195803122e-01 6.314218332171073200e-01
2.937785363897353341e-01 8.127298990978601978e-01
2.947401682598903561e-01 9.090769841849493105e-01
2.957018001300453780e-01 8.082398169454414472e-01
2.966634320002003999e-01 8.364982182398286170e-01
2.976250638703554219e-01 9.096692282323992629e-01
2.985866957405104993e-01 7.905250529449290298e-01
2.995483276106654658e-01 5.511743601797967074e-01
3.005099594808204877e-01 5.207604074068044042e-01
3.014715913509755651e-01 5.830466302390782118e-01
3.024332232211305871e-01 5.492220757249057783e-01
3.033948550912856090e-01 4.595184655882889047e-01
3.043564869614405755e-01 3.362731528532378888e-01
3.053181188315956529e-01 4.169844672651166206e-01
3.062797507017506748e-01 3.446425807234945182e-01
3.072413825719056968e-01 3.757989126402172531e-01
3.082030144420607187e-01 5.464442541724281455e-01
3.091646463122157407e-01 5.154561059741951112e-01
3.101262781823707626e-01 3.545365154061101975e-01
3.110879100525257845e-01 2.474923584439032709e-01
3.120495419226808065e-01 3.444077605079733928e-01
3.130111737928358284e-01 5.580364416188814403e-01
3.139728056629909059e-01 4.805006140748560028e-01
3.149344375331459278e-01 3.812885820409803728e-01
3.158960694033008942e-01 3.255788618605919282e-01
3.168577012734559162e-01 2.724095393517487196e-01
3.178193331436109936e-01 1.845635992075216336e-01
3.187809650137660156e-01 2.420947440465752720e-01
3.197425968839210375e-01 3.643787789632462193e-01
3.207042287540760039e-01 3.534086803956206779e-01
3.216658606242310814e-01 5.240353935196395696e-02
3.226274924943861033e-01 1.650582447572084277e-01
3.235891243645411253e-01 3.721129883090270596e-01
3.245507562346961472e-01 2.386640109194146930e-01
3.255123881048511691e-01 0.000000000000000000e+00
3.264740199750061911e-01 3.396157784862090523e-01
3.274356518451612130e-01 3.576023140522721633e-01
3.283972837153162350e-01 9.565738827276959455e-03
3.293589155854712569e-01 1.181643058553021319e-01
3.303205474556263344e-01 3.642096431236119258e-01
3.312821793257813563e-01 2.181775296664625330e-01
3.322438111959363227e-01 1.297781930728518773e-01
3.332054430660913447e-01 1.433941113258860867e-01
3.341670749362464221e-01 4.463766015166825696e-02
3.351287068064014441e-01 2.171331693809719354e-01
3.360903386765564660e-01 2.661567014987156199e-01
3.370519705467114324e-01 2.165176881945214404e-01
3.380136024168665099e-01 4.376156362628229601e-01
3.389752342870215318e-01 5.945806693950999033e-01
3.399368661571765537e-01 4.937498192091709370e-01
3.408984980273315757e-01 3.517169981994143768e-01
3.418601298974865976e-01 4.153947938748920876e-01
3.428217617676416196e-01 3.661749928057851378e-01
3.437833936377966415e-01 2.849903479252873240e-01
3.447450255079516634e-01 2.831197803957827830e-01
3.457066573781066854e-01 2.880244580287332212e-01
3.466682892482617628e-01 3.376465283998903999e-01
3.476299211184167848e-01 3.802703332966537175e-01
3.485915529885717512e-01 4.763518151038184101e-01
3.495531848587267731e-01 4.084066880211878470e-01
3.505148167288818506e-01 4.748495573780502355e-01
3.514764485990368725e-01 4.732965684854626431e-01
3.524380804691918945e-01 3.795220149688667277e-01
3.533997123393468609e-01 4.286828189918026055e-01
3.543613442095019384e-01 5.651590015665846067e-01
3.553229760796569603e-01 5.657695731249781090e-01
3.562846079498119822e-01 3.442895520181927793e-01
3.572462398199670042e-01 3.247299841473676452e-01
3.582078716901220261e-01 3.044167944599500686e-01
3.591695035602770480e-01 3.206247222573388456e-01
3.601311354304320700e-01 3.999851303922703494e-01
3.610927673005870919e-01 4.878930423432734642e-01
3.620543991707421139e-01 2.505446099403947358e-01
3.630160310408971913e-01 1.587584262736747576e-01
3.639776629110522133e-01 2.806341298814274410e-01
3.649392947812071797e-01 3.304260552623787817e-01
3.659009266513622016e-01 4.736619575806386706e-01
3.668625585215172791e-01 3.964171400671006040e-01
3.678241903916723010e-01 2.837037912453439503e-01
3.687858222618273230e-01 3.763831987515651178e-01
3.697474541319822894e-01 3.495975668711892581e-01
3.707090860021373668e-01 3.956839631432593762e-01
3.716707178722923888e-01 3.986390519795293130e-01
3.726323497424474107e-01 4.575636705840793184e-01
3.735939816126024327e-01 4.905406368403859574e-01
3.745556134827574546e-01 3.558840565658769606e-01
3.755172453529124765e-01 4.626790885517308993e-01
3.764788772230674985e-01 4.214746597007099638e-01
3.774405090932225204e-01 3.817034984988794122e-01
3.784021409633775423e-01 5.680293635022408694e-01
3.793637728335326198e-01 4.708019739307118812e-01
3.803254047036876417e-01 4.312430822676489584e-01
3.812870365738426082e-01 4.092775388748002285e-01
3.822486684439976301e-01 3.823336091003319837e-01
3.832103003141527076e-01 4.497368277654736346e-01
3.841719321843077295e-01 2.169001591771895221e-01
3.851335640544627514e-01 2.436166382604874059e-01
3.860951959246177734e-01 2.625584201726489653e-01
3.870568277947727953e-01 2.755955904682281243e-01
3.880184596649278173e-01 6.060075308699310881e-01
3.889800915350828392e-01 5.450086668216904684e-01
3.899417234052378611e-01 4.313519896825788180e-01
3.909033552753928831e-01 3.988863629339576278e-01
3.918649871455479050e-01 3.664792238984979633e-01
3.928266190157029270e-01 3.739639003610157886e-01
3.937882508858579489e-01 4.554422836995151158e-01
3.947498827560129708e-01 3.352662478510843869e-01
3.957115146261680483e-01 2.275921086093219969e-01
3.966731464963230702e-01 2.806628200144949403e-01
3.976347783664780366e-01 2.861096861091638743e-01
3.985964102366330586e-01 2.574107733530901498e-01
3.995580421067881360e-01 2.694037436061478274e-01
4.005196739769430470e-01 3.493333776771372357e-01
4.014813058470981244e-01 2.443253582645894539e-01
4.024429377172531463e-01 2.496196104356585010e-01
4.034045695874082238e-01 3.105873094519573385e-01
