# q (1/Angstrom), Intensity (arb)
2.029070354705860696e-02 2.046372456538014717e+02
2.133125244372399004e-02 1.722791728929497879e+02
2.237180134038937659e-02 1.493239765409966253e+02
2.341235023705475968e-02 1.299501958181746204e+02
2.445289913372014276e-02 1.128285597661115105e+02
2.549344803038552584e-02 1.018101940057252364e+02
2.653399692705091240e-02 9.017256916944735678e+01
2.757454582371629548e-02 8.208047115522120407e+01
2.861509472038167856e-02 7.317685246705237034e+01
2.965564361704706164e-02 6.582286135875436628e+01
3.069619251371244473e-02 5.966124693276961466e+01
3.173674141037782781e-02 5.480294698240915352e+01
3.277729030704321089e-02 5.237018877602903899e+01
3.381783920370859398e-02 4.975102576344721683e+01
3.485838810037397706e-02 4.702919028059007189e+01
3.589893699703936014e-02 4.390024150841708916e+01
3.693948589370474322e-02 4.228103665337710737e+01
3.798003479037012631e-02 4.005968837973509267e+01
3.902058368703550939e-02 3.855791375772904672e+01
4.006113258370089247e-02 3.773299284865944259e+01
4.110168148036627556e-02 3.732140060600082876e+01
4.214223037703165864e-02 3.684148146202502261e+01
4.318277927369704866e-02 3.584504253264707074e+01
4.422332817036243174e-02 3.417249261808848360e+01
4.526387706702781483e-02 3.487689205083992050e+01
4.630442596369319791e-02 3.648052461071102925e+01
4.734497486035858099e-02 3.705432374958123631e+01
4.838552375702396408e-02 3.777854829350944499e+01
4.942607265368934716e-02 3.800603205545513674e+01
5.046662155035473024e-02 3.904763327080475221e+01
5.150717044702011332e-02 4.129934317771352426e+01
5.254771934368549641e-02 4.354656568913288339e+01
5.358826824035087949e-02 4.703532233046018263e+01
5.462881713701626257e-02 5.145235334465784405e+01
5.566936603368164566e-02 5.579330684278501451e+01
5.670991493034702874e-02 6.007855358150887781e+01
5.775046382701241182e-02 6.896514214578448332e+01
5.879101272367779490e-02 7.917942827582814402e+01
5.983156162034317799e-02 9.221819970182590964e+01
6.087211051700856107e-02 1.103389150842101856e+02
6.191265941367394415e-02 1.393435728851155773e+02
6.295320831033933417e-02 1.875957576545716563e+02
6.399375720700471726e-02 2.756800848714701715e+02
6.503430610367010034e-02 4.125463359800725129e+02
6.607485500033548342e-02 6.016943077188024063e+02
6.711540389700086651e-02 8.369672379533450339e+02
6.815595279366624959e-02 1.108691882816525322e+03
6.919650169033163267e-02 1.312390983526727268e+03
7.023705058699701576e-02 1.295378336202118589e+03
7.127759948366239884e-02 1.031338042224341280e+03
7.231814838032778192e-02 7.230279220392050092e+02
7.335869727699316500e-02 5.103878674143966236e+02
7.439924617365854809e-02 3.845884084149745377e+02
7.543979507032393117e-02 3.046007259403909870e+02
7.648034396698931425e-02 2.529991337538546929e+02
7.752089286365469734e-02 2.181756993178494497e+02
7.856144176032008042e-02 1.932249293571223347e+02
7.960199065698546350e-02 1.709460266138248130e+02
8.064253955365084658e-02 1.428279665098235682e+02
8.168308845031622967e-02 1.077891829843570974e+02
8.272363734698161275e-02 7.273318601829527097e+01
8.376418624364699583e-02 4.756886236400173829e+01
8.480473514031239279e-02 3.225124109117993498e+01
8.584528403697777588e-02 2.371481940250122022e+01
8.688583293364315896e-02 1.734969064138859096e+01
8.792638183030854204e-02 1.317116068832166320e+01
8.896693072697392513e-02 1.092192064403531049e+01
9.000747962363930821e-02 8.731033938960649721e+00
9.104802852030469129e-02 7.756550722509089724e+00
9.208857741697007437e-02 6.541901388426261121e+00
9.312912631363545746e-02 6.300534512358140660e+00
9.416967521030084054e-02 6.374791828362205592e+00
9.521022410696622362e-02 5.767541934987697516e+00
9.625077300363160671e-02 5.786377777489626340e+00
9.729132190029698979e-02 5.592131023949320934e+00
9.833187079696237287e-02 5.629843328507853073e+00
9.937241969362775595e-02 5.678943061489789557e+00
1.004129685902931390e-01 5.931140311544830013e+00
1.014535174869585221e-01 6.238620838778984989e+00
1.024940663836239052e-01 6.369658365193501481e+00
1.035346152802892883e-01 7.123842534161077822e+00
1.045751641769546714e-01 7.763620614828347755e+00
1.056157130736200545e-01 9.168005712757214098e+00
1.066562619702854375e-01 1.157756701888132511e+01
1.076968108669508206e-01 1.431866469742760017e+01
1.087373597636162037e-01 1.814284765002312128e+01
1.097779086602815868e-01 2.416587374339061256e+01
1.108184575569469699e-01 3.369559424872292652e+01
1.118590064536123529e-01 4.262214978825476663e+01
1.128995553502777360e-01 5.039941319400267616e+01
1.139401042469431191e-01 5.538834549135761165e+01
1.149806531436085022e-01 5.363935405991976069e+01
1.160212020402738853e-01 4.473863051907054711e+01
1.170617509369392684e-01 3.509018550577837203e+01
1.181022998336046514e-01 2.855727997798517492e+01
1.191428487302700345e-01 2.450970926183835985e+01
1.201833976269354176e-01 2.239287293469611484e+01
1.212239465236008007e-01 2.132602358870512660e+01
1.222644954202661838e-01 2.081570099842789290e+01
1.233050443169315669e-01 2.033497563209596848e+01
1.243455932135969499e-01 2.081523441743564007e+01
1.253861421102623330e-01 2.225704536456655092e+01
1.264266910069277161e-01 2.388143045531642628e+01
1.274672399035930992e-01 2.780605937249962523e+01
1.285077888002584823e-01 3.340606224797978996e+01
1.295483376969238654e-01 4.101084683603750136e+01
1.305888865935892484e-01 4.997775690582437846e+01
1.316294354902546315e-01 5.768164867955307784e+01
1.326699843869200146e-01 6.383031111049922401e+01
1.337105332835853977e-01 6.716240807277640101e+01
1.347510821802507808e-01 6.283275696871446314e+01
1.357916310769161639e-01 5.397316081164348134e+01
1.368321799735815469e-01 4.357139612077180857e+01
1.378727288702469300e-01 3.533624508979130496e+01
1.389132777669123131e-01 2.946521150340958428e+01
1.399538266635776962e-01 2.443863569711310646e+01
1.409943755602430793e-01 2.002541949038548807e+01
1.420349244569084624e-01 1.528646481672001300e+01
1.430754733535738454e-01 1.171270227605770486e+01
1.441160222502392285e-01 9.026799957359571636e+00
1.451565711469046116e-01 6.868216751829926636e+00
1.461971200435699947e-01 5.758805103181380503e+00
1.472376689402353778e-01 5.088351192852648808e+00
1.482782178369007609e-01 4.589254502588076434e+00
1.493187667335661439e-01 3.757591861262817190e+00
1.503593156302315270e-01 3.287882868465104025e+00
1.513998645268969101e-01 3.544604930065332837e+00
1.524404134235622932e-01 3.142453448243102798e+00
1.534809623202276763e-01 2.512567643243301063e+00
1.545215112168930593e-01 2.392502924376643136e+00
1.555620601135584424e-01 2.426178860856303743e+00
1.566026090102238255e-01 2.367169536195028456e+00
1.576431579068892086e-01 2.591952878779082425e+00
1.586837068035545917e-01 2.446187160511016145e+00
1.597242557002199748e-01 2.327232695293353970e+00
1.607648045968853578e-01 1.982526537253527010e+00
1.618053534935507409e-01 2.014182054340892591e+00
1.628459023902161240e-01 2.376182236782383939e+00
1.638864512868815071e-01 2.362072238894249665e+00
1.649270001835468902e-01 2.162398951360607668e+00
1.659675490802122733e-01 2.241512180727021075e+00
1.670080979768776563e-01 1.942746195344085436e+00
1.680486468735430672e-01 2.110039498254366208e+00
1.690891957702084503e-01 2.809410003325631067e+00
1.701297446668738333e-01 3.486201066865262987e+00
1.711702935635392164e-01 4.319065504137896028e+00
1.722108424602045995e-01 4.999358446764397002e+00
1.732513913568699826e-01 6.001970261516838434e+00
1.742919402535353657e-01 7.018376350060947289e+00
1.753324891502007488e-01 8.112289416166355238e+00
1.763730380468661318e-01 8.672683157639760054e+00
1.774135869435315149e-01 8.461941361541505557e+00
1.784541358401968980e-01 8.235623396068000091e+00
1.794946847368622811e-01 8.217586074140363905e+00
1.805352336335276642e-01 8.326399733769768829e+00
1.815757825301930473e-01 7.590342414616408462e+00
1.826163314268584303e-01 6.618873765041620061e+00
1.836568803235238134e-01 5.804449688286204889e+00
1.846974292201891965e-01 5.081058097304612886e+00
1.857379781168545796e-01 4.350576222024514550e+00
1.867785270135199627e-01 4.117425526884240128e+00
1.878190759101853458e-01 4.041046444226246592e+00
1.888596248068507288e-01 3.912830519066439194e+00
1.899001737035161119e-01 4.160086509153877898e+00
1.909407226001814950e-01 3.834163489587041340e+00
1.919812714968468781e-01 4.241204309337028633e+00
1.930218203935122612e-01 4.784392483477752478e+00
1.940623692901776443e-01 4.981868937031144640e+00
1.951029181868430273e-01 5.149342860347239537e+00
1.961434670835084104e-01 5.422945838280256226e+00
1.971840159801737935e-01 5.513986544788529898e+00
1.982245648768391766e-01 5.618892891077180707e+00
1.992651137735045597e-01 5.176610974959537259e+00
2.003056626701699428e-01 4.802763823713782187e+00
2.013462115668353813e-01 4.673701400875657441e+00
2.023867604635007644e-01 4.194045604983074327e+00
2.034273093601661475e-01 4.053454037845341418e+00
2.044678582568315306e-01 4.043801253799024664e+00
2.055084071534969137e-01 3.637677380761900281e+00
2.065489560501622968e-01 3.664932243871533046e+00
2.075895049468276798e-01 3.587802882722790798e+00
2.086300538434930629e-01 3.828816642607336007e+00
2.096706027401584460e-01 3.535235005077780102e+00
2.107111516368238291e-01 3.194402388983277774e+00
2.117517005334892122e-01 2.848941530119788013e+00
2.127922494301545953e-01 2.382078247481437927e+00
2.138327983268199783e-01 2.147141357680425244e+00
2.148733472234853614e-01 2.115305313800512010e+00
2.159138961201507445e-01 2.115870143755820720e+00
2.169544450168161276e-01 1.581260160824555783e+00
2.179949939134815107e-01 1.497278987752203250e+00
2.190355428101468938e-01 1.444957701326806898e+00
2.200760917068122768e-01 1.173703060262461406e+00
2.211166406034776599e-01 1.195126369478174411e+00
2.221571895001430430e-01 1.359611007374130764e+00
2.231977383968084261e-01 1.007366000950355556e+00
2.242382872934738092e-01 1.115267859166202413e+00
2.252788361901391923e-01 1.185552186152165177e+00
2.263193850868045753e-01 1.073666933174777682e+00
2.273599339834699584e-01 1.031782886590619341e+00
2.284004828801353415e-01 1.078593293804324560e+00
2.294410317768007246e-01 1.131700470052031449e+00
2.304815806734661077e-01 1.393414275140116843e+00
2.315221295701314908e-01 1.114986910986939250e+00
2.325626784667968738e-01 1.435667375380351274e+00
2.336032273634622569e-01 1.461690863376347238e+00
2.346437762601276400e-01 1.331326276917170759e+00
2.356843251567930231e-01 1.388528445929726018e+00
2.367248740534584062e-01 1.583186349193205444e+00
2.377654229501237892e-01 1.776970253864792681e+00
2.388059718467891723e-01 1.873179664614539774e+00
2.398465207434545554e-01 1.818108388568827394e+00
2.408870696401199385e-01 1.729641785819421074e+00
2.419276185367853216e-01 1.594936890767396420e+00
2.429681674334507047e-01 1.464840777282240936e+00
2.440087163301160877e-01 1.292602027365159501e+00
2.450492652267814708e-01 1.356111238886946069e+00
2.460898141234468539e-01 1.592871234942027314e+00
2.471303630201122370e-01 1.690732698548341517e+00
2.481709119167776201e-01 1.751933895462702395e+00
2.492114608134430032e-01 1.589145515157220245e+00
2.502520097101083585e-01 1.691211584428781833e+00
2.512925586067737416e-01 1.508176086806916061e+00
2.523331075034391247e-01 1.400263539107246658e+00
2.533736564001045077e-01 1.735252456535008037e+00
2.544142052967698908e-01 1.688428114176954153e+00
2.554547541934352739e-01 1.615730591586228115e+00
2.564953030901006570e-01 1.793830906282096294e+00
2.575358519867660401e-01 1.841914326190536855e+00
2.585764008834314231e-01 1.870844137353682157e+00
2.596169497800968062e-01 1.661314281134696813e+00
2.606574986767621893e-01 1.638794880737194148e+00
2.616980475734275724e-01 1.650532783634361067e+00
2.627385964700929555e-01 1.454046480375797756e+00
2.637791453667583386e-01 1.706932319755971150e+00
2.648196942634237216e-01 1.479337135201969744e+00
2.658602431600891047e-01 1.213468169610344205e+00
2.669007920567544878e-01 1.546158697150193717e+00
2.679413409534198709e-01 1.810148403675825080e+00
2.689818898500852540e-01 1.828530035411969124e+00
2.700224387467506371e-01 1.426661965588142067e+00
2.710629876434160201e-01 1.268194318402056098e+00
2.721035365400814032e-01 8.973998169789432211e-01
2.731440854367467863e-01 9.680127050426783342e-01
2.741846343334121694e-01 1.076827643058496875e+00
2.752251832300775525e-01 1.086585456357479273e+00
2.762657321267429356e-01 9.437285341823695717e-01
2.773062810234083186e-01 1.132157102661238923e+00
2.783468299200737017e-01 8.975512380372627774e-01
2.793873788167390848e-01 9.723006007601391332e-01
2.804279277134044679e-01 9.202486868517674168e-01
2.814684766100698510e-01 6.191491431564770664e-01
2.825090255067352341e-01 7.430959962630225846e-01
2.835495744034006171e-01 8.639555750203911089e-01
2.845901233000660002e-01 7.593369589399543429e-01
2.856306721967313833e-01 7.576825118337247034e-01
2.866712210933967664e-01 6.565262018300970226e-01
2.877117699900621495e-01 4.719143187247532012e-01
2.887523188867275326e-01 4.450978928258493283e-01
2.897928677833929156e-01 5.265416011426040654e-01
2.908334166800582987e-01 6.607575985104467975e-01
2.918739655767236818e-01 7.463199165088170162e-01
2.929145144733890649e-01 5.839793226518388281e-01
2.939550633700544480e-01 5.395340388485720950e-01
2.949956122667198311e-01 9.906625075293717941e-01
2.960361611633852141e-01 8.043750041872819168e-01
2.970767100600505972e-01 6.844559282312978610e-01
2.981172589567159803e-01 6.778544039079399397e-01
2.991578078533813634e-01 6.779391049865886032e-01
3.001983567500468020e-01 6.139225263583298897e-01
3.012389056467121851e-01 4.604179251698568009e-01
3.022794545433775681e-01 6.009073865977079265e-01
3.033200034400429512e-01 9.077837990061325968e-01
3.043605523367083343e-01 6.784664743090509376e-01
3.054011012333737174e-01 5.550585208818006322e-01
3.064416501300391005e-01 5.192728184976971306e-01
3.074821990267044836e-01 7.458218371332065999e-01
3.085227479233698666e-01 7.444086656480450870e-01
3.095632968200352497e-01 5.878295252465228771e-01
3.106038457167006328e-01 5.368132884199638966e-01
3.116443946133660159e-01 7.204874353524388653e-01
3.126849435100313990e-01 8.653830053478195339e-01
3.137254924066967821e-01 6.398266480467285078e-01
3.147660413033621651e-01 8.282743066514548502e-01
3.158065902000275482e-01 7.353190366932338407e-01
3.168471390966929313e-01 6.228879987210476088e-01
3.178876879933583144e-01 7.091516816679011015e-01
3.189282368900236975e-01 7.472268324062447675e-01
3.199687857866890806e-01 6.732215130366050460e-01
3.210093346833544636e-01 6.154768489243416241e-01
3.220498835800198467e-01 6.961081167562532812e-01
3.230904324766852298e-01 8.022573254255043196e-01
3.241309813733506129e-01 9.321313382391025470e-01
3.251715302700159960e-01 5.724782331884199493e-01
3.262120791666813790e-01 5.160684000609343514e-01
3.272526280633467621e-01 8.040292250999883095e-01
3.282931769600121452e-01 1.003633058038833070e+00
3.293337258566775283e-01 1.009897869004038995e+00
3.303742747533429114e-01 1.083585975737157980e+00
3.314148236500082945e-01 1.051693575682222104e+00
3.324553725466736775e-01 6.121342443204120798e-01
3.334959214433390606e-01 7.285663907428556740e-01
3.345364703400044437e-01 6.613369952691741105e-01
3.355770192366698268e-01 6.645464193977161926e-01
3.366175681333352099e-01 6.646586990066900569e-01
3.376581170300005930e-01 6.954251493151595298e-01
3.386986659266659760e-01 6.883846148378438556e-01
3.397392148233313591e-01 6.911653878549230967e-01
3.407797637199967422e-01 7.198817919654665332e-01
3.418203126166621253e-01 8.245914789673669532e-01
3.428608615133275084e-01 7.865166597959500905e-01
3.439014104099928915e-01 8.242767305319773641e-01
3.449419593066582745e-01 7.346114794271692006e-01
3.459825082033236576e-01 5.025050351188902198e-01
3.470230570999890407e-01 6.308726003451958775e-01
3.480636059966544238e-01 6.154293034841771259e-01
3.491041548933198069e-01 6.165797783208688543e-01
3.501447037899851900e-01 8.540419083436496805e-01
3.511852526866505730e-01 7.017996194144089372e-01
3.522258015833159561e-01 4.696669394079222570e-01
3.532663504799813392e-01 4.540092278376519630e-01
3.543068993766467223e-01 7.087454260301910836e-01
3.553474482733121054e-01 5.689067120001034539e-01
3.563879971699774885e-01 4.169503515929804394e-01
3.574285460666428715e-01 4.614739805747483103e-01
3.584690949633082546e-01 5.149761096248255399e-01
3.595096438599736377e-01 4.301381602751526145e-01
3.605501927566390208e-01 6.032285168628845895e-01
3.615907416533044039e-01 6.885377018544858174e-01
3.626312905499697870e-01 5.136946086363955999e-01
3.636718394466351700e-01 4.416461344581676940e-01
3.647123883433005531e-01 3.201394773624066659e-01
3.657529372399659362e-01 4.559469100396960073e-01
3.667934861366313193e-01 3.620432433733355992e-01
3.678340350332967024e-01 5.375810563223097915e-01
3.688745839299620854e-01 4.243365144544952727e-01
3.699151328266274685e-01 4.873259831375769124e-01
3.709556817232928516e-01 3.210810936777903635e-01
3.719962306199582347e-01 1.516254527712739275e-01
3.730367795166236178e-01 3.600294313254970291e-01
3.740773284132890009e-01 5.604333885846308760e-01
3.751178773099543839e-01 6.195337202602715365e-01
3.761584262066197670e-01 5.189898133171801931e-01
3.771989751032851501e-01 6.285033521040759297e-01
3.782395239999505332e-01 8.647462304684054857e-01
3.792800728966159163e-01 5.997454119456442356e-01
3.803206217932812994e-01 5.117526980522733027e-01
3.813611706899466824e-01 4.351268393343055152e-01
3.824017195866120655e-01 7.240841855283726147e-01
3.834422684832774486e-01 3.916923548417834411e-01
3.844828173799428317e-01 2.760477072323794800e-01
3.855233662766082148e-01 5.681271691813698510e-01
3.865639151732735979e-01 3.469150674424241743e-01
3.876044640699389809e-01 4.808193100422997190e-01
3.886450129666043640e-01 6.133029101754239321e-01
3.896855618632697471e-01 6.098249259610888373e-01
3.907261107599351302e-01 7.153084475193374203e-01
3.917666596566005133e-01 4.832236893962473800e-01
3.928072085532658964e-01 5.951640997169675984e-01
3.938477574499312794e-01 5.694095542358041939e-01
3.948883063465966625e-01 8.040344538541468467e-01
3.959288552432620456e-01 6.684087707035502035e-01
3.969694041399274287e-01 5.665680131136703324e-01
3.980099530365928118e-01 5.610757720929910874e-01
3.990505019332581949e-01 4.451166565161877031e-01
4.000910508299235779e-01 3.551710797908924633e-01
4.011315997265889610e-01 5.023947294421269305e-01
4.021721486232543441e-01 5.599328479046548068e-01
4.032126975199197272e-01 5.678926498672538514e-01
4.042532464165851103e-01 6.633332644877896200e-01
4.052937953132504934e-01 6.492580051046594747e-01
4.063343442099158764e-01 4.763066520824779104e-01
4.073748931065812595e-01 4.363863389160087536e-01
4.084154420032466426e-01 3.993799016443517758e-01
4.094559908999120257e-01 4.236936544518137282e-01
4.104965397965774088e-01 3.859061436151876023e-01
4.115370886932427918e-01 4.774710333428906495e-01
4.125776375899081749e-01 6.167597848072752242e-01
4.136181864865735580e-01 5.626436987903105091e-01
4.146587353832389411e-01 3.596023899712932348e-01
4.156992842799043242e-01 2.376509169024991763e-01
4.167398331765697073e-01 2.965885385100115457e-01
4.177803820732350903e-01 3.909088609193389630e-01
4.188209309699004734e-01 4.204604546688663902e-01
4.198614798665658565e-01 2.960217072528337212e-01
4.209020287632312396e-01 1.576183264235346826e-01
4.219425776598966227e-01 2.069321518811051419e-01
4.229831265565620058e-01 2.707406315580946909e-01
4.240236754532273888e-01 2.925697371157021109e-01
4.250642243498927719e-01 3.684840490101279897e-01
4.261047732465581550e-01 5.821578081976284125e-01
4.271453221432235381e-01 4.346398098090240580e-01
4.281858710398889212e-01 2.597485749697483470e-01
4.292264199365543043e-01 1.891551984494554972e-01
4.302669688332196873e-01 0.000000000000000000e+00
4.313075177298850704e-01 2.986597725247328583e-01
4.323480666265504535e-01 5.759520243484814728e-01
4.333886155232158366e-01 4.700001158985180894e-01
4.344291644198812197e-01 5.484408982091508733e-01
