# q (1/Angstrom), Intensity (arb)
2.029070354705860696e-02 1.976883038868055564e+02
2.133125244372399004e-02 1.654680006848873859e+02
2.237180134038937659e-02 1.416984785979939261e+02
2.341235023705475968e-02 1.242443586054519074e+02
2.445289913372014276e-02 1.105343394726849340e+02
2.549344803038552584e-02 9.887114253436811850e+01
2.653399692705091240e-02 8.809477301165685503e+01
2.757454582371629548e-02 7.781735167409286191e+01
2.861509472038167856e-02 7.189525551197880304e+01
2.965564361704706164e-02 6.475684039572780648e+01
3.069619251371244473e-02 5.714951551743214964e+01
3.173674141037782781e-02 5.314929757713773029e+01
3.277729030704321089e-02 5.127905141888608398e+01
3.381783920370859398e-02 4.851253284591521719e+01
3.485838810037397706e-02 4.546540680999299155e+01
3.589893699703936014e-02 4.313135039112370350e+01
3.693948589370474322e-02 4.185619090525890584e+01
3.798003479037012631e-02 3.979284725088175634e+01
3.902058368703550939e-02 3.719984631710709522e+01
4.006113258370089247e-02 3.707682513678366831e+01
4.110168148036627556e-02 3.695804251398453033e+01
4.214223037703165864e-02 3.658529448910034887e+01
4.318277927369704866e-02 3.592062567053948641e+01
4.422332817036243174e-02 3.548044974002797858e+01
4.526387706702781483e-02 3.548941184546804095e+01
4.630442596369319791e-02 3.552884977278213086e+01
4.734497486035858099e-02 3.670009454232469182e+01
4.838552375702396408e-02 3.775552562253849231e+01
4.942607265368934716e-02 3.806643732829697768e+01
5.046662155035473024e-02 3.904601171972998941e+01
5.150717044702011332e-02 4.120540310750106272e+01
5.254771934368549641e-02 4.312552776835399726e+01
5.358826824035087949e-02 4.536534749167280012e+01
5.462881713701626257e-02 4.909695879572866062e+01
5.566936603368164566e-02 5.359157480352986624e+01
5.670991493034702874e-02 5.858490921342781377e+01
5.775046382701241182e-02 6.592467662123277705e+01
5.879101272367779490e-02 7.495330901294309456e+01
5.983156162034317799e-02 8.777161390011366393e+01
6.087211051700856107e-02 1.052715441378969530e+02
6.191265941367394415e-02 1.295097813946735812e+02
6.295320831033933417e-02 1.708360269477880706e+02
6.399375720700471726e-02 2.487471795479178240e+02
6.503430610367010034e-02 3.725461764741604043e+02
6.607485500033548342e-02 5.461008314105125692e+02
6.711540389700086651e-02 7.660062366744624569e+02
6.815595279366624959e-02 1.035459966863316140e+03
6.919650169033163267e-02 1.268120887547018810e+03
7.023705058699701576e-02 1.310757326555553163e+03
7.127759948366239884e-02 1.094800009602045975e+03
7.231814838032778192e-02 7.834098857613375912e+02
7.335869727699316500e-02 5.498072799688939085e+02
7.439924617365854809e-02 4.074293295514455053e+02
7.543979507032393117e-02 3.200929679244199519e+02
7.648034396698931425e-02 2.618819669472083547e+02
7.752089286365469734e-02 2.235348728630738151e+02
7.856144176032008042e-02 1.995258561581998151e+02
7.960199065698546350e-02 1.778557437109219563e+02
8.064253955365084658e-02 1.520921219580571062e+02
8.168308845031622967e-02 1.177443620171678873e+02
8.272363734698161275e-02 8.233607873251659726e+01
8.376418624364699583e-02 5.485727321601179796e+01
8.480473514031239279e-02 3.656225616246989318e+01
8.584528403697777588e-02 2.560259959768846727e+01
8.688583293364315896e-02 1.892045522435742555e+01
8.792638183030854204e-02 1.432163214776500126e+01
8.896693072697392513e-02 1.121587053395109024e+01
9.000747962363930821e-02 8.991960300500871028e+00
9.104802852030469129e-02 7.875645439639306744e+00
9.208857741697007437e-02 7.304599503129679761e+00
9.312912631363545746e-02 6.229669396515873814e+00
9.416967521030084054e-02 5.750801645245452676e+00
9.521022410696622362e-02 5.530407860815039101e+00
9.625077300363160671e-02 5.412769004764015790e+00
9.729132190029698979e-02 5.349195997095790744e+00
9.833187079696237287e-02 5.720630554137350998e+00
9.937241969362775595e-02 5.701944934108425400e+00
1.004129685902931390e-01 5.830332773241821087e+00
1.014535174869585221e-01 6.472903574646743152e+00
1.024940663836239052e-01 6.914135150106197614e+00
1.035346152802892883e-01 7.420922508941423246e+00
1.045751641769546714e-01 7.495670326207296341e+00
1.056157130736200545e-01 8.463785823564904831e+00
1.066562619702854375e-01 1.029729822690120500e+01
1.076968108669508206e-01 1.225625779284074923e+01
1.087373597636162037e-01 1.546054181264410943e+01
1.097779086602815868e-01 2.101577536770214749e+01
1.108184575569469699e-01 2.909165664392511275e+01
1.118590064536123529e-01 3.759441681932825929e+01
1.128995553502777360e-01 4.566677543724247812e+01
1.139401042469431191e-01 5.215322430145180732e+01
1.149806531436085022e-01 5.346836867800238480e+01
1.160212020402738853e-01 4.730130676138720958e+01
1.170617509369392684e-01 3.792883079259322443e+01
1.181022998336046514e-01 3.087416404261585967e+01
1.191428487302700345e-01 2.630710890869013951e+01
1.201833976269354176e-01 2.284240294669434945e+01
1.212239465236008007e-01 2.075151079187850911e+01
1.222644954202661838e-01 1.968806281499762179e+01
1.233050443169315669e-01 1.950333639996005530e+01
1.243455932135969499e-01 1.974249105712062402e+01
1.253861421102623330e-01 2.080922156817936042e+01
1.264266910069277161e-01 2.232890977251025078e+01
1.274672399035930992e-01 2.483804158490187319e+01
1.285077888002584823e-01 3.016381148412328628e+01
1.295483376969238654e-01 3.729370267597867894e+01
1.305888865935892484e-01 4.528692846892796808e+01
1.316294354902546315e-01 5.340921804011851748e+01
1.326699843869200146e-01 6.046054257194840176e+01
1.337105332835853977e-01 6.581488445121880204e+01
1.347510821802507808e-01 6.552601954629847114e+01
1.357916310769161639e-01 5.779186685144219382e+01
1.368321799735815469e-01 4.737849723683739711e+01
1.378727288702469300e-01 3.783890204984302130e+01
1.389132777669123131e-01 3.089942055609800775e+01
1.399538266635776962e-01 2.576080863858859971e+01
1.409943755602430793e-01 2.139820793011710975e+01
1.420349244569084624e-01 1.733525221385895065e+01
1.430754733535738454e-01 1.341582914583440811e+01
1.441160222502392285e-01 9.795364842187488819e+00
1.451565711469046116e-01 7.345067567052296909e+00
1.461971200435699947e-01 6.129942646112823468e+00
1.472376689402353778e-01 5.350276612237649942e+00
1.482782178369007609e-01 4.767046678711693630e+00
1.493187667335661439e-01 4.589288658033211732e+00
1.503593156302315270e-01 4.126101273364923827e+00
1.513998645268969101e-01 3.203982949640675315e+00
1.524404134235622932e-01 2.972732798744061711e+00
1.534809623202276763e-01 2.528337138839887643e+00
1.545215112168930593e-01 1.800140211460011130e+00
1.555620601135584424e-01 1.802165123399028346e+00
1.566026090102238255e-01 2.135622953306715033e+00
1.576431579068892086e-01 2.114138119629089374e+00
1.586837068035545917e-01 2.194332482424087516e+00
1.597242557002199748e-01 2.410140255259463515e+00
1.607648045968853578e-01 2.203042781050051246e+00
1.618053534935507409e-01 2.218769175261996907e+00
1.628459023902161240e-01 1.977146550396646774e+00
1.638864512868815071e-01 1.680422400292059137e+00
1.649270001835468902e-01 1.799229008095991844e+00
1.659675490802122733e-01 2.332751095580974265e+00
1.670080979768776563e-01 2.751178512766955464e+00
1.680486468735430672e-01 2.595539890348312895e+00
1.690891957702084503e-01 3.114272759948768510e+00
1.701297446668738333e-01 3.400313771307807542e+00
1.711702935635392164e-01 3.594599962362089229e+00
1.722108424602045995e-01 4.026571733301565814e+00
1.732513913568699826e-01 4.774641039111507723e+00
1.742919402535353657e-01 5.802284666322066187e+00
1.753324891502007488e-01 6.815179252229079054e+00
1.763730380468661318e-01 7.372526532237770880e+00
1.774135869435315149e-01 7.713633843829690306e+00
1.784541358401968980e-01 7.776366634322251059e+00
1.794946847368622811e-01 7.886247750755693176e+00
1.805352336335276642e-01 7.421309465564085883e+00
1.815757825301930473e-01 7.108359285090060098e+00
1.826163314268584303e-01 6.272960518861957269e+00
1.836568803235238134e-01 5.598198185290591766e+00
1.846974292201891965e-01 4.931216172231991379e+00
1.857379781168545796e-01 4.259323714532072813e+00
1.867785270135199627e-01 4.019071063846325842e+00
1.878190759101853458e-01 3.938646757749054927e+00
1.888596248068507288e-01 3.734109998215110693e+00
1.899001737035161119e-01 4.079975226786636711e+00
1.909407226001814950e-01 3.720294969694180054e+00
1.919812714968468781e-01 3.858496072861825610e+00
1.930218203935122612e-01 4.152873226527169948e+00
1.940623692901776443e-01 4.341614471604785308e+00
1.951029181868430273e-01 4.674921005994512768e+00
1.961434670835084104e-01 5.060976752700248937e+00
1.971840159801737935e-01 5.444505996551136207e+00
1.982245648768391766e-01 5.117641084803707940e+00
1.992651137735045597e-01 4.917267958654612414e+00
2.003056626701699428e-01 4.683831654047033055e+00
2.013462115668353813e-01 4.498818755282087523e+00
2.023867604635007644e-01 4.411391879651706205e+00
2.034273093601661475e-01 4.248261689325552481e+00
2.044678582568315306e-01 3.702578830262716281e+00
2.055084071534969137e-01 3.496260191563706599e+00
2.065489560501622968e-01 3.525496458034687919e+00
2.075895049468276798e-01 3.671507310850554262e+00
2.086300538434930629e-01 3.512787454544337606e+00
2.096706027401584460e-01 3.345887291816559639e+00
2.107111516368238291e-01 3.395175028152216612e+00
2.117517005334892122e-01 3.416932493519638570e+00
2.127922494301545953e-01 2.746227181220540103e+00
2.138327983268199783e-01 2.314960029633279959e+00
2.148733472234853614e-01 2.331262738558653069e+00
2.159138961201507445e-01 1.915739433134117320e+00
2.169544450168161276e-01 1.562141973512517268e+00
2.179949939134815107e-01 1.171536418770223520e+00
2.190355428101468938e-01 1.209268821463421517e+00
2.200760917068122768e-01 1.368694649125412610e+00
2.211166406034776599e-01 1.636185402301645553e+00
2.221571895001430430e-01 1.379946476583867820e+00
2.231977383968084261e-01 1.052452867658150382e+00
2.242382872934738092e-01 1.042724878785406872e+00
2.252788361901391923e-01 8.420019684907806834e-01
2.263193850868045753e-01 1.145639133809027044e+00
2.273599339834699584e-01 1.032787430125111428e+00
2.284004828801353415e-01 9.380185055243650538e-01
2.294410317768007246e-01 7.514700720162359460e-01
2.304815806734661077e-01 8.546440060199813615e-01
2.315221295701314908e-01 8.677873840423657725e-01
2.325626784667968738e-01 9.721388889982485182e-01
2.336032273634622569e-01 1.407893877716340114e+00
2.346437762601276400e-01 1.224222670392123291e+00
2.356843251567930231e-01 9.838319797474674999e-01
2.367248740534584062e-01 7.446760558865896940e-01
2.377654229501237892e-01 9.015545131294260273e-01
2.388059718467891723e-01 1.423192856273058027e+00
2.398465207434545554e-01 1.560432039956896944e+00
2.408870696401199385e-01 1.567746353122409175e+00
2.419276185367853216e-01 1.528322840008218719e+00
2.429681674334507047e-01 1.578833650962224056e+00
2.440087163301160877e-01 1.366407869671622421e+00
2.450492652267814708e-01 1.342375963535126004e+00
2.460898141234468539e-01 1.392663124546007936e+00
2.471303630201122370e-01 1.336801046014251426e+00
2.481709119167776201e-01 1.369059618813000867e+00
2.492114608134430032e-01 1.118604222007405724e+00
2.502520097101083585e-01 1.539380205595364259e+00
2.512925586067737416e-01 1.538891042810593746e+00
2.523331075034391247e-01 1.506869515411079163e+00
2.533736564001045077e-01 1.416876110645951314e+00
2.544142052967698908e-01 1.153144623018267367e+00
2.554547541934352739e-01 1.294848780011605527e+00
2.564953030901006570e-01 1.496397016697201821e+00
2.575358519867660401e-01 1.343678076075583760e+00
2.585764008834314231e-01 1.292970869130297018e+00
2.596169497800968062e-01 1.622251680311194377e+00
2.606574986767621893e-01 1.350848506206578037e+00
2.616980475734275724e-01 1.310145701123605733e+00
2.627385964700929555e-01 1.564648396575684330e+00
2.637791453667583386e-01 1.553249689932307831e+00
2.648196942634237216e-01 1.417283135774784597e+00
2.658602431600891047e-01 1.356553842577994828e+00
2.669007920567544878e-01 1.357119052430501682e+00
2.679413409534198709e-01 1.504620898565171672e+00
2.689818898500852540e-01 1.783771095884208790e+00
2.700224387467506371e-01 1.491457346856559951e+00
2.710629876434160201e-01 1.125085540471939538e+00
2.721035365400814032e-01 9.221450710633050107e-01
2.731440854367467863e-01 1.017617509682224863e+00
2.741846343334121694e-01 1.145342408048374949e+00
2.752251832300775525e-01 1.189815036014881144e+00
2.762657321267429356e-01 9.007452969739908610e-01
2.773062810234083186e-01 8.098314243495465803e-01
2.783468299200737017e-01 8.128380411071027822e-01
2.793873788167390848e-01 9.008180605292075427e-01
2.804279277134044679e-01 7.880921980643975644e-01
2.814684766100698510e-01 7.566493971712198174e-01
2.825090255067352341e-01 5.925896980877780607e-01
2.835495744034006171e-01 5.835170156308002731e-01
2.845901233000660002e-01 4.483517727603114622e-01
2.856306721967313833e-01 2.048508339517809418e-01
2.866712210933967664e-01 3.893279811970593585e-01
2.877117699900621495e-01 6.669091690029773645e-01
2.887523188867275326e-01 8.469937585068514352e-01
2.897928677833929156e-01 7.473277557254540682e-01
2.908334166800582987e-01 6.753123433764365302e-01
2.918739655767236818e-01 7.726545664069490726e-01
2.929145144733890649e-01 7.923566580610064136e-01
2.939550633700544480e-01 6.689194911016045353e-01
2.949956122667198311e-01 5.620461416124058474e-01
2.960361611633852141e-01 4.868601735517898987e-01
2.970767100600505972e-01 3.159542208789076767e-01
2.981172589567159803e-01 4.901420683544301937e-01
2.991578078533813634e-01 4.121744817189778587e-01
3.001983567500468020e-01 5.453031885130492640e-01
3.012389056467121851e-01 3.924698473300516355e-01
3.022794545433775681e-01 3.897313454978537095e-01
3.033200034400429512e-01 6.037944574013387466e-01
3.043605523367083343e-01 6.529336387448125834e-01
3.054011012333737174e-01 5.009295424045419054e-01
3.064416501300391005e-01 5.433026289498172900e-01
3.074821990267044836e-01 5.828338563925399285e-01
3.085227479233698666e-01 4.272286132754992138e-01
3.095632968200352497e-01 5.110167346412737288e-01
3.106038457167006328e-01 5.029426533125871401e-01
3.116443946133660159e-01 4.364764197365751386e-01
3.126849435100313990e-01 4.505914289035111153e-01
3.137254924066967821e-01 4.908640248808602280e-01
3.147660413033621651e-01 5.196654231756312470e-01
3.158065902000275482e-01 5.522373744054753786e-01
3.168471390966929313e-01 6.168873799917946599e-01
3.178876879933583144e-01 4.836059672413810517e-01
3.189282368900236975e-01 3.653405912595744098e-01
3.199687857866890806e-01 5.570793287015192163e-01
3.210093346833544636e-01 4.446850326273121823e-01
3.220498835800198467e-01 4.440235528370841678e-01
3.230904324766852298e-01 5.507343667235851115e-01
3.241309813733506129e-01 6.012742372935768742e-01
3.251715302700159960e-01 5.078269133846156080e-01
3.262120791666813790e-01 6.137470694393911685e-01
3.272526280633467621e-01 5.987577087402442544e-01
3.282931769600121452e-01 4.307949725533575247e-01
3.293337258566775283e-01 6.807052587696418300e-01
3.303742747533429114e-01 5.276915496010872175e-01
3.314148236500082945e-01 3.204356627241189415e-01
3.324553725466736775e-01 8.205777164181498051e-01
3.334959214433390606e-01 8.073024079664143926e-01
3.345364703400044437e-01 5.880198621191254915e-01
3.355770192366698268e-01 6.411902674026634941e-01
3.366175681333352099e-01 6.573455092405708911e-01
3.376581170300005930e-01 4.291767758221887163e-01
3.386986659266659760e-01 4.406027386739168605e-01
3.397392148233313591e-01 3.775130878763057751e-01
3.407797637199967422e-01 3.794197720364778093e-01
3.418203126166621253e-01 4.951565889086566585e-01
3.428608615133275084e-01 5.483503765779360606e-01
3.439014104099928915e-01 5.530933662742292256e-01
3.449419593066582745e-01 4.570927061946896686e-01
3.459825082033236576e-01 5.017835327078863372e-01
3.470230570999890407e-01 5.538058450333345206e-01
3.480636059966544238e-01 4.567272234637407280e-01
3.491041548933198069e-01 6.587927779539803907e-01
3.501447037899851900e-01 1.002754714968418170e+00
3.511852526866505730e-01 7.042773601677190243e-01
3.522258015833159561e-01 2.853979167859925781e-01
3.532663504799813392e-01 4.952502722869205343e-01
3.543068993766467223e-01 5.257029870517406778e-01
3.553474482733121054e-01 4.085085450216574543e-01
3.563879971699774885e-01 2.971435155519941418e-01
3.574285460666428715e-01 3.143574943774076758e-01
3.584690949633082546e-01 3.468097875176852085e-01
3.595096438599736377e-01 2.803982583107149651e-01
3.605501927566390208e-01 2.341594356783645026e-01
3.615907416533044039e-01 4.585779606239341888e-01
3.626312905499697870e-01 3.464567730693737246e-01
3.636718394466351700e-01 2.484916510280470447e-01
3.647123883433005531e-01 4.085306381482247673e-01
3.657529372399659362e-01 4.150725840400149025e-01
3.667934861366313193e-01 2.825655094608983120e-01
3.678340350332967024e-01 2.491003309633548213e-01
3.688745839299620854e-01 3.143002789940112507e-01
3.699151328266274685e-01 2.853358491018411769e-01
3.709556817232928516e-01 3.854818208148245162e-01
3.719962306199582347e-01 1.774178604613467769e-01
3.730367795166236178e-01 2.577139161591475158e-01
3.740773284132890009e-01 3.712162499546138861e-01
3.751178773099543839e-01 3.052567314946621480e-01
3.761584262066197670e-01 2.907796675024236777e-01
3.771989751032851501e-01 1.466560861495516122e-01
3.782395239999505332e-01 8.500260888858690578e-02
3.792800728966159163e-01 2.741751577922570959e-01
3.803206217932812994e-01 4.150462734933810793e-01
3.813611706899466824e-01 4.799981942387141487e-01
3.824017195866120655e-01 3.287897050143584465e-01
3.834422684832774486e-01 4.910938074379807006e-01
3.844828173799428317e-01 6.938927476926863847e-01
3.855233662766082148e-01 4.207204818622614084e-01
3.865639151732735979e-01 4.555519569355759302e-01
3.876044640699389809e-01 3.218222294177017773e-01
3.886450129666043640e-01 3.877153811046660792e-01
3.896855618632697471e-01 3.136055883076593886e-01
3.907261107599351302e-01 4.011638651462625660e-01
3.917666596566005133e-01 3.495737315200315720e-01
3.928072085532658964e-01 2.841381002849345805e-01
3.938477574499312794e-01 3.941560432006134818e-01
3.948883063465966625e-01 3.520352634716203966e-01
3.959288552432620456e-01 5.398904133773889669e-01
3.969694041399274287e-01 5.203019903080772224e-01
3.980099530365928118e-01 3.638043564744570801e-01
3.990505019332581949e-01 4.791392092251385293e-01
4.000910508299235779e-01 2.434118119132051561e-01
4.011315997265889610e-01 2.681381311105255350e-01
4.021721486232543441e-01 4.610025420787131623e-01
4.032126975199197272e-01 4.443811665801895572e-01
4.042532464165851103e-01 5.080092519193719625e-01
4.052937953132504934e-01 6.112550238168950045e-01
4.063343442099158764e-01 5.292593251439647872e-01
4.073748931065812595e-01 6.833440121658824751e-01
4.084154420032466426e-01 5.315798863077105807e-01
4.094559908999120257e-01 4.325339595086923339e-01
4.104965397965774088e-01 2.880618599476285624e-01
4.115370886932427918e-01 2.304924339280702839e-01
4.125776375899081749e-01 2.901297556203807915e-01
4.136181864865735580e-01 3.320105491950542387e-01
4.146587353832389411e-01 2.315639894017920142e-01
4.156992842799043242e-01 3.085126641077309273e-01
4.167398331765697073e-01 3.468999513860708817e-01
4.177803820732350903e-01 4.112034565844346901e-01
4.188209309699004734e-01 3.264661047526331572e-01
4.198614798665658565e-01 4.131935243391460233e-01
4.209020287632312396e-01 2.678880042128461980e-01
4.219425776598966227e-01 2.507760928976559001e-01
4.229831265565620058e-01 4.068049058332121604e-01
4.240236754532273888e-01 2.702292199833280506e-01
4.250642243498927719e-01 4.632105056247617370e-01
4.261047732465581550e-01 4.000956732138476468e-01
4.271453221432235381e-01 2.796826033802304323e-01
4.281858710398889212e-01 1.384834849851372951e-01
4.292264199365543043e-01 2.060707538801906935e-01
4.302669688332196873e-01 2.964329997849581844e-01
4.313075177298850704e-01 2.500645703614416959e-01
4.323480666265504535e-01 2.131497572726566148e-01
4.333886155232158366e-01 2.510655460426143293e-01
4.344291644198812197e-01 1.750858355261009081e-01
