# q (1/Angstrom), Intensity (arb)
2.029070354705860696e-02 1.992397987461454818e+02
2.133125244372399004e-02 1.692315267228040057e+02
2.237180134038937659e-02 1.474739248436425214e+02
2.341235023705475968e-02 1.299732133810421999e+02
2.445289913372014276e-02 1.159362456419532350e+02
2.549344803038552584e-02 1.000277700824688338e+02
2.653399692705091240e-02 8.914290197259053627e+01
2.757454582371629548e-02 8.040914655525581622e+01
2.861509472038167856e-02 7.366546518123627152e+01
2.965564361704706164e-02 6.618114869055230542e+01
3.069619251371244473e-02 5.985391256331172372e+01
3.173674141037782781e-02 5.603150208512148822e+01
3.277729030704321089e-02 5.214484270979383496e+01
3.381783920370859398e-02 4.926157034500194243e+01
3.485838810037397706e-02 4.670747614413261317e+01
3.589893699703936014e-02 4.394250008647739492e+01
3.693948589370474322e-02 4.106006285070414918e+01
3.798003479037012631e-02 4.108454642152861425e+01
3.902058368703550939e-02 3.925713071559592038e+01
4.006113258370089247e-02 3.764081849273132718e+01
4.110168148036627556e-02 3.743946310932787469e+01
4.214223037703165864e-02 3.737321328322055081e+01
4.318277927369704866e-02 3.690945086048498069e+01
4.422332817036243174e-02 3.557358497597835623e+01
4.526387706702781483e-02 3.543661463743099205e+01
4.630442596369319791e-02 3.694730698195718332e+01
4.734497486035858099e-02 3.743868798070634085e+01
4.838552375702396408e-02 3.776320882075419405e+01
4.942607265368934716e-02 3.776218835910091087e+01
5.046662155035473024e-02 4.032405462088721748e+01
5.150717044702011332e-02 4.211580768055949164e+01
5.254771934368549641e-02 4.411650624633208650e+01
5.358826824035087949e-02 4.684064609661816547e+01
5.462881713701626257e-02 5.028672961451151480e+01
5.566936603368164566e-02 5.515003546119162792e+01
5.670991493034702874e-02 6.135165072155484012e+01
5.775046382701241182e-02 6.896221971086850999e+01
5.879101272367779490e-02 7.961408190749941127e+01
5.983156162034317799e-02 9.387072060978644572e+01
6.087211051700856107e-02 1.118675373882562809e+02
6.191265941367394415e-02 1.415055723314533225e+02
6.295320831033933417e-02 1.914705324353020615e+02
6.399375720700471726e-02 2.791113969187063049e+02
6.503430610367010034e-02 4.190778398856007243e+02
6.607485500033548342e-02 6.078019395480927187e+02
6.711540389700086651e-02 8.462568862515602177e+02
6.815595279366624959e-02 1.119881450297427591e+03
6.919650169033163267e-02 1.318434462156320478e+03
7.023705058699701576e-02 1.285958860814941772e+03
7.127759948366239884e-02 1.018984177896949063e+03
7.231814838032778192e-02 7.151830326489689469e+02
7.335869727699316500e-02 5.071625121027925047e+02
7.439924617365854809e-02 3.827539981317216302e+02
7.543979507032393117e-02 3.032339218157906657e+02
7.648034396698931425e-02 2.504165468381810342e+02
7.752089286365469734e-02 2.161217006287674849e+02
7.856144176032008042e-02 1.928764060638406477e+02
7.960199065698546350e-02 1.696146761815694788e+02
8.064253955365084658e-02 1.403738811266255766e+02
8.168308845031622967e-02 1.050493816700099217e+02
8.272363734698161275e-02 7.102279180669711423e+01
8.376418624364699583e-02 4.740261932886976837e+01
8.480473514031239279e-02 3.234293169287334990e+01
8.584528403697777588e-02 2.303280989633820752e+01
8.688583293364315896e-02 1.681173843411138336e+01
8.792638183030854204e-02 1.280726399366015045e+01
8.896693072697392513e-02 1.041930258669247422e+01
9.000747962363930821e-02 8.739549172367347296e+00
9.104802852030469129e-02 7.547044929531480761e+00
9.208857741697007437e-02 6.427201014231826548e+00
9.312912631363545746e-02 5.597404798863088615e+00
9.416967521030084054e-02 5.378230591934560323e+00
9.521022410696622362e-02 5.577567272184396074e+00
9.625077300363160671e-02 5.236751937295558434e+00
9.729132190029698979e-02 5.501031056384356077e+00
9.833187079696237287e-02 5.650836494848725522e+00
9.937241969362775595e-02 5.452096036042902938e+00
1.004129685902931390e-01 6.047551915774398879e+00
1.014535174869585221e-01 6.093993309487082399e+00
1.024940663836239052e-01 6.210826242593718405e+00
1.035346152802892883e-01 7.370842702402171653e+00
1.045751641769546714e-01 8.681826881721647737e+00
1.056157130736200545e-01 9.329849384403168244e+00
1.066562619702854375e-01 1.078805808411090794e+01
1.076968108669508206e-01 1.381918987671371468e+01
1.087373597636162037e-01 1.788758792567377043e+01
1.097779086602815868e-01 2.469032516693476254e+01
1.108184575569469699e-01 3.474940323790666241e+01
1.118590064536123529e-01 4.439125401323293829e+01
1.128995553502777360e-01 5.210271131506494413e+01
1.139401042469431191e-01 5.588584944233116403e+01
1.149806531436085022e-01 5.303518632034043634e+01
1.160212020402738853e-01 4.466654524174332863e+01
1.170617509369392684e-01 3.547354643162888976e+01
1.181022998336046514e-01 2.912236406203776795e+01
1.191428487302700345e-01 2.557827604846386294e+01
1.201833976269354176e-01 2.286712269146602239e+01
1.212239465236008007e-01 2.139351494220755967e+01
1.222644954202661838e-01 2.056144762495605249e+01
1.233050443169315669e-01 1.994963948654426389e+01
1.243455932135969499e-01 2.033158807860319683e+01
1.253861421102623330e-01 2.138008570367131966e+01
1.264266910069277161e-01 2.328203814568075103e+01
1.274672399035930992e-01 2.756833778341785290e+01
1.285077888002584823e-01 3.315184156036350771e+01
1.295483376969238654e-01 4.154899563931679296e+01
1.305888865935892484e-01 5.059302396292844151e+01
1.316294354902546315e-01 5.867407739982269987e+01
1.326699843869200146e-01 6.519732619083984559e+01
1.337105332835853977e-01 6.732566221452236732e+01
1.347510821802507808e-01 6.229432935471134414e+01
1.357916310769161639e-01 5.234061121738673705e+01
1.368321799735815469e-01 4.211565831785246417e+01
1.378727288702469300e-01 3.428292543509820689e+01
1.389132777669123131e-01 2.878177159162724763e+01
1.399538266635776962e-01 2.445358735965661623e+01
1.409943755602430793e-01 1.945884638529848587e+01
1.420349244569084624e-01 1.501567176030049211e+01
1.430754733535738454e-01 1.111439275469427201e+01
1.441160222502392285e-01 8.515743018114022789e+00
1.451565711469046116e-01 6.791897212262860251e+00
1.461971200435699947e-01 5.950421954227550714e+00
1.472376689402353778e-01 5.305588126977255570e+00
1.482782178369007609e-01 4.183614285852442549e+00
1.493187667335661439e-01 3.467420663998559860e+00
1.503593156302315270e-01 3.087974433007630637e+00
1.513998645268969101e-01 2.931705515499970716e+00
1.524404134235622932e-01 3.017344741327853797e+00
1.534809623202276763e-01 2.294640221477052933e+00
1.545215112168930593e-01 2.156030272178718121e+00
1.555620601135584424e-01 2.421472932176996551e+00
1.566026090102238255e-01 2.244676760682651206e+00
1.576431579068892086e-01 1.812704391298488815e+00
1.586837068035545917e-01 1.985732826627796044e+00
1.597242557002199748e-01 2.015965926920479490e+00
1.607648045968853578e-01 1.477284479052201505e+00
1.618053534935507409e-01 1.642259033181723282e+00
1.628459023902161240e-01 1.540659067602589971e+00
1.638864512868815071e-01 1.780923773123596732e+00
1.649270001835468902e-01 1.883950919634557408e+00
1.659675490802122733e-01 1.844767150133563405e+00
1.670080979768776563e-01 2.621747624648925523e+00
1.680486468735430672e-01 2.915143045614563277e+00
1.690891957702084503e-01 3.073567634115079272e+00
1.701297446668738333e-01 3.518070817534578509e+00
1.711702935635392164e-01 4.264733803998908002e+00
1.722108424602045995e-01 3.865207892195691386e+00
1.732513913568699826e-01 5.540666315137094955e+00
1.742919402535353657e-01 6.449361426240209028e+00
1.753324891502007488e-01 7.152499703239428186e+00
1.763730380468661318e-01 7.921732359894960496e+00
1.774135869435315149e-01 8.088711500541272414e+00
1.784541358401968980e-01 8.132775596861975487e+00
1.794946847368622811e-01 7.804679807203029895e+00
1.805352336335276642e-01 7.253325054143878958e+00
1.815757825301930473e-01 6.767382326360838363e+00
1.826163314268584303e-01 6.264138608043900547e+00
1.836568803235238134e-01 5.240175400567920860e+00
1.846974292201891965e-01 4.772279439639795839e+00
1.857379781168545796e-01 4.530926139128553132e+00
1.867785270135199627e-01 3.984746125166019226e+00
1.878190759101853458e-01 3.644808257375679261e+00
1.888596248068507288e-01 3.675447876170565564e+00
1.899001737035161119e-01 3.630028734460957196e+00
1.909407226001814950e-01 3.876762568358991246e+00
1.919812714968468781e-01 4.152067772599679074e+00
1.930218203935122612e-01 4.551122126044816696e+00
1.940623692901776443e-01 4.939400101579941804e+00
1.951029181868430273e-01 4.960976624334911378e+00
1.961434670835084104e-01 5.187288337484304179e+00
1.971840159801737935e-01 5.122982633288444276e+00
1.982245648768391766e-01 5.232166505165139370e+00
1.992651137735045597e-01 5.089586582758713007e+00
2.003056626701699428e-01 4.997720856740990314e+00
2.013462115668353813e-01 4.559336746936239138e+00
2.023867604635007644e-01 4.329127264136083397e+00
2.034273093601661475e-01 4.391663685411366203e+00
2.044678582568315306e-01 3.962748875084045608e+00
2.055084071534969137e-01 3.812291661677527088e+00
2.065489560501622968e-01 3.593759038484712676e+00
2.075895049468276798e-01 3.181388053472126387e+00
2.086300538434930629e-01 2.896961985498187175e+00
2.096706027401584460e-01 2.684735227135782054e+00
2.107111516368238291e-01 3.022580107259038584e+00
2.117517005334892122e-01 2.667839443699953961e+00
2.127922494301545953e-01 2.375874906316951751e+00
2.138327983268199783e-01 2.148757767808127994e+00
2.148733472234853614e-01 2.011992579939899883e+00
2.159138961201507445e-01 1.730409732693544811e+00
2.169544450168161276e-01 1.485297116197870082e+00
2.179949939134815107e-01 1.348399398038907293e+00
2.190355428101468938e-01 1.106316175800721169e+00
2.200760917068122768e-01 1.320524956346716294e+00
2.211166406034776599e-01 1.355327258376959776e+00
2.221571895001430430e-01 1.250543417454899497e+00
2.231977383968084261e-01 1.068503067252500216e+00
2.242382872934738092e-01 9.706535439099681639e-01
2.252788361901391923e-01 7.248225078858965276e-01
2.263193850868045753e-01 1.292308847992252652e+00
2.273599339834699584e-01 8.739075984390964891e-01
2.284004828801353415e-01 8.290639266987156475e-01
2.294410317768007246e-01 1.205424285323445588e+00
2.304815806734661077e-01 1.279389013955999133e+00
2.315221295701314908e-01 1.197395248445232596e+00
2.325626784667968738e-01 1.280911400030824154e+00
2.336032273634622569e-01 1.233479732692593700e+00
2.346437762601276400e-01 1.220136390046896224e+00
2.356843251567930231e-01 1.054610906448523622e+00
2.367248740534584062e-01 1.117141588773073124e+00
2.377654229501237892e-01 1.133374990606547783e+00
2.388059718467891723e-01 1.261648083616904614e+00
2.398465207434545554e-01 1.203519205475103604e+00
2.408870696401199385e-01 1.684180540700278783e+00
2.419276185367853216e-01 1.741963484739322610e+00
2.429681674334507047e-01 1.768115496300325162e+00
2.440087163301160877e-01 1.596830212423387962e+00
2.450492652267814708e-01 1.424824245482003704e+00
2.460898141234468539e-01 1.397600112961299601e+00
2.471303630201122370e-01 9.996360465901972248e-01
2.481709119167776201e-01 1.030021994169445065e+00
2.492114608134430032e-01 1.033238387594352048e+00
2.502520097101083585e-01 1.219749532660294733e+00
2.512925586067737416e-01 1.473845531562179900e+00
2.523331075034391247e-01 1.487843937410463724e+00
2.533736564001045077e-01 1.477362283146383959e+00
2.544142052967698908e-01 1.391011737699848538e+00
2.554547541934352739e-01 1.366033011154016208e+00
2.564953030901006570e-01 1.624634412139890571e+00
2.575358519867660401e-01 1.680300477462960629e+00
2.585764008834314231e-01 1.646867055157937187e+00
2.596169497800968062e-01 1.550826361943475007e+00
2.606574986767621893e-01 1.375079401229438503e+00
2.616980475734275724e-01 1.110873928136825839e+00
2.627385964700929555e-01 1.387277122519883221e+00
2.637791453667583386e-01 1.410466659275513734e+00
2.648196942634237216e-01 1.638563836308971844e+00
2.658602431600891047e-01 1.483826404346952899e+00
2.669007920567544878e-01 1.605621854465052678e+00
2.679413409534198709e-01 1.453296331084544590e+00
2.689818898500852540e-01 1.305068893423310783e+00
2.700224387467506371e-01 1.289534508572700133e+00
2.710629876434160201e-01 1.093911208854091655e+00
2.721035365400814032e-01 8.753854968244496604e-01
2.731440854367467863e-01 4.685890565481081182e-01
2.741846343334121694e-01 5.790819811587972765e-01
2.752251832300775525e-01 9.409638810911182816e-01
2.762657321267429356e-01 1.149135623552510310e+00
2.773062810234083186e-01 8.545568210129204090e-01
2.783468299200737017e-01 6.581054779589230463e-01
2.793873788167390848e-01 6.352844539486497411e-01
2.804279277134044679e-01 9.375510530865760472e-01
2.814684766100698510e-01 8.757397910146593745e-01
2.825090255067352341e-01 6.937351920167031949e-01
2.835495744034006171e-01 6.151881199284332524e-01
2.845901233000660002e-01 5.114648227361335842e-01
2.856306721967313833e-01 6.722571312718592651e-01
2.866712210933967664e-01 7.643086202219038228e-01
2.877117699900621495e-01 5.700375895027676165e-01
2.887523188867275326e-01 7.654886599699857186e-01
2.897928677833929156e-01 6.784569850160622195e-01
2.908334166800582987e-01 6.167551720971360396e-01
2.918739655767236818e-01 5.565275615583296087e-01
2.929145144733890649e-01 5.036085480710674744e-01
2.939550633700544480e-01 4.041023203135516439e-01
2.949956122667198311e-01 3.201317234116700661e-01
2.960361611633852141e-01 4.713299251617151242e-01
2.970767100600505972e-01 6.446576373907859647e-01
2.981172589567159803e-01 4.810162949910221641e-01
2.991578078533813634e-01 2.823334455014610000e-01
3.001983567500468020e-01 5.426706924936119947e-01
3.012389056467121851e-01 4.965902816365321826e-01
3.022794545433775681e-01 5.749186927577056849e-01
3.033200034400429512e-01 7.075658715441974778e-01
3.043605523367083343e-01 6.862619983702984428e-01
3.054011012333737174e-01 8.091944203235819089e-01
3.064416501300391005e-01 4.832490782932303830e-01
3.074821990267044836e-01 2.184831949137731044e-01
3.085227479233698666e-01 3.419717782115228033e-01
3.095632968200352497e-01 6.604381406852901648e-01
3.106038457167006328e-01 5.234439542377629095e-01
3.116443946133660159e-01 5.745900760546120978e-01
3.126849435100313990e-01 7.074302156945897480e-01
3.137254924066967821e-01 8.126548134320294992e-01
3.147660413033621651e-01 7.918041455456155120e-01
3.158065902000275482e-01 6.773238012411084696e-01
3.168471390966929313e-01 5.892729118569981495e-01
3.178876879933583144e-01 7.146322356719885249e-01
3.189282368900236975e-01 6.095620390164206981e-01
3.199687857866890806e-01 3.814295926533652903e-01
3.210093346833544636e-01 4.319511184056139541e-01
3.220498835800198467e-01 4.580753684527181235e-01
3.230904324766852298e-01 4.654496361400184412e-01
3.241309813733506129e-01 7.049564871667648447e-01
3.251715302700159960e-01 7.918036547662907765e-01
3.262120791666813790e-01 5.099960714070768120e-01
3.272526280633467621e-01 5.338762789743753956e-01
3.282931769600121452e-01 2.441860739229184674e-01
3.293337258566775283e-01 1.658574628692086605e-01
3.303742747533429114e-01 4.809236115591453142e-01
3.314148236500082945e-01 4.737237503438933572e-01
3.324553725466736775e-01 7.073190622498621849e-01
3.334959214433390606e-01 6.611725031086237436e-01
3.345364703400044437e-01 7.278390266544576548e-01
3.355770192366698268e-01 5.630132848753568453e-01
3.366175681333352099e-01 3.986859698895592885e-01
3.376581170300005930e-01 4.564813139460461855e-01
3.386986659266659760e-01 4.155506132844948297e-01
3.397392148233313591e-01 6.134628866727211971e-01
3.407797637199967422e-01 6.928628370213587573e-01
3.418203126166621253e-01 6.410774457589489828e-01
3.428608615133275084e-01 5.569356450578766271e-01
3.439014104099928915e-01 5.264437453250430110e-01
3.449419593066582745e-01 4.431357034991911803e-01
3.459825082033236576e-01 3.787866431579587356e-01
3.470230570999890407e-01 3.631787555529832900e-01
3.480636059966544238e-01 1.334412865494805089e-01
3.491041548933198069e-01 2.179303348796217676e-01
3.501447037899851900e-01 3.903817013111030576e-01
3.511852526866505730e-01 2.944205803948207745e-01
3.522258015833159561e-01 3.133483882655099251e-01
3.532663504799813392e-01 3.061942980115972546e-01
3.543068993766467223e-01 4.015831276106318626e-01
3.553474482733121054e-01 2.963692454131212628e-01
3.563879971699774885e-01 9.663547890749413227e-02
3.574285460666428715e-01 2.630440853461202266e-01
3.584690949633082546e-01 3.158706254188530238e-01
3.595096438599736377e-01 3.274228580314293424e-01
3.605501927566390208e-01 4.729877177128436472e-01
3.615907416533044039e-01 5.205929829280897536e-01
3.626312905499697870e-01 2.747856335195812960e-01
3.636718394466351700e-01 3.050533975659952546e-01
3.647123883433005531e-01 3.905441779049425577e-01
3.657529372399659362e-01 3.772666162204387774e-01
3.667934861366313193e-01 2.865653655125015575e-01
3.678340350332967024e-01 2.603653658846347696e-01
3.688745839299620854e-01 2.079801426488963045e-01
3.699151328266274685e-01 1.767838587963375119e-01
3.709556817232928516e-01 4.500875375930988298e-01
3.719962306199582347e-01 5.594481282168217717e-01
3.730367795166236178e-01 5.442282835468716939e-01
3.740773284132890009e-01 5.532214987131851558e-01
3.751178773099543839e-01 2.637404001540311071e-01
3.761584262066197670e-01 1.671899759035255784e-02
3.771989751032851501e-01 1.157722990735088331e-01
3.782395239999505332e-01 2.435690010332045574e-01
3.792800728966159163e-01 2.720559923843346439e-01
3.803206217932812994e-01 3.424934491463211828e-01
3.813611706899466824e-01 2.711560425108103800e-01
3.824017195866120655e-01 2.005908452951636889e-01
3.834422684832774486e-01 4.460489206228679393e-01
3.844828173799428317e-01 2.555476767860405118e-01
3.855233662766082148e-01 2.606020810275602173e-01
3.865639151732735979e-01 2.226566108564931312e-01
3.876044640699389809e-01 2.961078499960088095e-01
3.886450129666043640e-01 3.674324937838697736e-01
3.896855618632697471e-01 1.800006956065303143e-01
3.907261107599351302e-01 5.263889982939318202e-02
3.917666596566005133e-01 8.847377642687348498e-02
3.928072085532658964e-01 2.864740542750965346e-01
3.938477574499312794e-01 2.889797932888917842e-01
3.948883063465966625e-01 3.954424707777661752e-01
3.959288552432620456e-01 4.114082458528649511e-01
3.969694041399274287e-01 3.335531865370171545e-01
3.980099530365928118e-01 3.704703014099877123e-01
3.990505019332581949e-01 6.292351993608349403e-01
4.000910508299235779e-01 4.952675002386683900e-01
4.011315997265889610e-01 4.306551469322457137e-01
4.021721486232543441e-01 2.802217195183231979e-01
4.032126975199197272e-01 3.367942219336867993e-01
4.042532464165851103e-01 3.026750821131365399e-01
4.052937953132504934e-01 3.094861637628838480e-01
4.063343442099158764e-01 3.907534093073685710e-01
4.073748931065812595e-01 3.065043933359170580e-01
4.084154420032466426e-01 2.383504709955204248e-01
4.094559908999120257e-01 2.445902953608509733e-01
4.104965397965774088e-01 3.144671100189455615e-01
4.115370886932427918e-01 2.995597267809806397e-01
4.125776375899081749e-01 1.991558289026116313e-01
4.136181864865735580e-01 1.689327393543926803e-01
4.146587353832389411e-01 2.178154891314925123e-01
4.156992842799043242e-01 2.547836906108642552e-01
4.167398331765697073e-01 1.692720465050889800e-01
4.177803820732350903e-01 3.052195096716694422e-01
4.188209309699004734e-01 2.572824659764805233e-01
4.198614798665658565e-01 3.368571347554301099e-01
4.209020287632312396e-01 4.502764459659474028e-01
4.219425776598966227e-01 2.207838399174946176e-01
4.229831265565620058e-01 1.360057441271571577e-01
4.240236754532273888e-01 3.052251817587148253e-01
4.250642243498927719e-01 4.744367781809799567e-01
4.261047732465581550e-01 3.720481510105457801e-01
4.271453221432235381e-01 2.374142645526191586e-01
4.281858710398889212e-01 1.239395470270423516e-01
4.292264199365543043e-01 3.461684593308227420e-01
4.302669688332196873e-01 4.486993870128941353e-01
4.313075177298850704e-01 2.474352098320053983e-01
4.323480666265504535e-01 2.986185359257618188e-01
4.333886155232158366e-01 2.224785358761174336e-01
4.344291644198812197e-01 4.368474440318124152e-01
