# q (1/Angstrom), Intensity (arb)
2.029070354705860696e-02 2.008927313357708044e+02
2.133125244372399004e-02 1.703350979322792966e+02
2.237180134038937659e-02 1.470115394724730322e+02
2.341235023705475968e-02 1.260852674622393295e+02
2.445289913372014276e-02 1.076514837371530859e+02
2.549344803038552584e-02 9.780541728243485977e+01
2.653399692705091240e-02 8.951337774980015638e+01
2.757454582371629548e-02 7.919409090805346807e+01
2.861509472038167856e-02 7.152723473990081970e+01
2.965564361704706164e-02 6.611044564045920424e+01
3.069619251371244473e-02 6.036017085054636766e+01
3.173674141037782781e-02 5.675301810788153034e+01
3.277729030704321089e-02 5.270163443519442126e+01
3.381783920370859398e-02 4.882599278708285340e+01
3.485838810037397706e-02 4.767198851478130450e+01
3.589893699703936014e-02 4.373893436041445426e+01
3.693948589370474322e-02 4.123696755256207069e+01
3.798003479037012631e-02 3.898902129410764417e+01
3.902058368703550939e-02 3.834809870947326260e+01
4.006113258370089247e-02 3.711471810838163066e+01
4.110168148036627556e-02 3.638331009650048742e+01
4.214223037703165864e-02 3.720119975523004285e+01
4.318277927369704866e-02 3.625126486951472771e+01
4.422332817036243174e-02 3.630613210476998631e+01
4.526387706702781483e-02 3.737118713901219991e+01
4.630442596369319791e-02 3.662375743354508018e+01
4.734497486035858099e-02 3.594104000850485647e+01
4.838552375702396408e-02 3.851622849123310033e+01
4.942607265368934716e-02 3.868742477845501782e+01
5.046662155035473024e-02 3.994175504500371687e+01
5.150717044702011332e-02 4.224055579059292853e+01
5.254771934368549641e-02 4.440998907234877890e+01
5.358826824035087949e-02 4.710852624344170891e+01
5.462881713701626257e-02 5.201829162312023414e+01
5.566936603368164566e-02 5.701366427698147277e+01
5.670991493034702874e-02 6.305380895767545013e+01
5.775046382701241182e-02 6.961161740372197926e+01
5.879101272367779490e-02 8.020996359305621581e+01
5.983156162034317799e-02 9.471747417731714336e+01
6.087211051700856107e-02 1.140411350295475188e+02
6.191265941367394415e-02 1.425519170290586999e+02
6.295320831033933417e-02 1.942118540965243199e+02
6.399375720700471726e-02 2.844609146376813555e+02
6.503430610367010034e-02 4.212574281407650574e+02
6.607485500033548342e-02 6.107401010351636614e+02
6.711540389700086651e-02 8.536012827422239297e+02
6.815595279366624959e-02 1.127240636350649538e+03
6.919650169033163267e-02 1.319682954249530894e+03
7.023705058699701576e-02 1.281708752676570157e+03
7.127759948366239884e-02 1.011400099897472955e+03
7.231814838032778192e-02 7.113290812199128368e+02
7.335869727699316500e-02 5.044063338411078234e+02
7.439924617365854809e-02 3.806698095326302109e+02
7.543979507032393117e-02 3.019054945213164274e+02
7.648034396698931425e-02 2.490266047239921932e+02
7.752089286365469734e-02 2.151769213665724294e+02
7.856144176032008042e-02 1.909408060212118698e+02
7.960199065698546350e-02 1.684757002902877616e+02
8.064253955365084658e-02 1.399721103979734664e+02
8.168308845031622967e-02 1.046674734589799414e+02
8.272363734698161275e-02 7.115400513456670240e+01
8.376418624364699583e-02 4.615897755137680036e+01
8.480473514031239279e-02 3.104933464971124835e+01
8.584528403697777588e-02 2.255862648002342752e+01
8.688583293364315896e-02 1.701191347337521620e+01
8.792638183030854204e-02 1.310807602502678293e+01
8.896693072697392513e-02 1.017222990554489570e+01
9.000747962363930821e-02 8.127944452872561953e+00
9.104802852030469129e-02 7.581192936263924764e+00
9.208857741697007437e-02 7.050750956853519824e+00
9.312912631363545746e-02 6.712311360792128312e+00
9.416967521030084054e-02 6.155634945755252829e+00
9.521022410696622362e-02 5.632295757055125307e+00
9.625077300363160671e-02 5.231214224585031047e+00
9.729132190029698979e-02 5.355762221671284351e+00
9.833187079696237287e-02 5.671062026667428313e+00
9.937241969362775595e-02 5.951776019537170725e+00
1.004129685902931390e-01 5.965041074267240617e+00
1.014535174869585221e-01 6.027796359694455930e+00
1.024940663836239052e-01 6.310759706135499414e+00
1.035346152802892883e-01 6.878500375327874394e+00
1.045751641769546714e-01 8.606509720168098454e+00
1.056157130736200545e-01 1.004923638827504107e+01
1.066562619702854375e-01 1.142363511410535182e+01
1.076968108669508206e-01 1.414477528101800630e+01
1.087373597636162037e-01 1.922914542396798510e+01
1.097779086602815868e-01 2.615957411829572266e+01
1.108184575569469699e-01 3.508030656873230413e+01
1.118590064536123529e-01 4.506580699149983360e+01
1.128995553502777360e-01 5.254474462125632073e+01
1.139401042469431191e-01 5.605716580432444829e+01
1.149806531436085022e-01 5.217440911148781879e+01
1.160212020402738853e-01 4.355299608925443522e+01
1.170617509369392684e-01 3.490829995159352706e+01
1.181022998336046514e-01 2.854347688485520962e+01
1.191428487302700345e-01 2.469809835945762444e+01
1.201833976269354176e-01 2.226558495972692953e+01
1.212239465236008007e-01 2.142215188855472974e+01
1.222644954202661838e-01 2.113133618235977451e+01
1.233050443169315669e-01 2.063247631564963314e+01
1.243455932135969499e-01 2.095899573256668447e+01
1.253861421102623330e-01 2.222485759859043242e+01
1.264266910069277161e-01 2.405225222542406271e+01
1.274672399035930992e-01 2.855701925088157367e+01
1.285077888002584823e-01 3.469060199982443748e+01
1.295483376969238654e-01 4.269795259951735034e+01
1.305888865935892484e-01 5.142893482999657095e+01
1.316294354902546315e-01 5.848721801524834518e+01
1.326699843869200146e-01 6.475707819870574156e+01
1.337105332835853977e-01 6.758517758779143492e+01
1.347510821802507808e-01 6.322597517740007333e+01
1.357916310769161639e-01 5.296017785676968970e+01
1.368321799735815469e-01 4.270921700627357609e+01
1.378727288702469300e-01 3.516814720369779224e+01
1.389132777669123131e-01 2.938968635394039808e+01
1.399538266635776962e-01 2.432058373824674646e+01
1.409943755602430793e-01 1.895784313864595561e+01
1.420349244569084624e-01 1.486441166710097406e+01
1.430754733535738454e-01 1.142964294025772887e+01
1.441160222502392285e-01 8.619014077885282177e+00
1.451565711469046116e-01 7.162599962281994692e+00
1.461971200435699947e-01 6.014638534515079016e+00
1.472376689402353778e-01 4.916851830306640636e+00
1.482782178369007609e-01 4.532254291561464754e+00
1.493187667335661439e-01 3.944156932448770192e+00
1.503593156302315270e-01 3.296941401038381514e+00
1.513998645268969101e-01 2.984275153588555440e+00
1.524404134235622932e-01 2.998310283087448624e+00
1.534809623202276763e-01 2.558825024462187514e+00
1.545215112168930593e-01 2.093111928446887759e+00
1.555620601135584424e-01 2.614318670718489557e+00
1.566026090102238255e-01 2.407669779143994049e+00
1.576431579068892086e-01 2.289522660065117066e+00
1.586837068035545917e-01 1.791719792199486960e+00
1.597242557002199748e-01 1.810525922662122866e+00
1.607648045968853578e-01 2.224693766201646383e+00
1.618053534935507409e-01 2.201504116992651916e+00
1.628459023902161240e-01 2.112308342092255486e+00
1.638864512868815071e-01 1.809768571114098279e+00
1.649270001835468902e-01 2.145391399897555118e+00
1.659675490802122733e-01 2.756789028923648743e+00
1.670080979768776563e-01 2.510134740786106988e+00
1.680486468735430672e-01 2.810260849713763776e+00
1.690891957702084503e-01 3.109617009978890678e+00
1.701297446668738333e-01 4.090955760789178441e+00
1.711702935635392164e-01 4.617036426346899702e+00
1.722108424602045995e-01 5.151063067720528466e+00
1.732513913568699826e-01 6.115856383960775133e+00
1.742919402535353657e-01 7.157952440504097069e+00
1.753324891502007488e-01 7.790514218594125850e+00
1.763730380468661318e-01 8.444006865435305542e+00
1.774135869435315149e-01 8.783431005888189702e+00
1.784541358401968980e-01 8.513213727908009787e+00
1.794946847368622811e-01 8.252043728574960824e+00
1.805352336335276642e-01 7.910628203175967599e+00
1.815757825301930473e-01 7.008425423063911808e+00
1.826163314268584303e-01 6.268598457959967618e+00
1.836568803235238134e-01 5.450675342222012887e+00
1.846974292201891965e-01 4.437329358023198722e+00
1.857379781168545796e-01 3.984537513414743160e+00
1.867785270135199627e-01 3.698451075530833521e+00
1.878190759101853458e-01 3.612711327813478590e+00
1.888596248068507288e-01 3.816915189117239038e+00
1.899001737035161119e-01 4.142821266018970050e+00
1.909407226001814950e-01 4.474688287379265716e+00
1.919812714968468781e-01 4.867050540514277657e+00
1.930218203935122612e-01 4.847702061242479488e+00
1.940623692901776443e-01 4.885897112441071499e+00
1.951029181868430273e-01 4.990305131757487800e+00
1.961434670835084104e-01 5.427051380276274983e+00
1.971840159801737935e-01 5.736798642288839289e+00
1.982245648768391766e-01 5.389218521539469009e+00
1.992651137735045597e-01 4.782820890102904343e+00
2.003056626701699428e-01 4.598920984255229882e+00
2.013462115668353813e-01 4.186630721864986526e+00
2.023867604635007644e-01 4.101625260628885883e+00
2.034273093601661475e-01 4.280162358634456155e+00
2.044678582568315306e-01 4.192657607189019586e+00
2.055084071534969137e-01 3.876464335436331510e+00
2.065489560501622968e-01 3.568972112826344301e+00
2.075895049468276798e-01 3.706800809031705057e+00
2.086300538434930629e-01 3.566763372829157674e+00
2.096706027401584460e-01 3.173776999433080448e+00
2.107111516368238291e-01 2.915358018964276710e+00
2.117517005334892122e-01 2.579294576469287392e+00
2.127922494301545953e-01 2.407078401934356293e+00
2.138327983268199783e-01 2.333906754742713474e+00
2.148733472234853614e-01 2.109440306115239139e+00
2.159138961201507445e-01 1.864051240364894113e+00
2.169544450168161276e-01 1.617435690890225430e+00
2.179949939134815107e-01 1.675105072720349142e+00
2.190355428101468938e-01 1.278402763301741629e+00
2.200760917068122768e-01 1.073067527517160613e+00
2.211166406034776599e-01 9.436422179878434235e-01
2.221571895001430430e-01 1.069542082886812295e+00
2.231977383968084261e-01 1.199252955567715162e+00
2.242382872934738092e-01 9.423821710621211878e-01
2.252788361901391923e-01 1.030453598679734739e+00
2.263193850868045753e-01 1.107993784884932609e+00
2.273599339834699584e-01 1.261371866982692325e+00
2.284004828801353415e-01 1.082737679465466840e+00
2.294410317768007246e-01 1.134376864641645000e+00
2.304815806734661077e-01 1.439042348112714365e+00
2.315221295701314908e-01 1.802210336183833306e+00
2.325626784667968738e-01 1.657095365661135133e+00
2.336032273634622569e-01 1.326354739781393732e+00
2.346437762601276400e-01 1.302202104706303487e+00
2.356843251567930231e-01 1.510871985372929771e+00
2.367248740534584062e-01 1.580911214643471396e+00
2.377654229501237892e-01 1.465103295683864104e+00
2.388059718467891723e-01 1.427522612010413638e+00
2.398465207434545554e-01 1.826056725746671106e+00
2.408870696401199385e-01 1.750647099742309365e+00
2.419276185367853216e-01 1.781432578346038298e+00
2.429681674334507047e-01 1.593929987237920898e+00
2.440087163301160877e-01 1.559816985222852281e+00
2.450492652267814708e-01 1.361449584041512395e+00
2.460898141234468539e-01 1.554482587738096555e+00
2.471303630201122370e-01 1.452145391440488709e+00
2.481709119167776201e-01 1.447013569347326722e+00
2.492114608134430032e-01 1.444319893926415688e+00
2.502520097101083585e-01 1.402819538302843227e+00
2.512925586067737416e-01 1.335352170976882746e+00
2.523331075034391247e-01 1.284805235223966946e+00
2.533736564001045077e-01 1.368743369031410140e+00
2.544142052967698908e-01 1.633197090361743875e+00
2.554547541934352739e-01 1.700415141255504636e+00
2.564953030901006570e-01 1.655104095195319758e+00
2.575358519867660401e-01 1.671878449544639267e+00
2.585764008834314231e-01 1.869359018048974974e+00
2.596169497800968062e-01 1.681090635776453013e+00
2.606574986767621893e-01 1.629036391618146951e+00
2.616980475734275724e-01 1.486732510659276585e+00
2.627385964700929555e-01 1.660450450593877747e+00
2.637791453667583386e-01 1.779872156765385682e+00
2.648196942634237216e-01 1.603633771885963455e+00
2.658602431600891047e-01 1.524139072644619120e+00
2.669007920567544878e-01 1.511235888902835001e+00
2.679413409534198709e-01 1.442622283556687535e+00
2.689818898500852540e-01 1.313600549369482451e+00
2.700224387467506371e-01 1.103888177035727836e+00
2.710629876434160201e-01 1.273135061220013853e+00
2.721035365400814032e-01 1.266943278358365177e+00
2.731440854367467863e-01 1.360349405640047138e+00
2.741846343334121694e-01 1.296707009191706561e+00
2.752251832300775525e-01 8.810354548057581781e-01
2.762657321267429356e-01 6.596932514642617207e-01
2.773062810234083186e-01 7.858559418506629868e-01
2.783468299200737017e-01 1.030837804259633117e+00
2.793873788167390848e-01 9.068607624037561266e-01
2.804279277134044679e-01 9.605568854899786402e-01
2.814684766100698510e-01 7.985507418858404094e-01
2.825090255067352341e-01 8.021034941066176316e-01
2.835495744034006171e-01 7.813773452661294527e-01
2.845901233000660002e-01 8.507557013662463419e-01
2.856306721967313833e-01 9.481221971181490460e-01
2.866712210933967664e-01 6.888368462842855422e-01
2.877117699900621495e-01 6.723281835617278546e-01
2.887523188867275326e-01 8.070898616897288491e-01
2.897928677833929156e-01 9.588196564276181277e-01
2.908334166800582987e-01 6.653357878153620675e-01
2.918739655767236818e-01 4.963902524078456224e-01
2.929145144733890649e-01 2.954645297888944810e-01
2.939550633700544480e-01 9.893113169917100436e-02
2.949956122667198311e-01 3.273266429383454579e-01
2.960361611633852141e-01 6.084006677540330088e-01
2.970767100600505972e-01 5.660514153046065644e-01
2.981172589567159803e-01 6.415333854409261960e-01
2.991578078533813634e-01 7.173439302576056775e-01
3.001983567500468020e-01 8.202946750654724895e-01
3.012389056467121851e-01 9.599223582966445178e-01
3.022794545433775681e-01 8.662136979701493544e-01
3.033200034400429512e-01 5.740992265179620802e-01
3.043605523367083343e-01 5.673102706966837161e-01
3.054011012333737174e-01 5.034407265261329201e-01
3.064416501300391005e-01 4.129639352382561412e-01
3.074821990267044836e-01 6.501825152021574183e-01
3.085227479233698666e-01 6.856692307544740572e-01
3.095632968200352497e-01 4.598058789182921657e-01
3.106038457167006328e-01 6.127648499288689266e-01
3.116443946133660159e-01 5.851656643279348202e-01
3.126849435100313990e-01 9.809618687121712810e-01
3.137254924066967821e-01 6.844440129437359133e-01
3.147660413033621651e-01 6.507008020608431309e-01
3.158065902000275482e-01 8.262997879096261045e-01
3.168471390966929313e-01 4.691693075921854472e-01
3.178876879933583144e-01 5.211739081959159137e-01
3.189282368900236975e-01 9.559715785797955334e-01
3.199687857866890806e-01 8.317420642131878594e-01
3.210093346833544636e-01 7.026953655470435933e-01
3.220498835800198467e-01 6.419041688745217300e-01
3.230904324766852298e-01 6.212351222509617799e-01
3.241309813733506129e-01 5.599992057236029552e-01
3.251715302700159960e-01 7.721948671647069773e-01
3.262120791666813790e-01 8.710776670537931921e-01
3.272526280633467621e-01 8.300283256031306678e-01
3.282931769600121452e-01 6.471545056895919856e-01
3.293337258566775283e-01 5.745430747130093607e-01
3.303742747533429114e-01 5.022674172293939421e-01
3.314148236500082945e-01 7.438546462389439284e-01
3.324553725466736775e-01 1.024423602594726646e+00
3.334959214433390606e-01 1.115062487560027904e+00
3.345364703400044437e-01 7.729127910217670205e-01
3.355770192366698268e-01 7.602623781720865281e-01
3.366175681333352099e-01 6.837339017270132047e-01
3.376581170300005930e-01 6.773698198822337702e-01
3.386986659266659760e-01 6.414054857544506660e-01
3.397392148233313591e-01 7.810486131000473620e-01
3.407797637199967422e-01 5.269736378354608064e-01
3.418203126166621253e-01 7.172002649315736278e-01
3.428608615133275084e-01 7.989724566670872719e-01
3.439014104099928915e-01 7.726836459251593681e-01
3.449419593066582745e-01 7.432750250686233073e-01
3.459825082033236576e-01 6.376436335579747094e-01
3.470230570999890407e-01 5.988228059095490607e-01
3.480636059966544238e-01 7.612756401109130877e-01
3.491041548933198069e-01 8.454609846417397989e-01
3.501447037899851900e-01 5.951445424362198366e-01
3.511852526866505730e-01 6.368802020384798368e-01
3.522258015833159561e-01 4.161665950915640622e-01
3.532663504799813392e-01 5.121884610354996425e-01
3.543068993766467223e-01 7.522369296530335703e-01
3.553474482733121054e-01 6.171205409364439731e-01
3.563879971699774885e-01 5.492397450055221952e-01
3.574285460666428715e-01 5.006639223465434441e-01
3.584690949633082546e-01 3.783899697758030811e-01
3.595096438599736377e-01 3.678169628760556975e-01
3.605501927566390208e-01 4.828113533043065786e-01
3.615907416533044039e-01 5.227011901908227287e-01
3.626312905499697870e-01 5.173290314159544323e-01
3.636718394466351700e-01 3.325140173661615961e-01
3.647123883433005531e-01 4.417091246871542864e-01
3.657529372399659362e-01 4.131164186699436414e-01
3.667934861366313193e-01 5.816656026964253101e-01
3.678340350332967024e-01 4.586263405961972239e-01
3.688745839299620854e-01 3.353618624401129011e-01
3.699151328266274685e-01 4.112863589413713328e-01
3.709556817232928516e-01 2.959258103701820630e-01
3.719962306199582347e-01 2.946523357767460993e-01
3.730367795166236178e-01 5.281276615414576270e-01
3.740773284132890009e-01 4.372164261238467020e-01
3.751178773099543839e-01 4.035877448249962640e-01
3.761584262066197670e-01 5.324844241273645196e-01
3.771989751032851501e-01 6.255900280820085868e-01
3.782395239999505332e-01 4.877590784555501102e-01
3.792800728966159163e-01 3.539755667997006583e-01
3.803206217932812994e-01 4.335820676076842517e-01
3.813611706899466824e-01 5.257147490798246281e-01
3.824017195866120655e-01 5.175803016571478565e-01
3.834422684832774486e-01 5.584971412382593314e-01
3.844828173799428317e-01 5.238234204690286333e-01
3.855233662766082148e-01 5.845553196105974791e-01
3.865639151732735979e-01 7.184589788682451683e-01
3.876044640699389809e-01 5.228661510499783560e-01
3.886450129666043640e-01 5.037562701250699604e-01
3.896855618632697471e-01 6.361604083349945427e-01
3.907261107599351302e-01 7.428415241147163783e-01
3.917666596566005133e-01 5.937557352045637060e-01
3.928072085532658964e-01 4.964752971020054417e-01
3.938477574499312794e-01 4.989602113823963236e-01
3.948883063465966625e-01 4.366129234132642978e-01
3.959288552432620456e-01 3.994964330626125104e-01
3.969694041399274287e-01 3.675648978886876250e-01
3.980099530365928118e-01 1.974589956385557343e-01
3.990505019332581949e-01 4.105761536171037562e-01
4.000910508299235779e-01 5.314004970923917881e-01
4.011315997265889610e-01 5.969532779381871990e-01
4.021721486232543441e-01 4.395377612651039101e-01
4.032126975199197272e-01 3.556815148501932811e-01
4.042532464165851103e-01 4.331090268278536826e-01
4.052937953132504934e-01 3.783320963770044898e-01
4.063343442099158764e-01 4.072955810029554868e-01
4.073748931065812595e-01 3.576599059640486189e-01
4.084154420032466426e-01 7.057632061277736568e-01
4.094559908999120257e-01 4.915092326422154656e-01
4.104965397965774088e-01 3.290202478957233723e-01
4.115370886932427918e-01 3.290868093900733982e-01
4.125776375899081749e-01 3.190595734561938457e-01
4.136181864865735580e-01 3.254380796614526616e-01
4.146587353832389411e-01 1.852529565815999035e-01
4.156992842799043242e-01 8.341780626950168198e-02
4.167398331765697073e-01 1.035090444090833728e-01
4.177803820732350903e-01 0.000000000000000000e+00
4.188209309699004734e-01 3.946246948061187254e-01
4.198614798665658565e-01 4.278355648909695219e-01
4.209020287632312396e-01 6.317118752081718469e-01
4.219425776598966227e-01 6.392308158763597703e-01
4.229831265565620058e-01 4.854322612589641039e-01
4.240236754532273888e-01 3.794676336271542993e-01
4.250642243498927719e-01 4.961254793013090136e-01
4.261047732465581550e-01 6.016035773830168409e-01
4.271453221432235381e-01 3.985312027078826702e-01
4.281858710398889212e-01 2.744148667437258382e-01
4.292264199365543043e-01 5.977150030803386471e-01
4.302669688332196873e-01 5.285008954430487904e-01
4.313075177298850704e-01 4.459000738445162426e-01
4.323480666265504535e-01 4.839295420172931017e-01
4.333886155232158366e-01 6.199964008188452169e-01
4.344291644198812197e-01 3.493316253505582836e-01
