# q (1/Angstrom), Intensity (arb)
2.029070354705860696e-02 2.003956400336705315e+02
2.133125244372399004e-02 1.682858532056230842e+02
2.237180134038937659e-02 1.448328748215573967e+02
2.341235023705475968e-02 1.277538191185003313e+02
2.445289913372014276e-02 1.133084156401579605e+02
2.549344803038552584e-02 9.630933819341512958e+01
2.653399692705091240e-02 8.767973051143695784e+01
2.757454582371629548e-02 8.046277839554090860e+01
2.861509472038167856e-02 7.071123698764213827e+01
2.965564361704706164e-02 6.460632456606853680e+01
3.069619251371244473e-02 5.909027634817695684e+01
3.173674141037782781e-02 5.594733003949573913e+01
3.277729030704321089e-02 5.257791573368963611e+01
3.381783920370859398e-02 4.803569689569752654e+01
3.485838810037397706e-02 4.673848844364277255e+01
3.589893699703936014e-02 4.373920675328913177e+01
3.693948589370474322e-02 4.112025158522691726e+01
3.798003479037012631e-02 3.962478479992019231e+01
3.902058368703550939e-02 3.771238198212321180e+01
4.006113258370089247e-02 3.706142795928656852e+01
4.110168148036627556e-02 3.649748610648278913e+01
4.214223037703165864e-02 3.686597296161216519e+01
4.318277927369704866e-02 3.653747129805976357e+01
4.422332817036243174e-02 3.532614532893060755e+01
4.526387706702781483e-02 3.519176018312742826e+01
4.630442596369319791e-02 3.465097020512560277e+01
4.734497486035858099e-02 3.501741755536620815e+01
4.838552375702396408e-02 3.647064247851056962e+01
4.942607265368934716e-02 3.880981486916248713e+01
5.046662155035473024e-02 4.021625964748790238e+01
5.150717044702011332e-02 4.232686906881772160e+01
5.254771934368549641e-02 4.520317282152556260e+01
5.358826824035087949e-02 4.697954219234371465e+01
5.462881713701626257e-02 4.980066595622080428e+01
5.566936603368164566e-02 5.425141637758720492e+01
5.670991493034702874e-02 6.146646522163565862e+01
5.775046382701241182e-02 7.031244078331619107e+01
5.879101272367779490e-02 7.850044312963262882e+01
5.983156162034317799e-02 9.097492086175051895e+01
6.087211051700856107e-02 1.103725709976798868e+02
6.191265941367394415e-02 1.395456305519998637e+02
6.295320831033933417e-02 1.902409909606239182e+02
6.399375720700471726e-02 2.777596804462370983e+02
6.503430610367010034e-02 4.165643163794113661e+02
6.607485500033548342e-02 6.041510467081108118e+02
6.711540389700086651e-02 8.391202849079716088e+02
6.815595279366624959e-02 1.113194626517672987e+03
6.919650169033163267e-02 1.313063970248536179e+03
7.023705058699701576e-02 1.285869603843096456e+03
7.127759948366239884e-02 1.017450438250028242e+03
7.231814838032778192e-02 7.106186860824545874e+02
7.335869727699316500e-02 5.035578270675178487e+02
7.439924617365854809e-02 3.805266246726841928e+02
7.543979507032393117e-02 3.018978368957451153e+02
7.648034396698931425e-02 2.495662665472166850e+02
7.752089286365469734e-02 2.141634406471532088e+02
7.856144176032008042e-02 1.915706053213369273e+02
7.960199065698546350e-02 1.692119648813007018e+02
8.064253955365084658e-02 1.410425272759832467e+02
8.168308845031622967e-02 1.071083522310717910e+02
8.272363734698161275e-02 7.245786107884360661e+01
8.376418624364699583e-02 4.744621056285089367e+01
8.480473514031239279e-02 3.225700578311008115e+01
8.584528403697777588e-02 2.344331581295898559e+01
8.688583293364315896e-02 1.691277725483177363e+01
8.792638183030854204e-02 1.259720721966122170e+01
8.896693072697392513e-02 1.002799918370421040e+01
9.000747962363930821e-02 8.768648448552518460e+00
9.104802852030469129e-02 7.659278785914096943e+00
9.208857741697007437e-02 6.428351640408678236e+00
9.312912631363545746e-02 5.328140038131891743e+00
9.416967521030084054e-02 5.535310686071483133e+00
9.521022410696622362e-02 5.508063357502194890e+00
9.625077300363160671e-02 5.286995151889954059e+00
9.729132190029698979e-02 5.395370356482708019e+00
9.833187079696237287e-02 4.889392786142167324e+00
9.937241969362775595e-02 4.866135891361764720e+00
1.004129685902931390e-01 5.361205091493296493e+00
1.014535174869585221e-01 5.883936954168682121e+00
1.024940663836239052e-01 6.878335484519674026e+00
1.035346152802892883e-01 7.457833631375791583e+00
1.045751641769546714e-01 8.316482372806390799e+00
1.056157130736200545e-01 9.670751814170237992e+00
1.066562619702854375e-01 1.142490647421739425e+01
1.076968108669508206e-01 1.407637384468367259e+01
1.087373597636162037e-01 1.823883799603377298e+01
1.097779086602815868e-01 2.458404061757168790e+01
1.108184575569469699e-01 3.359613714083627656e+01
1.118590064536123529e-01 4.265277393258122629e+01
1.128995553502777360e-01 5.183030933240149807e+01
1.139401042469431191e-01 5.615731386291427896e+01
1.149806531436085022e-01 5.305840662101358873e+01
1.160212020402738853e-01 4.419133357569043596e+01
1.170617509369392684e-01 3.576979822475170323e+01
1.181022998336046514e-01 2.982428542591046039e+01
1.191428487302700345e-01 2.577420159158592838e+01
1.201833976269354176e-01 2.247133207107204811e+01
1.212239465236008007e-01 2.075318288054535998e+01
1.222644954202661838e-01 1.997238046233534448e+01
1.233050443169315669e-01 1.979108759777498250e+01
1.243455932135969499e-01 2.048454269931627181e+01
1.253861421102623330e-01 2.214017153706222985e+01
1.264266910069277161e-01 2.378380910386377423e+01
1.274672399035930992e-01 2.716966091712078679e+01
1.285077888002584823e-01 3.379182015890106072e+01
1.295483376969238654e-01 4.239698288235655355e+01
1.305888865935892484e-01 5.058542306872239180e+01
1.316294354902546315e-01 5.727917406386035282e+01
1.326699843869200146e-01 6.347602754317554030e+01
1.337105332835853977e-01 6.716138646273361701e+01
1.347510821802507808e-01 6.293266770528703802e+01
1.357916310769161639e-01 5.257517044045889065e+01
1.368321799735815469e-01 4.282114706968755513e+01
1.378727288702469300e-01 3.429702697025769709e+01
1.389132777669123131e-01 2.842851513615889303e+01
1.399538266635776962e-01 2.388237074703446439e+01
1.409943755602430793e-01 1.921391480142477803e+01
1.420349244569084624e-01 1.487899119335822462e+01
1.430754733535738454e-01 1.139548966849061884e+01
1.441160222502392285e-01 9.042389942207414322e+00
1.451565711469046116e-01 7.372507482293848113e+00
1.461971200435699947e-01 5.447325074344092855e+00
1.472376689402353778e-01 4.695116332689693195e+00
1.482782178369007609e-01 4.079757871762083710e+00
1.493187667335661439e-01 3.741824065330440874e+00
1.503593156302315270e-01 3.283003738287028739e+00
1.513998645268969101e-01 3.159121604802223260e+00
1.524404134235622932e-01 2.524883786166732591e+00
1.534809623202276763e-01 2.662113375179984587e+00
1.545215112168930593e-01 2.707023174145120947e+00
1.555620601135584424e-01 2.715496757695959218e+00
1.566026090102238255e-01 2.446279864791257808e+00
1.576431579068892086e-01 2.481361240424440950e+00
1.586837068035545917e-01 2.080932820195002364e+00
1.597242557002199748e-01 1.721623753308158200e+00
1.607648045968853578e-01 1.749313542360951601e+00
1.618053534935507409e-01 1.792117984417060939e+00
1.628459023902161240e-01 1.615881880687425109e+00
1.638864512868815071e-01 1.612669015049995380e+00
1.649270001835468902e-01 1.897847363564352463e+00
1.659675490802122733e-01 1.774044438672589763e+00
1.670080979768776563e-01 2.194306192651993115e+00
1.680486468735430672e-01 2.935547415695481277e+00
1.690891957702084503e-01 3.209454315888024212e+00
1.701297446668738333e-01 3.494825787375596349e+00
1.711702935635392164e-01 4.288443998351482378e+00
1.722108424602045995e-01 5.244813133768481350e+00
1.732513913568699826e-01 5.942689432341154543e+00
1.742919402535353657e-01 6.439898100626983535e+00
1.753324891502007488e-01 7.027714365149407172e+00
1.763730380468661318e-01 7.872737938906688271e+00
1.774135869435315149e-01 7.707383157792293105e+00
1.784541358401968980e-01 8.019342963816001202e+00
1.794946847368622811e-01 7.943420510777002619e+00
1.805352336335276642e-01 7.863929887910146022e+00
1.815757825301930473e-01 7.190740103475270928e+00
1.826163314268584303e-01 6.070137411216151690e+00
1.836568803235238134e-01 4.953958532049270502e+00
1.846974292201891965e-01 4.410375323216008780e+00
1.857379781168545796e-01 4.243083140119964014e+00
1.867785270135199627e-01 3.612538511607752412e+00
1.878190759101853458e-01 3.481928308552966200e+00
1.888596248068507288e-01 3.909213607513073896e+00
1.899001737035161119e-01 4.143429912150224936e+00
1.909407226001814950e-01 4.157014188748611616e+00
1.919812714968468781e-01 4.467291957395460145e+00
1.930218203935122612e-01 4.793070589640777257e+00
1.940623692901776443e-01 4.861903891960892565e+00
1.951029181868430273e-01 5.054092949181651306e+00
1.961434670835084104e-01 5.121874025785032813e+00
1.971840159801737935e-01 5.599784772437615743e+00
1.982245648768391766e-01 5.583125501051846129e+00
1.992651137735045597e-01 4.765711480162664770e+00
2.003056626701699428e-01 4.412080309304585057e+00
2.013462115668353813e-01 4.308326404808497045e+00
2.023867604635007644e-01 4.284180536782898230e+00
2.034273093601661475e-01 4.111805958376436365e+00
2.044678582568315306e-01 3.607911310931051219e+00
2.055084071534969137e-01 3.504809432178433326e+00
2.065489560501622968e-01 3.555009558471773801e+00
2.075895049468276798e-01 3.323161523980836307e+00
2.086300538434930629e-01 3.306903476201874525e+00
2.096706027401584460e-01 3.703422607094609020e+00
2.107111516368238291e-01 3.295284072230359129e+00
2.117517005334892122e-01 2.815539358644691958e+00
2.127922494301545953e-01 2.306731056433967808e+00
2.138327983268199783e-01 2.195209750681620164e+00
2.148733472234853614e-01 2.000812242901297111e+00
2.159138961201507445e-01 1.747014014583271546e+00
2.169544450168161276e-01 1.648713901516799751e+00
2.179949939134815107e-01 1.771237275117947263e+00
2.190355428101468938e-01 1.666316581062474711e+00
2.200760917068122768e-01 1.452915991900454173e+00
2.211166406034776599e-01 9.710473798059311434e-01
2.221571895001430430e-01 9.509978614790739471e-01
2.231977383968084261e-01 1.258070209293059349e+00
2.242382872934738092e-01 1.034934306251884095e+00
2.252788361901391923e-01 1.039706986757678919e+00
2.263193850868045753e-01 1.087979827525437315e+00
2.273599339834699584e-01 9.710081503983332141e-01
2.284004828801353415e-01 9.229454254121520762e-01
2.294410317768007246e-01 1.106120277410063579e+00
2.304815806734661077e-01 1.172662917230013591e+00
2.315221295701314908e-01 1.320400632464135526e+00
2.325626784667968738e-01 1.271412534114787718e+00
2.336032273634622569e-01 1.420898990856954924e+00
2.346437762601276400e-01 1.367736812403499869e+00
2.356843251567930231e-01 1.206440708117199279e+00
2.367248740534584062e-01 1.525626072775782660e+00
2.377654229501237892e-01 1.428940461563463771e+00
2.388059718467891723e-01 1.486476404466653634e+00
2.398465207434545554e-01 1.410950037495005915e+00
2.408870696401199385e-01 1.556104636360629456e+00
2.419276185367853216e-01 1.508018092314046044e+00
2.429681674334507047e-01 1.236730022222133130e+00
2.440087163301160877e-01 1.459680755915456984e+00
2.450492652267814708e-01 1.522782734006511873e+00
2.460898141234468539e-01 1.162711736441611521e+00
2.471303630201122370e-01 1.124416933650248751e+00
2.481709119167776201e-01 1.218133426939818520e+00
2.492114608134430032e-01 1.172428495709443297e+00
2.502520097101083585e-01 1.155356598083187691e+00
2.512925586067737416e-01 1.592526539359006676e+00
2.523331075034391247e-01 1.439340412054026075e+00
2.533736564001045077e-01 1.191554904825370187e+00
2.544142052967698908e-01 1.358306493761791245e+00
2.554547541934352739e-01 1.457729088418115992e+00
2.564953030901006570e-01 1.554158749697176489e+00
2.575358519867660401e-01 1.545079297010371278e+00
2.585764008834314231e-01 1.603623603799370301e+00
2.596169497800968062e-01 1.466797715461481744e+00
2.606574986767621893e-01 1.439413637858447004e+00
2.616980475734275724e-01 1.407945643766144173e+00
2.627385964700929555e-01 1.285898700208360168e+00
2.637791453667583386e-01 1.516045062144605993e+00
2.648196942634237216e-01 1.606136403179259986e+00
2.658602431600891047e-01 1.277939567780816077e+00
2.669007920567544878e-01 1.288612037286128498e+00
2.679413409534198709e-01 1.251880277071805381e+00
2.689818898500852540e-01 1.270246343885442997e+00
2.700224387467506371e-01 1.294023293514367623e+00
2.710629876434160201e-01 9.714190711327219674e-01
2.721035365400814032e-01 7.516034938901903217e-01
2.731440854367467863e-01 6.772771501734595745e-01
2.741846343334121694e-01 9.553250960308119488e-01
2.752251832300775525e-01 8.655393666803412600e-01
2.762657321267429356e-01 1.064891823508144597e+00
2.773062810234083186e-01 1.152261618931543552e+00
2.783468299200737017e-01 1.055035141665765508e+00
2.793873788167390848e-01 9.727185394504154203e-01
2.804279277134044679e-01 8.528843236332441791e-01
2.814684766100698510e-01 6.895599630328170804e-01
2.825090255067352341e-01 7.303710724693672773e-01
2.835495744034006171e-01 6.670700925511425794e-01
2.845901233000660002e-01 5.167521148678737575e-01
2.856306721967313833e-01 6.546709633466925027e-01
2.866712210933967664e-01 8.417649909282474141e-01
2.877117699900621495e-01 6.857523176721613822e-01
2.887523188867275326e-01 7.207813335062134286e-01
2.897928677833929156e-01 4.809720398476464709e-01
2.908334166800582987e-01 5.680305473120803583e-01
2.918739655767236818e-01 9.537206816175398671e-01
2.929145144733890649e-01 9.138185863363155192e-01
2.939550633700544480e-01 7.997486528452206755e-01
2.949956122667198311e-01 4.440620449827861194e-01
2.960361611633852141e-01 4.124300752085403587e-01
2.970767100600505972e-01 3.997723153981311839e-01
2.981172589567159803e-01 4.829786239498545797e-01
2.991578078533813634e-01 5.644058067787121047e-01
3.001983567500468020e-01 5.499728034130733079e-01
3.012389056467121851e-01 7.263270125957674850e-01
3.022794545433775681e-01 5.485993557681894117e-01
3.033200034400429512e-01 3.667204246993023276e-01
3.043605523367083343e-01 3.865406962540234304e-01
3.054011012333737174e-01 4.878546774759691118e-01
3.064416501300391005e-01 4.153988759012428034e-01
3.074821990267044836e-01 5.150681508399088671e-01
3.085227479233698666e-01 6.584410365203829940e-01
3.095632968200352497e-01 5.026355223156002694e-01
3.106038457167006328e-01 4.810905793513065021e-01
3.116443946133660159e-01 7.419307703802289211e-01
3.126849435100313990e-01 6.282729363303509729e-01
3.137254924066967821e-01 6.235016780693491967e-01
3.147660413033621651e-01 6.999243062800175608e-01
3.158065902000275482e-01 6.246709199687892067e-01
3.168471390966929313e-01 2.883452319817507714e-01
3.178876879933583144e-01 3.352600604605910917e-01
3.189282368900236975e-01 7.249788402194567993e-01
3.199687857866890806e-01 7.619712117518844252e-01
3.210093346833544636e-01 4.805018480240015322e-01
3.220498835800198467e-01 6.457608009818862627e-01
3.230904324766852298e-01 4.917798548516607582e-01
3.241309813733506129e-01 4.853237698155759006e-01
3.251715302700159960e-01 5.796290314304499702e-01
3.262120791666813790e-01 6.223967359367250651e-01
3.272526280633467621e-01 7.361580291070346505e-01
3.282931769600121452e-01 7.070163098932908952e-01
3.293337258566775283e-01 7.572232135287713106e-01
3.303742747533429114e-01 4.861322829498746501e-01
3.314148236500082945e-01 4.043795743321787484e-01
3.324553725466736775e-01 4.706716218998359125e-01
3.334959214433390606e-01 6.051380258396612533e-01
3.345364703400044437e-01 6.980966221608397859e-01
3.355770192366698268e-01 8.401835400051602676e-01
3.366175681333352099e-01 6.640677035343394152e-01
3.376581170300005930e-01 4.077871311140945920e-01
3.386986659266659760e-01 6.200086909530320156e-01
3.397392148233313591e-01 4.416965511137789235e-01
3.407797637199967422e-01 2.817991057884015049e-01
3.418203126166621253e-01 3.029441068317026975e-01
3.428608615133275084e-01 5.112954299851075746e-01
3.439014104099928915e-01 4.495483840582146229e-01
3.449419593066582745e-01 6.185877973493596471e-01
3.459825082033236576e-01 5.890262916114785696e-01
3.470230570999890407e-01 6.895496718433946626e-01
3.480636059966544238e-01 6.184132778039490574e-01
3.491041548933198069e-01 2.921168233918542967e-01
3.501447037899851900e-01 5.987960341259608299e-01
3.511852526866505730e-01 4.917328677600387721e-01
3.522258015833159561e-01 2.566474165743244384e-01
3.532663504799813392e-01 4.351966589751725678e-01
3.543068993766467223e-01 4.339041389026760953e-01
3.553474482733121054e-01 2.874707642084750603e-01
3.563879971699774885e-01 4.573039883771805592e-01
3.574285460666428715e-01 3.211594378117297310e-01
3.584690949633082546e-01 1.591143522628684082e-01
3.595096438599736377e-01 4.290342791303807246e-01
3.605501927566390208e-01 5.106171359278803834e-01
3.615907416533044039e-01 1.547001242578076585e-01
3.626312905499697870e-01 3.807769292002660677e-03
3.636718394466351700e-01 4.764681000202131145e-02
3.647123883433005531e-01 1.900133509108457019e-01
3.657529372399659362e-01 3.395847204815432008e-01
3.667934861366313193e-01 3.167237762752712626e-01
3.678340350332967024e-01 3.546627260093515588e-01
3.688745839299620854e-01 3.101124645167985250e-01
3.699151328266274685e-01 2.021070951997252507e-01
3.709556817232928516e-01 1.911213495446766331e-01
3.719962306199582347e-01 2.921560434577514798e-01
3.730367795166236178e-01 3.113464986334406603e-01
3.740773284132890009e-01 1.590166449852894459e-01
3.751178773099543839e-01 1.452597744676396019e-01
3.761584262066197670e-01 1.971655149279243346e-01
3.771989751032851501e-01 1.647241083275154949e-01
3.782395239999505332e-01 1.340686019309238475e-01
3.792800728966159163e-01 3.487179159307984833e-01
3.803206217932812994e-01 4.655607202516662824e-01
3.813611706899466824e-01 4.087111145088826447e-01
3.824017195866120655e-01 6.177327921719495407e-01
3.834422684832774486e-01 5.875264840967169278e-01
3.844828173799428317e-01 3.031997727949438115e-01
3.855233662766082148e-01 2.076424240638061747e-01
3.865639151732735979e-01 1.558589445006042240e-01
3.876044640699389809e-01 1.086703049840593849e-01
3.886450129666043640e-01 6.596085061699952234e-02
3.896855618632697471e-01 4.045309354748027886e-01
3.907261107599351302e-01 4.486834933157446414e-01
3.917666596566005133e-01 2.766111634436505540e-01
3.928072085532658964e-01 2.268283454801789389e-02
3.938477574499312794e-01 7.724292253408648889e-02
3.948883063465966625e-01 4.543153325879494275e-01
3.959288552432620456e-01 2.321633800917943802e-01
3.969694041399274287e-01 4.391068680000067559e-01
3.980099530365928118e-01 6.525269536305309259e-01
3.990505019332581949e-01 5.572167364075681917e-01
4.000910508299235779e-01 3.620563606133373469e-01
4.011315997265889610e-01 3.547992427228336965e-01
4.021721486232543441e-01 4.880970045243877564e-01
4.032126975199197272e-01 2.189484000337671432e-01
4.042532464165851103e-01 2.833144200860324702e-01
4.052937953132504934e-01 4.621978348420689997e-01
4.063343442099158764e-01 2.327621546475207026e-01
4.073748931065812595e-01 3.465972653791418168e-01
4.084154420032466426e-01 2.894118484126941837e-01
4.094559908999120257e-01 2.678594160217073750e-01
4.104965397965774088e-01 2.287070638490256158e-01
4.115370886932427918e-01 3.859638377349128291e-01
4.125776375899081749e-01 4.035199122150245898e-01
4.136181864865735580e-01 2.089760617194578174e-01
4.146587353832389411e-01 1.551679805404830859e-01
4.156992842799043242e-01 2.056715015274761527e-01
4.167398331765697073e-01 1.188826710129013975e-01
4.177803820732350903e-01 1.782170387835790848e-01
4.188209309699004734e-01 2.390838319196895156e-01
4.198614798665658565e-01 1.535616391813228176e-01
4.209020287632312396e-01 2.447418107130694409e-01
4.219425776598966227e-01 1.546993732853572112e-01
4.229831265565620058e-01 2.550102079034921587e-01
4.240236754532273888e-01 2.208744001795892586e-01
4.250642243498927719e-01 2.109585064085344186e-01
4.261047732465581550e-01 2.840947358253949062e-01
4.271453221432235381e-01 2.757227488939903992e-01
4.281858710398889212e-01 2.186070302127696152e-01
4.292264199365543043e-01 3.330425575154265516e-01
4.302669688332196873e-01 2.742481004677870260e-01
4.313075177298850704e-01 1.930704959983202684e-01
4.323480666265504535e-01 3.136947414587574201e-01
4.333886155232158366e-01 2.317424817760382894e-01
4.344291644198812197e-01 3.591044517902837185e-01
