# q (1/Angstrom), Intensity (arb)
2.029070354705860696e-02 1.977757166785460754e+02
2.133125244372399004e-02 1.670050031806371180e+02
2.237180134038937659e-02 1.430599204006757645e+02
2.341235023705475968e-02 1.256551414187475473e+02
2.445289913372014276e-02 1.124592419309322224e+02
2.549344803038552584e-02 9.704514088576729591e+01
2.653399692705091240e-02 8.712578503675587172e+01
2.757454582371629548e-02 7.844046796304344582e+01
2.861509472038167856e-02 7.174539134444027866e+01
2.965564361704706164e-02 6.741636267152696860e+01
3.069619251371244473e-02 6.084301228606685186e+01
3.173674141037782781e-02 5.426579199916312746e+01
3.277729030704321089e-02 5.139480886306209584e+01
3.381783920370859398e-02 4.856886718558427418e+01
3.485838810037397706e-02 4.620621947351154546e+01
3.589893699703936014e-02 4.357566475478362378e+01
3.693948589370474322e-02 4.120495871230249918e+01
3.798003479037012631e-02 3.989578862251537572e+01
3.902058368703550939e-02 3.835254220411430026e+01
4.006113258370089247e-02 3.669800322492825728e+01
4.110168148036627556e-02 3.605737920207558744e+01
4.214223037703165864e-02 3.618870012063066355e+01
4.318277927369704866e-02 3.548673677457306752e+01
4.422332817036243174e-02 3.580430241851969697e+01
4.526387706702781483e-02 3.649759012449602125e+01
4.630442596369319791e-02 3.695790894844020613e+01
4.734497486035858099e-02 3.751656253902782368e+01
4.838552375702396408e-02 3.710281151325729354e+01
4.942607265368934716e-02 3.851511069104812890e+01
5.046662155035473024e-02 4.012284727601280565e+01
5.150717044702011332e-02 4.174464127303665606e+01
5.254771934368549641e-02 4.415391790878581446e+01
5.358826824035087949e-02 4.663670138819125555e+01
5.462881713701626257e-02 5.047464861493440225e+01
5.566936603368164566e-02 5.543432282358674001e+01
5.670991493034702874e-02 6.061448763031135911e+01
5.775046382701241182e-02 6.867665107649858669e+01
5.879101272367779490e-02 7.874819343664245253e+01
5.983156162034317799e-02 9.147500309894621751e+01
6.087211051700856107e-02 1.085000024515803432e+02
6.191265941367394415e-02 1.356058710929630706e+02
6.295320831033933417e-02 1.846416684218397108e+02
6.399375720700471726e-02 2.681973939800780613e+02
6.503430610367010034e-02 3.990800342767254278e+02
6.607485500033548342e-02 5.819378637709659188e+02
6.711540389700086651e-02 8.149309438212043233e+02
6.815595279366624959e-02 1.086921476884054528e+03
6.919650169033163267e-02 1.289974302472045338e+03
7.023705058699701576e-02 1.279133625286255210e+03
7.127759948366239884e-02 1.026962391980219081e+03
7.231814838032778192e-02 7.195873894506805755e+02
7.335869727699316500e-02 5.072285975198929009e+02
7.439924617365854809e-02 3.812441943967972975e+02
7.543979507032393117e-02 3.011798407360956844e+02
7.648034396698931425e-02 2.491713996909026321e+02
7.752089286365469734e-02 2.146707703778426719e+02
7.856144176032008042e-02 1.898143662697725631e+02
7.960199065698546350e-02 1.699324985081732393e+02
8.064253955365084658e-02 1.427931708914908029e+02
8.168308845031622967e-02 1.082346197613336187e+02
8.272363734698161275e-02 7.269849118725962001e+01
8.376418624364699583e-02 4.746492349704646330e+01
8.480473514031239279e-02 3.238049769004467038e+01
8.584528403697777588e-02 2.272320421331225049e+01
8.688583293364315896e-02 1.680293116582673463e+01
8.792638183030854204e-02 1.254397403301442182e+01
8.896693072697392513e-02 1.002446222730886660e+01
9.000747962363930821e-02 8.929476574456792548e+00
9.104802852030469129e-02 7.849057091286525178e+00
9.208857741697007437e-02 5.952549276043860971e+00
9.312912631363545746e-02 5.836963472368609018e+00
9.416967521030084054e-02 6.378579312830510162e+00
9.521022410696622362e-02 5.764837292573901095e+00
9.625077300363160671e-02 5.316271576489739914e+00
9.729132190029698979e-02 5.204715723631679225e+00
9.833187079696237287e-02 5.402983400733397445e+00
9.937241969362775595e-02 5.341578193659124452e+00
1.004129685902931390e-01 5.301676625454831537e+00
1.014535174869585221e-01 5.856822254689518559e+00
1.024940663836239052e-01 6.831848323419905000e+00
1.035346152802892883e-01 7.051890008047855929e+00
1.045751641769546714e-01 7.787101891664455877e+00
1.056157130736200545e-01 9.270888208896707283e+00
1.066562619702854375e-01 1.086582942278272412e+01
1.076968108669508206e-01 1.356938233148024864e+01
1.087373597636162037e-01 1.781879992330490836e+01
1.097779086602815868e-01 2.357938385490621158e+01
1.108184575569469699e-01 3.186995993826368334e+01
1.118590064536123529e-01 4.134142601408390760e+01
1.128995553502777360e-01 4.946451237833206704e+01
1.139401042469431191e-01 5.494334201448147326e+01
1.149806531436085022e-01 5.287689052581955451e+01
1.160212020402738853e-01 4.476865221533724792e+01
1.170617509369392684e-01 3.548071331104237913e+01
1.181022998336046514e-01 2.851547026303759935e+01
1.191428487302700345e-01 2.459809242602025137e+01
1.201833976269354176e-01 2.267848636575538990e+01
1.212239465236008007e-01 2.137802867713131150e+01
1.222644954202661838e-01 2.058878859920880444e+01
1.233050443169315669e-01 2.074916161199511322e+01
1.243455932135969499e-01 2.073318130388975788e+01
1.253861421102623330e-01 2.230245256887561567e+01
1.264266910069277161e-01 2.429328910328508329e+01
1.274672399035930992e-01 2.718916837939276121e+01
1.285077888002584823e-01 3.261772381437577906e+01
1.295483376969238654e-01 4.046365942097766322e+01
1.305888865935892484e-01 4.911276284685694549e+01
1.316294354902546315e-01 5.631591311855272863e+01
1.326699843869200146e-01 6.298431297429282694e+01
1.337105332835853977e-01 6.683185494097884316e+01
1.347510821802507808e-01 6.308656038434166646e+01
1.357916310769161639e-01 5.370532941577484110e+01
1.368321799735815469e-01 4.319879474619092719e+01
1.378727288702469300e-01 3.509093900872520067e+01
1.389132777669123131e-01 2.912192017921922371e+01
1.399538266635776962e-01 2.439518601581833224e+01
1.409943755602430793e-01 1.996991029287848107e+01
1.420349244569084624e-01 1.547489033437712180e+01
1.430754733535738454e-01 1.167828286787666059e+01
1.441160222502392285e-01 9.279518504455502637e+00
1.451565711469046116e-01 6.952548241625706282e+00
1.461971200435699947e-01 5.800043425623542248e+00
1.472376689402353778e-01 4.893495992744050227e+00
1.482782178369007609e-01 4.321113529393102226e+00
1.493187667335661439e-01 3.747040705049883513e+00
1.503593156302315270e-01 2.822436756963696780e+00
1.513998645268969101e-01 2.633889371774259303e+00
1.524404134235622932e-01 2.828385955595543066e+00
1.534809623202276763e-01 2.128634755255369271e+00
1.545215112168930593e-01 2.296493367472059788e+00
1.555620601135584424e-01 2.579808784692900758e+00
1.566026090102238255e-01 2.445975873754370866e+00
1.576431579068892086e-01 2.286576709641764182e+00
1.586837068035545917e-01 2.589015356934808665e+00
1.597242557002199748e-01 2.415394075266938501e+00
1.607648045968853578e-01 1.941214663765549631e+00
1.618053534935507409e-01 2.008194177388183732e+00
1.628459023902161240e-01 1.784727179092129745e+00
1.638864512868815071e-01 2.055961063590835636e+00
1.649270001835468902e-01 2.202640719868867336e+00
1.659675490802122733e-01 2.332433264249651472e+00
1.670080979768776563e-01 2.667150221629078999e+00
1.680486468735430672e-01 2.818845353922100117e+00
1.690891957702084503e-01 3.033650486247687184e+00
1.701297446668738333e-01 3.600221568160634433e+00
1.711702935635392164e-01 4.440565405930165355e+00
1.722108424602045995e-01 5.122810009561248989e+00
1.732513913568699826e-01 5.544229542317566484e+00
1.742919402535353657e-01 6.415117982003430086e+00
1.753324891502007488e-01 7.659451468806146579e+00
1.763730380468661318e-01 8.025445261011611819e+00
1.774135869435315149e-01 8.058782893901451416e+00
1.784541358401968980e-01 8.400327032190524790e+00
1.794946847368622811e-01 8.081529505364187571e+00
1.805352336335276642e-01 7.643988265673485216e+00
1.815757825301930473e-01 7.216353129796694077e+00
1.826163314268584303e-01 6.445377802116851740e+00
1.836568803235238134e-01 5.923087107002331209e+00
1.846974292201891965e-01 5.073734609973499232e+00
1.857379781168545796e-01 4.245075865379895674e+00
1.867785270135199627e-01 3.922573506072374983e+00
1.878190759101853458e-01 3.713266797317302803e+00
1.888596248068507288e-01 3.670224208601595706e+00
1.899001737035161119e-01 3.810111618276266654e+00
1.909407226001814950e-01 3.533509842401713286e+00
1.919812714968468781e-01 3.987725024637050808e+00
1.930218203935122612e-01 4.403493761184471111e+00
1.940623692901776443e-01 4.943351259650377472e+00
1.951029181868430273e-01 5.181828242821289621e+00
1.961434670835084104e-01 5.291133109973252147e+00
1.971840159801737935e-01 5.402436979410921936e+00
1.982245648768391766e-01 5.293496165884299387e+00
1.992651137735045597e-01 4.989003576193759670e+00
2.003056626701699428e-01 4.852223957108158459e+00
2.013462115668353813e-01 4.491578019679394629e+00
2.023867604635007644e-01 4.121044010367043597e+00
2.034273093601661475e-01 4.321455568509975365e+00
2.044678582568315306e-01 4.044976606612273429e+00
2.055084071534969137e-01 3.643947013371509058e+00
2.065489560501622968e-01 3.580647848505847719e+00
2.075895049468276798e-01 3.647320472350827458e+00
2.086300538434930629e-01 3.278706507955782001e+00
2.096706027401584460e-01 3.064216961585785270e+00
2.107111516368238291e-01 2.972568697966821105e+00
2.117517005334892122e-01 2.736796398445903833e+00
2.127922494301545953e-01 2.608876786684085403e+00
2.138327983268199783e-01 2.256536001086963950e+00
2.148733472234853614e-01 1.918054778954143558e+00
2.159138961201507445e-01 1.919926948112916421e+00
2.169544450168161276e-01 1.782800112699966633e+00
2.179949939134815107e-01 1.296543289878741234e+00
2.190355428101468938e-01 1.336929893836995120e+00
2.200760917068122768e-01 1.310451449798712531e+00
2.211166406034776599e-01 1.328679121789782869e+00
2.221571895001430430e-01 1.033409386741723779e+00
2.231977383968084261e-01 1.145798228076216674e+00
2.242382872934738092e-01 1.127452588291884439e+00
2.252788361901391923e-01 9.547823605287604209e-01
2.263193850868045753e-01 1.021563375294707754e+00
2.273599339834699584e-01 1.180315808135926403e+00
2.284004828801353415e-01 1.357349818681164777e+00
2.294410317768007246e-01 1.171237000946650397e+00
2.304815806734661077e-01 1.000874011929084872e+00
2.315221295701314908e-01 8.975318520022312896e-01
2.325626784667968738e-01 1.398314961012466995e+00
2.336032273634622569e-01 1.673889081024025671e+00
2.346437762601276400e-01 1.329635270946994297e+00
2.356843251567930231e-01 9.201131422760404632e-01
2.367248740534584062e-01 1.116628934940230522e+00
2.377654229501237892e-01 1.366917152079363262e+00
2.388059718467891723e-01 1.555097597403783283e+00
2.398465207434545554e-01 1.193634600395299117e+00
2.408870696401199385e-01 1.253360120160618152e+00
2.419276185367853216e-01 1.446651844508892282e+00
2.429681674334507047e-01 1.480004516332108722e+00
2.440087163301160877e-01 1.505968762383918857e+00
2.450492652267814708e-01 1.551578712658443493e+00
2.460898141234468539e-01 1.281659261608510292e+00
2.471303630201122370e-01 1.333110980175607807e+00
2.481709119167776201e-01 1.493455323042098826e+00
2.492114608134430032e-01 1.364064134664364047e+00
2.502520097101083585e-01 1.544369288947951446e+00
2.512925586067737416e-01 1.261166042850572211e+00
2.523331075034391247e-01 1.152979995938505198e+00
2.533736564001045077e-01 1.325438866080464351e+00
2.544142052967698908e-01 1.297405757289837425e+00
2.554547541934352739e-01 1.392524383188188608e+00
2.564953030901006570e-01 1.513771995943603343e+00
2.575358519867660401e-01 1.642741161882941725e+00
2.585764008834314231e-01 1.782776809946142293e+00
2.596169497800968062e-01 1.801037754624243092e+00
2.606574986767621893e-01 1.328771414844581500e+00
2.616980475734275724e-01 1.327931913877222314e+00
2.627385964700929555e-01 1.461608297144707080e+00
2.637791453667583386e-01 1.777102979328851973e+00
2.648196942634237216e-01 1.699580521615846607e+00
2.658602431600891047e-01 1.395337053579506659e+00
2.669007920567544878e-01 1.423591796998842085e+00
2.679413409534198709e-01 1.335513614899959123e+00
2.689818898500852540e-01 1.120989117069431273e+00
2.700224387467506371e-01 1.254239393213282483e+00
2.710629876434160201e-01 1.158197221898255691e+00
2.721035365400814032e-01 8.517958277921700017e-01
2.731440854367467863e-01 7.961372836375701922e-01
2.741846343334121694e-01 9.723325163739531263e-01
2.752251832300775525e-01 1.074166821616607592e+00
2.762657321267429356e-01 8.750997632374506452e-01
2.773062810234083186e-01 9.770517546594632563e-01
2.783468299200737017e-01 9.318514774774300236e-01
2.793873788167390848e-01 7.697050088108738919e-01
2.804279277134044679e-01 8.359309920048332287e-01
2.814684766100698510e-01 7.915311572069470003e-01
2.825090255067352341e-01 8.689235107123565172e-01
2.835495744034006171e-01 7.765888863587555591e-01
2.845901233000660002e-01 5.146680115898725205e-01
2.856306721967313833e-01 4.861645217734782420e-01
2.866712210933967664e-01 5.014963440247051096e-01
2.877117699900621495e-01 6.046263515588918835e-01
2.887523188867275326e-01 4.690174713748191948e-01
2.897928677833929156e-01 3.130256946021603426e-01
2.908334166800582987e-01 5.288593322116952322e-01
2.918739655767236818e-01 6.522999920921819239e-01
2.929145144733890649e-01 4.586565748255111430e-01
2.939550633700544480e-01 2.343308371283683300e-01
2.949956122667198311e-01 6.073766303069731975e-01
2.960361611633852141e-01 6.183182516744416546e-01
2.970767100600505972e-01 4.133999516586790435e-01
2.981172589567159803e-01 5.276448637906696604e-01
2.991578078533813634e-01 6.219708684651337194e-01
3.001983567500468020e-01 6.059298788436819905e-01
3.012389056467121851e-01 6.216825040642355304e-01
3.022794545433775681e-01 6.187280179529679458e-01
3.033200034400429512e-01 7.526666923480860305e-01
3.043605523367083343e-01 6.507147274113869173e-01
3.054011012333737174e-01 7.543823681080255028e-01
3.064416501300391005e-01 6.862510280783347127e-01
3.074821990267044836e-01 7.029896784418703248e-01
3.085227479233698666e-01 4.778972362391797901e-01
3.095632968200352497e-01 3.255249582056016777e-01
3.106038457167006328e-01 4.085680003861114074e-01
3.116443946133660159e-01 3.507259324102030007e-01
3.126849435100313990e-01 6.643364560241735717e-01
3.137254924066967821e-01 5.027345512174754560e-01
3.147660413033621651e-01 4.303350090898057090e-01
3.158065902000275482e-01 4.964131529839903578e-01
3.168471390966929313e-01 7.819047205004210355e-01
3.178876879933583144e-01 8.662277677557383981e-01
3.189282368900236975e-01 7.470895120124936284e-01
3.199687857866890806e-01 7.810702341563384721e-01
3.210093346833544636e-01 6.683962701900476588e-01
3.220498835800198467e-01 7.145794380890677644e-01
3.230904324766852298e-01 7.503185120216002701e-01
3.241309813733506129e-01 7.527008842918725406e-01
3.251715302700159960e-01 7.433753995274159365e-01
3.262120791666813790e-01 7.379263496830859026e-01
3.272526280633467621e-01 5.223140185286005988e-01
3.282931769600121452e-01 7.249891180656362621e-01
3.293337258566775283e-01 7.243937397908979392e-01
3.303742747533429114e-01 8.897372307490023502e-01
3.314148236500082945e-01 5.988591880596345618e-01
3.324553725466736775e-01 6.164844387989987240e-01
3.334959214433390606e-01 5.611500898983372565e-01
3.345364703400044437e-01 5.161052027751225069e-01
3.355770192366698268e-01 6.347949223551054843e-01
3.366175681333352099e-01 6.504645104282538171e-01
3.376581170300005930e-01 5.083824133190439909e-01
3.386986659266659760e-01 7.676412874952163179e-01
3.397392148233313591e-01 7.027249295611674995e-01
3.407797637199967422e-01 7.665474345106950693e-01
3.418203126166621253e-01 7.966409918470276352e-01
3.428608615133275084e-01 7.454513244040548159e-01
3.439014104099928915e-01 5.338782046699179773e-01
3.449419593066582745e-01 6.723257281056440604e-01
3.459825082033236576e-01 5.276226432283515067e-01
3.470230570999890407e-01 3.636393032473748121e-01
3.480636059966544238e-01 5.736896547688274950e-01
3.491041548933198069e-01 4.389686408220931924e-01
3.501447037899851900e-01 3.687629732585762099e-01
3.511852526866505730e-01 6.083192370421954820e-01
3.522258015833159561e-01 5.263016663103599058e-01
3.532663504799813392e-01 4.051716903361999300e-01
3.543068993766467223e-01 4.365748022080389035e-01
3.553474482733121054e-01 5.231071078815894282e-01
3.563879971699774885e-01 4.738055864040831011e-01
3.574285460666428715e-01 4.581656244834135805e-01
3.584690949633082546e-01 5.168594734310794081e-01
3.595096438599736377e-01 2.256546138424049275e-01
3.605501927566390208e-01 1.598889330045487611e-01
3.615907416533044039e-01 3.543740842736902152e-01
3.626312905499697870e-01 3.097002932153536392e-01
3.636718394466351700e-01 3.042876995741359281e-01
3.647123883433005531e-01 2.339218301033305636e-01
3.657529372399659362e-01 2.504147101024045696e-01
3.667934861366313193e-01 2.707093005388010454e-01
3.678340350332967024e-01 2.969993263208650092e-01
3.688745839299620854e-01 3.967456363753605331e-01
3.699151328266274685e-01 4.501571710806580029e-01
3.709556817232928516e-01 4.120049954414035653e-01
3.719962306199582347e-01 5.343677217054541018e-01
3.730367795166236178e-01 5.272834266041144247e-01
3.740773284132890009e-01 2.306321047099615384e-01
3.751178773099543839e-01 3.525084062061836221e-01
3.761584262066197670e-01 4.391677763346706342e-01
3.771989751032851501e-01 3.285879450439317395e-01
3.782395239999505332e-01 2.865399073270324948e-01
3.792800728966159163e-01 3.629807678573655494e-01
3.803206217932812994e-01 5.653661346830283208e-01
3.813611706899466824e-01 4.955373562264284715e-01
3.824017195866120655e-01 4.911402327720431060e-01
3.834422684832774486e-01 4.159000991497379118e-01
3.844828173799428317e-01 3.204434167260110655e-01
3.855233662766082148e-01 5.379651130556055705e-01
3.865639151732735979e-01 3.996919277790880187e-01
3.876044640699389809e-01 4.016772727587287761e-01
3.886450129666043640e-01 4.260802528725804450e-01
3.896855618632697471e-01 6.472773369975293178e-01
3.907261107599351302e-01 4.157419028438091857e-01
3.917666596566005133e-01 2.369827497296448371e-01
3.928072085532658964e-01 4.465633742701129449e-01
3.938477574499312794e-01 3.643826022783898111e-01
3.948883063465966625e-01 1.426964382384880992e-01
3.959288552432620456e-01 2.279204764126774307e-02
3.969694041399274287e-01 3.836167791729359067e-01
3.980099530365928118e-01 3.513628049192405456e-01
3.990505019332581949e-01 3.336876779902766543e-01
4.000910508299235779e-01 4.862155444395099835e-01
4.011315997265889610e-01 6.246156677170127125e-01
4.021721486232543441e-01 3.205853482367615470e-01
4.032126975199197272e-01 3.805693077593303997e-01
4.042532464165851103e-01 2.992680650523347197e-01
4.052937953132504934e-01 3.037201565850935481e-01
4.063343442099158764e-01 3.045067533284573358e-01
4.073748931065812595e-01 3.691376342805696709e-01
4.084154420032466426e-01 3.860409951387389071e-01
4.094559908999120257e-01 4.136298437485947943e-01
4.104965397965774088e-01 3.053498163577330615e-01
4.115370886932427918e-01 3.755663052795732426e-01
4.125776375899081749e-01 3.735701619527702633e-01
4.136181864865735580e-01 4.548793015058976152e-01
4.146587353832389411e-01 4.483519720261845976e-01
4.156992842799043242e-01 3.024319927848218015e-01
4.167398331765697073e-01 3.702146751445170025e-01
4.177803820732350903e-01 2.141219042957978047e-01
4.188209309699004734e-01 2.567456156570209203e-01
4.198614798665658565e-01 3.697168701472683949e-01
4.209020287632312396e-01 5.254263398965335341e-01
4.219425776598966227e-01 4.158757960475334414e-01
4.229831265565620058e-01 2.388486610688644873e-01
4.240236754532273888e-01 9.829103906683300806e-02
4.250642243498927719e-01 2.706505303216424352e-01
4.261047732465581550e-01 2.320664545788062583e-01
4.271453221432235381e-01 3.065223451580330050e-01
4.281858710398889212e-01 4.262172029537865114e-01
4.292264199365543043e-01 3.810512583801610731e-01
4.302669688332196873e-01 4.368507702476982502e-01
4.313075177298850704e-01 4.822756180292344652e-01
4.323480666265504535e-01 2.021474211758516049e-01
4.333886155232158366e-01 0.000000000000000000e+00
4.344291644198812197e-01 7.865274270495348219e-02
