# q (1/Angstrom), Intensity (arb)
2.029070354705860696e-02 1.081042482200109589e+02
2.133125244372399004e-02 9.422812235771303335e+01
2.237180134038937659e-02 7.733041523534541284e+01
2.341235023705475968e-02 6.430419934939132531e+01
2.445289913372014276e-02 5.917468582744706396e+01
2.549344803038552584e-02 5.347908121683593663e+01
2.653399692705091240e-02 4.612260674052809861e+01
2.757454582371629548e-02 4.157016216719064516e+01
2.861509472038167856e-02 3.742647400911128841e+01
2.965564361704706164e-02 3.443056350600033966e+01
3.069619251371244473e-02 3.030859994522556633e+01
3.173674141037782781e-02 2.606632620139640721e+01
3.277729030704321089e-02 2.422457433300674268e+01
3.381783920370859398e-02 2.412832391763912199e+01
3.485838810037397706e-02 2.124590004783565433e+01
3.589893699703936014e-02 1.956418050865536173e+01
3.693948589370474322e-02 1.915966176310117675e+01
3.798003479037012631e-02 1.866890969225562458e+01
3.902058368703550939e-02 1.852434406881251761e+01
4.006113258370089247e-02 1.737059564384490784e+01
4.110168148036627556e-02 1.550570808911152909e+01
4.214223037703165864e-02 1.531451804091553726e+01
4.318277927369704866e-02 1.504879116398983285e+01
4.422332817036243174e-02 1.402624226663754570e+01
4.526387706702781483e-02 1.473943500793181016e+01
4.630442596369319791e-02 1.502815041211378855e+01
4.734497486035858099e-02 1.485383352426577375e+01
4.838552375702396408e-02 1.440248792461581928e+01
4.942607265368934716e-02 1.475668691387276255e+01
5.046662155035473024e-02 1.557142977446330434e+01
5.150717044702011332e-02 1.503767625243314399e+01
5.254771934368549641e-02 1.429586056570687447e+01
5.358826824035087949e-02 1.393474714569320838e+01
5.462881713701626257e-02 1.489626430523078682e+01
5.566936603368164566e-02 1.548364081172624651e+01
5.670991493034702874e-02 1.532304211902529545e+01
5.775046382701241182e-02 1.533482098050523490e+01
5.879101272367779490e-02 1.615908351061605686e+01
5.983156162034317799e-02 1.724145402719359765e+01
6.087211051700856107e-02 1.715987295720129424e+01
6.191265941367394415e-02 1.786389511874104130e+01
6.295320831033933417e-02 1.865467385286964941e+01
6.399375720700471726e-02 1.974325843947378445e+01
6.503430610367010034e-02 2.129442368324480839e+01
6.607485500033548342e-02 2.292474895623514186e+01
6.711540389700086651e-02 2.554677852839276397e+01
6.815595279366624959e-02 2.917399395829313846e+01
6.919650169033163267e-02 3.190658709742168497e+01
7.023705058699701576e-02 3.464999528372472781e+01
7.127759948366239884e-02 4.073532846312679112e+01
7.231814838032778192e-02 4.891125564941820869e+01
7.335869727699316500e-02 6.031163647115606352e+01
7.439924617365854809e-02 7.795013536422150935e+01
7.543979507032393117e-02 1.051583716899396137e+02
7.648034396698931425e-02 1.447304769805903675e+02
7.752089286365469734e-02 2.003997448646909731e+02
7.856144176032008042e-02 2.739016379872792299e+02
7.960199065698546350e-02 3.604510472998871364e+02
8.064253955365084658e-02 4.391196186633540037e+02
8.168308845031622967e-02 4.930828890211886346e+02
8.272363734698161275e-02 5.165215451784915786e+02
8.376418624364699583e-02 4.833507136936054849e+02
8.480473514031239279e-02 3.975244317358611852e+02
8.584528403697777588e-02 3.093373755889134031e+02
8.688583293364315896e-02 2.418816442093302328e+02
8.792638183030854204e-02 1.927854992728719310e+02
8.896693072697392513e-02 1.583107931245689883e+02
9.000747962363930821e-02 1.336498869589411242e+02
9.104802852030469129e-02 1.168716668666760086e+02
9.208857741697007437e-02 1.047092260662781769e+02
9.312912631363545746e-02 9.483619630956994229e+01
9.416967521030084054e-02 8.505464299717442600e+01
9.521022410696622362e-02 7.578640454787243641e+01
9.625077300363160671e-02 6.433577975792007919e+01
9.729132190029698979e-02 5.172851789518968246e+01
9.833187079696237287e-02 3.955913205668561261e+01
9.937241969362775595e-02 2.928662971860290298e+01
1.004129685902931390e-01 2.197005347821259136e+01
1.014535174869585221e-01 1.671160847773961677e+01
1.024940663836239052e-01 1.275509153891774616e+01
1.035346152802892883e-01 9.795734313927212611e+00
1.045751641769546714e-01 8.133706685420222016e+00
1.056157130736200545e-01 7.288910061787248651e+00
1.066562619702854375e-01 6.423453297868960021e+00
1.076968108669508206e-01 5.856808622346171944e+00
1.087373597636162037e-01 5.017822448161247451e+00
1.097779086602815868e-01 4.719028254234927999e+00
1.108184575569469699e-01 4.482516894037665622e+00
1.118590064536123529e-01 4.356584159594852679e+00
1.128995553502777360e-01 3.786181414683355229e+00
1.139401042469431191e-01 3.528459475482847552e+00
1.149806531436085022e-01 3.537476841631786328e+00
1.160212020402738853e-01 3.555106421382120629e+00
1.170617509369392684e-01 3.098800156306317888e+00
1.181022998336046514e-01 2.780220965052784265e+00
1.191428487302700345e-01 2.965188188574735761e+00
1.201833976269354176e-01 2.990887944619629479e+00
1.212239465236008007e-01 2.660080492535868757e+00
1.222644954202661838e-01 3.117936318390476913e+00
1.233050443169315669e-01 3.620184531219621249e+00
1.243455932135969499e-01 3.883350327578121153e+00
1.253861421102623330e-01 4.159733322867950278e+00
1.264266910069277161e-01 4.313113431563529332e+00
1.274672399035930992e-01 5.065734571796959074e+00
1.285077888002584823e-01 6.354781998241264773e+00
1.295483376969238654e-01 7.880444078670642227e+00
1.305888865935892484e-01 9.104774043462079192e+00
1.316294354902546315e-01 1.019600677591868987e+01
1.326699843869200146e-01 1.116088417914232167e+01
1.337105332835853977e-01 1.178292674829889819e+01
1.347510821802507808e-01 1.293826509968317140e+01
1.357916310769161639e-01 1.312796848452435228e+01
1.368321799735815469e-01 1.249597580638737071e+01
1.378727288702469300e-01 1.119484329359747221e+01
1.389132777669123131e-01 1.034411720109140020e+01
1.399538266635776962e-01 9.202660523119341462e+00
1.409943755602430793e-01 8.397537075325509193e+00
1.420349244569084624e-01 7.914269127597329145e+00
1.430754733535738454e-01 7.595281725698427522e+00
1.441160222502392285e-01 7.554366886870958808e+00
1.451565711469046116e-01 9.363409604377181950e+00
1.461971200435699947e-01 8.490502406716217365e+00
1.472376689402353778e-01 8.320253786827194631e+00
1.482782178369007609e-01 8.770261475821591546e+00
1.493187667335661439e-01 9.589771294155937653e+00
1.503593156302315270e-01 1.037477662260905475e+01
1.513998645268969101e-01 1.272519100662199776e+01
1.524404134235622932e-01 1.498329950805280220e+01
1.534809623202276763e-01 1.738603171107312306e+01
1.545215112168930593e-01 1.866169800779424293e+01
1.555620601135584424e-01 1.986050038044726307e+01
1.566026090102238255e-01 2.123729299422766204e+01
1.576431579068892086e-01 2.289863564188126333e+01
1.586837068035545917e-01 2.370043596073153225e+01
1.597242557002199748e-01 2.315307157734480370e+01
1.607648045968853578e-01 2.112349676478766725e+01
1.618053534935507409e-01 1.804624929293549940e+01
1.628459023902161240e-01 1.575962259516327180e+01
1.638864512868815071e-01 1.374036870853135639e+01
1.649270001835468902e-01 1.227669038733267115e+01
1.659675490802122733e-01 1.083965102615197651e+01
1.670080979768776563e-01 9.389024658522579614e+00
1.680486468735430672e-01 7.815055236369079950e+00
1.690891957702084503e-01 6.588846066219055331e+00
1.701297446668738333e-01 5.621043705802822643e+00
1.711702935635392164e-01 4.640972041846239904e+00
1.722108424602045995e-01 4.218268094572216853e+00
1.732513913568699826e-01 3.766984527215285539e+00
1.742919402535353657e-01 3.937485900114399584e+00
1.753324891502007488e-01 3.444239904846980949e+00
1.763730380468661318e-01 3.059305261290219846e+00
1.774135869435315149e-01 2.583883277043330651e+00
1.784541358401968980e-01 2.501854389145854896e+00
1.794946847368622811e-01 2.093260855978943624e+00
1.805352336335276642e-01 1.867762060306482397e+00
1.815757825301930473e-01 1.654002118182461345e+00
1.826163314268584303e-01 1.757204992933541376e+00
1.836568803235238134e-01 1.817906167320277433e+00
1.846974292201891965e-01 1.576947624472403220e+00
1.857379781168545796e-01 1.421387066168470881e+00
1.867785270135199627e-01 1.637957594051957955e+00
1.878190759101853458e-01 1.675516727730968825e+00
1.888596248068507288e-01 1.632023130675598566e+00
1.899001737035161119e-01 1.361592604241014470e+00
1.909407226001814950e-01 1.287327211069207777e+00
1.919812714968468781e-01 1.472892806118299092e+00
1.930218203935122612e-01 1.356791184774465364e+00
1.940623692901776443e-01 1.455513738800618739e+00
1.951029181868430273e-01 1.491596224453292763e+00
1.961434670835084104e-01 1.767221313380222369e+00
1.971840159801737935e-01 1.809960022098454857e+00
1.982245648768391766e-01 1.675348453320090414e+00
1.992651137735045597e-01 1.593667444988874138e+00
2.003056626701699428e-01 1.311290060654101808e+00
2.013462115668353813e-01 1.333843528935986456e+00
2.023867604635007644e-01 1.812094039464355433e+00
2.034273093601661475e-01 1.738646558116705876e+00
2.044678582568315306e-01 2.120510450675013203e+00
2.055084071534969137e-01 1.999562431372890359e+00
2.065489560501622968e-01 1.828019370301007029e+00
2.075895049468276798e-01 2.133179412668024355e+00
2.086300538434930629e-01 2.114183392995787614e+00
2.096706027401584460e-01 1.989039270109607571e+00
2.107111516368238291e-01 1.893554879353388287e+00
2.117517005334892122e-01 2.011795222048583298e+00
2.127922494301545953e-01 2.356432743587003387e+00
2.138327983268199783e-01 2.034527632192677515e+00
2.148733472234853614e-01 1.994632308291713230e+00
2.159138961201507445e-01 1.844829626023649638e+00
2.169544450168161276e-01 1.825334359506825876e+00
2.179949939134815107e-01 1.802196154016112217e+00
2.190355428101468938e-01 1.914562359814130588e+00
2.200760917068122768e-01 1.854247780377153987e+00
2.211166406034776599e-01 1.602089545099197210e+00
2.221571895001430430e-01 1.756573061014837123e+00
2.231977383968084261e-01 2.107584966409351779e+00
2.242382872934738092e-01 2.168135722669696008e+00
2.252788361901391923e-01 1.979361875598264930e+00
2.263193850868045753e-01 1.842884630383569089e+00
2.273599339834699584e-01 1.838914466845153584e+00
2.284004828801353415e-01 2.320099516081711499e+00
2.294410317768007246e-01 2.358702624217308141e+00
2.304815806734661077e-01 1.962599042248704961e+00
2.315221295701314908e-01 2.144276326248746756e+00
2.325626784667968738e-01 2.321206034833519283e+00
2.336032273634622569e-01 2.387031810524923969e+00
2.346437762601276400e-01 2.240659032469505263e+00
2.356843251567930231e-01 2.363112898970864961e+00
2.367248740534584062e-01 2.301666985525137932e+00
2.377654229501237892e-01 2.357832245532989646e+00
2.388059718467891723e-01 2.272569235452294834e+00
2.398465207434545554e-01 2.255803703823996642e+00
2.408870696401199385e-01 1.904965296605208636e+00
2.419276185367853216e-01 2.026916756539513642e+00
2.429681674334507047e-01 2.272859047741352612e+00
2.440087163301160877e-01 2.308786017761718767e+00
2.450492652267814708e-01 2.048201005825767140e+00
2.460898141234468539e-01 2.091383831501467228e+00
2.471303630201122370e-01 2.321772010073964054e+00
2.481709119167776201e-01 2.142736476627611353e+00
2.492114608134430032e-01 2.157002187334693843e+00
2.502520097101083585e-01 2.011470902272460393e+00
2.512925586067737416e-01 1.868342693864651238e+00
2.523331075034391247e-01 1.656752848650331345e+00
2.533736564001045077e-01 1.721108770770616303e+00
2.544142052967698908e-01 1.844974093076945820e+00
2.554547541934352739e-01 1.478732605023846958e+00
2.564953030901006570e-01 1.342476043745442382e+00
2.575358519867660401e-01 1.209161289403304806e+00
2.585764008834314231e-01 1.124226872935611965e+00
2.596169497800968062e-01 1.128946192216403688e+00
2.606574986767621893e-01 1.217174492216706483e+00
2.616980475734275724e-01 1.191532924268358329e+00
2.627385964700929555e-01 1.058256332981603265e+00
2.637791453667583386e-01 1.338376032341656696e+00
2.648196942634237216e-01 1.185933546336958244e+00
2.658602431600891047e-01 1.023189554398086898e+00
2.669007920567544878e-01 1.101143485360516650e+00
2.679413409534198709e-01 1.425720631171916608e+00
2.689818898500852540e-01 1.194075972981782030e+00
2.700224387467506371e-01 8.328980208291696385e-01
2.710629876434160201e-01 9.663101578894455201e-01
2.721035365400814032e-01 1.006979741902224390e+00
2.731440854367467863e-01 9.254137986138744054e-01
2.741846343334121694e-01 8.186925935962996448e-01
2.752251832300775525e-01 1.029477620448311370e+00
2.762657321267429356e-01 1.092197111387473996e+00
2.773062810234083186e-01 9.980973341784462605e-01
2.783468299200737017e-01 8.372763227291279975e-01
2.793873788167390848e-01 7.045875366814335905e-01
2.804279277134044679e-01 8.403918580432936380e-01
2.814684766100698510e-01 1.037092152827433722e+00
2.825090255067352341e-01 9.177131571165766388e-01
2.835495744034006171e-01 8.132481896552192779e-01
2.845901233000660002e-01 6.885732947874458887e-01
2.856306721967313833e-01 6.025357126011172682e-01
2.866712210933967664e-01 6.531751156239415934e-01
2.877117699900621495e-01 9.542298635254162775e-01
2.887523188867275326e-01 1.042159383111879833e+00
2.897928677833929156e-01 1.081150650785250633e+00
2.908334166800582987e-01 9.269609560207996424e-01
2.918739655767236818e-01 8.556952677472615676e-01
2.929145144733890649e-01 8.268591931157445174e-01
2.939550633700544480e-01 9.221357109124070917e-01
2.949956122667198311e-01 9.176530709253718499e-01
2.960361611633852141e-01 8.195801946255798498e-01
2.970767100600505972e-01 1.029979301663097147e+00
2.981172589567159803e-01 9.024931628821235563e-01
2.991578078533813634e-01 5.993720237131014983e-01
3.001983567500468020e-01 7.364153846325081076e-01
3.012389056467121851e-01 9.923950224457414038e-01
3.022794545433775681e-01 9.594522816785975294e-01
3.033200034400429512e-01 8.535807218218387504e-01
3.043605523367083343e-01 8.709616254177667827e-01
3.054011012333737174e-01 1.019690803484287756e+00
3.064416501300391005e-01 9.131629555936306986e-01
3.074821990267044836e-01 7.916612638941273872e-01
3.085227479233698666e-01 8.699561877085386641e-01
3.095632968200352497e-01 9.483131358295828761e-01
3.106038457167006328e-01 9.935206663073756772e-01
3.116443946133660159e-01 1.101387248986856804e+00
3.126849435100313990e-01 1.049082984054876988e+00
3.137254924066967821e-01 9.535144133788939769e-01
3.147660413033621651e-01 7.749789454836424341e-01
3.158065902000275482e-01 8.830236346932558433e-01
3.168471390966929313e-01 8.429559766143484012e-01
3.178876879933583144e-01 7.513553884835850738e-01
3.189282368900236975e-01 9.293261613907404239e-01
3.199687857866890806e-01 1.010614063252326389e+00
3.210093346833544636e-01 9.282481568892535506e-01
3.220498835800198467e-01 8.857673726105410594e-01
3.230904324766852298e-01 5.677612810947110233e-01
3.241309813733506129e-01 4.217513282671419006e-01
3.251715302700159960e-01 8.010728468065551056e-01
3.262120791666813790e-01 5.612598077902291038e-01
3.272526280633467621e-01 7.430611041714989540e-01
3.282931769600121452e-01 7.717552383789865189e-01
3.293337258566775283e-01 8.508054256658184045e-01
3.303742747533429114e-01 8.198742848805444794e-01
3.314148236500082945e-01 8.957001497543899404e-01
3.324553725466736775e-01 8.593865248072560803e-01
3.334959214433390606e-01 6.400983604775447589e-01
3.345364703400044437e-01 6.806610827995172031e-01
3.355770192366698268e-01 8.291654450847367741e-01
3.366175681333352099e-01 7.372764509033480351e-01
3.376581170300005930e-01 7.865707839896352027e-01
3.386986659266659760e-01 9.165014255313259639e-01
3.397392148233313591e-01 8.701338392627491203e-01
3.407797637199967422e-01 7.869128855772409281e-01
3.418203126166621253e-01 8.598300169229240453e-01
3.428608615133275084e-01 9.162335049262075870e-01
3.439014104099928915e-01 8.178850498796030877e-01
3.449419593066582745e-01 7.508888687131296535e-01
3.459825082033236576e-01 5.377371783257665072e-01
3.470230570999890407e-01 6.071600978492526224e-01
3.480636059966544238e-01 5.389404424540416016e-01
3.491041548933198069e-01 7.920700887459908301e-01
3.501447037899851900e-01 6.349119403638461279e-01
3.511852526866505730e-01 7.161758245549485480e-01
3.522258015833159561e-01 8.628317030805163768e-01
3.532663504799813392e-01 6.582702156033519714e-01
3.543068993766467223e-01 6.698814413122953226e-01
3.553474482733121054e-01 4.989658021115097597e-01
3.563879971699774885e-01 3.997860594918343224e-01
3.574285460666428715e-01 3.406568133876461957e-01
3.584690949633082546e-01 2.137196474890998843e-01
3.595096438599736377e-01 0.000000000000000000e+00
3.605501927566390208e-01 2.320414537765316254e-01
3.615907416533044039e-01 3.929991868504103536e-01
3.626312905499697870e-01 2.634660339748329250e-01
3.636718394466351700e-01 2.555363254656910499e-01
3.647123883433005531e-01 3.492162133000284996e-01
3.657529372399659362e-01 6.305104408506103653e-01
3.667934861366313193e-01 5.292369340643752196e-01
3.678340350332967024e-01 4.427505595305412101e-01
3.688745839299620854e-01 5.582404300377881157e-01
3.699151328266274685e-01 3.312513024776073678e-01
3.709556817232928516e-01 4.308933372974017573e-01
3.719962306199582347e-01 4.618544100447437017e-01
3.730367795166236178e-01 3.956503140542224628e-01
3.740773284132890009e-01 3.853936980873164941e-01
3.751178773099543839e-01 2.827879285765249051e-01
3.761584262066197670e-01 3.284955812310919043e-01
3.771989751032851501e-01 5.508840122890887869e-01
3.782395239999505332e-01 4.711089546929443372e-01
3.792800728966159163e-01 4.049126560118274654e-01
3.803206217932812994e-01 4.012373726893869730e-01
3.813611706899466824e-01 4.451980109342912328e-01
3.824017195866120655e-01 4.873582018908386715e-01
3.834422684832774486e-01 4.801168760353036191e-01
3.844828173799428317e-01 3.022525358743202162e-01
3.855233662766082148e-01 3.442782623853375412e-01
3.865639151732735979e-01 4.416396533468827101e-01
3.876044640699389809e-01 4.789505625184062865e-01
3.886450129666043640e-01 4.526776453969461045e-01
3.896855618632697471e-01 5.884334827774608812e-01
3.907261107599351302e-01 5.608860234690844493e-01
3.917666596566005133e-01 4.970912668149729541e-01
3.928072085532658964e-01 5.600259648565710791e-01
3.938477574499312794e-01 6.892422051732474131e-01
3.948883063465966625e-01 7.859220915066558177e-01
3.959288552432620456e-01 6.415399748159309468e-01
3.969694041399274287e-01 6.016051873045284992e-01
3.980099530365928118e-01 7.363035874413697002e-01
3.990505019332581949e-01 6.107489759108979399e-01
4.000910508299235779e-01 3.721915917753015890e-01
4.011315997265889610e-01 5.184561657949835478e-01
4.021721486232543441e-01 5.140168714770823044e-01
4.032126975199197272e-01 2.565223375206002743e-01
4.042532464165851103e-01 4.478826842317218393e-01
4.052937953132504934e-01 5.382411749308104731e-01
4.063343442099158764e-01 1.363433559273090623e-01
4.073748931065812595e-01 2.358810799862069985e-01
4.084154420032466426e-01 5.251237336346541440e-01
4.094559908999120257e-01 4.093325564274401529e-01
4.104965397965774088e-01 4.595348350885046784e-01
4.115370886932427918e-01 6.323827089905904586e-01
4.125776375899081749e-01 7.615837018989068952e-01
4.136181864865735580e-01 6.570806788234939688e-01
4.146587353832389411e-01 3.871540391195686936e-01
4.156992842799043242e-01 4.201307055526228851e-01
4.167398331765697073e-01 5.180418963400228449e-01
4.177803820732350903e-01 6.169473724041480978e-01
4.188209309699004734e-01 6.412572650912338190e-01
4.198614798665658565e-01 3.739529116166089295e-01
4.209020287632312396e-01 4.518529074933006484e-01
4.219425776598966227e-01 5.543365453399040632e-01
4.229831265565620058e-01 4.476285224843614685e-01
4.240236754532273888e-01 3.603724137994994692e-01
4.250642243498927719e-01 6.600100544111242584e-01
4.261047732465581550e-01 6.678905888863972962e-01
4.271453221432235381e-01 4.344140638068694216e-01
4.281858710398889212e-01 4.208649217307751655e-01
4.292264199365543043e-01 5.520155229779852846e-01
4.302669688332196873e-01 2.986593250633369223e-01
4.313075177298850704e-01 4.072795340225852101e-01
4.323480666265504535e-01 5.105676057368100373e-01
4.333886155232158366e-01 3.814044567628123161e-01
4.344291644198812197e-01 5.328283262347532911e-01
