# q (1/Angstrom), Intensity (arb)
2.029070354705860696e-02 9.737630482028686174e+02
2.133125244372399004e-02 8.665897204363564015e+02
2.237180134038937659e-02 7.804465046792299745e+02
2.341235023705475968e-02 7.087810294186672309e+02
2.445289913372014276e-02 6.486111761001164950e+02
2.549344803038552584e-02 5.974423394100252835e+02
2.653399692705091240e-02 5.595253520146022765e+02
2.757454582371629548e-02 5.287475446484393160e+02
2.861509472038167856e-02 5.013864334634728834e+02
2.965564361704706164e-02 4.800383709169495887e+02
3.069619251371244473e-02 4.634902653771844143e+02
3.173674141037782781e-02 4.536624363734086955e+02
3.277729030704321089e-02 4.422585795383870391e+02
3.381783920370859398e-02 4.335523634836573592e+02
3.485838810037397706e-02 4.289973159158609519e+02
3.589893699703936014e-02 4.258252111942817351e+02
3.693948589370474322e-02 4.278480322939967664e+02
3.798003479037012631e-02 4.316774591792414526e+02
3.902058368703550939e-02 4.378979165559377407e+02
4.006113258370089247e-02 4.472453831202000174e+02
4.110168148036627556e-02 4.594002992882302578e+02
4.214223037703165864e-02 4.789651956918984865e+02
4.318277927369704866e-02 5.074882700508159701e+02
4.422332817036243174e-02 5.424452302556588847e+02
4.526387706702781483e-02 5.903851996343224755e+02
4.630442596369319791e-02 6.754478906250923274e+02
4.734497486035858099e-02 8.339940017571010458e+02
4.838552375702396408e-02 1.161665746647505102e+03
4.942607265368934716e-02 1.744638872891299343e+03
5.046662155035473024e-02 2.647030373966728348e+03
5.150717044702011332e-02 4.094282955187702100e+03
5.254771934368549641e-02 5.123753396933592740e+03
5.358826824035087949e-02 4.505614702472509634e+03
5.462881713701626257e-02 3.505376245194365310e+03
5.566936603368164566e-02 3.175046631789527964e+03
5.670991493034702874e-02 3.220740467116341279e+03
5.775046382701241182e-02 3.363046320613636908e+03
5.879101272367779490e-02 3.494938293697016434e+03
5.983156162034317799e-02 3.547822105829740849e+03
6.087211051700856107e-02 3.452166152533067816e+03
6.191265941367394415e-02 3.217957810544920903e+03
6.295320831033933417e-02 2.936196051975328828e+03
6.399375720700471726e-02 2.656563636058803695e+03
6.503430610367010034e-02 2.372213868495553470e+03
6.607485500033548342e-02 2.081531771781132647e+03
6.711540389700086651e-02 1.799401738741531062e+03
6.815595279366624959e-02 1.538385142188537429e+03
6.919650169033163267e-02 1.297467082542418439e+03
7.023705058699701576e-02 1.081993956317317952e+03
7.127759948366239884e-02 8.978843090080694083e+02
7.231814838032778192e-02 7.431382826041282215e+02
7.335869727699316500e-02 6.151659457047287560e+02
7.439924617365854809e-02 5.098825904725484861e+02
7.543979507032393117e-02 4.230458834889993796e+02
7.648034396698931425e-02 3.560660012995746229e+02
7.752089286365469734e-02 3.015666306793949616e+02
7.856144176032008042e-02 2.592842235235767134e+02
7.960199065698546350e-02 2.264661078074821603e+02
8.064253955365084658e-02 2.029967036480193201e+02
8.168308845031622967e-02 1.909168217057201673e+02
8.272363734698161275e-02 1.968053054905239492e+02
8.376418624364699583e-02 2.389753743731949669e+02
8.480473514031239279e-02 3.212234572091903146e+02
8.584528403697777588e-02 3.720196369348578855e+02
8.688583293364315896e-02 3.155216355658128577e+02
8.792638183030854204e-02 2.294470175877212341e+02
8.896693072697392513e-02 1.851752573325685489e+02
9.000747962363930821e-02 1.696963755203335324e+02
9.104802852030469129e-02 1.646438748139041195e+02
9.208857741697007437e-02 1.656460596315769465e+02
9.312912631363545746e-02 1.684120781555543545e+02
9.416967521030084054e-02 1.759559147084058850e+02
9.521022410696622362e-02 1.838002181263544799e+02
9.625077300363160671e-02 1.961113035205254391e+02
9.729132190029698979e-02 2.206319593871447182e+02
9.833187079696237287e-02 2.674821056802575754e+02
9.937241969362775595e-02 3.421395128072297780e+02
1.004129685902931390e-01 3.951309639843953505e+02
1.014535174869585221e-01 3.618705426042870386e+02
1.024940663836239052e-01 2.908379734907161378e+02
1.035346152802892883e-01 2.499558771543551359e+02
1.045751641769546714e-01 2.359261970761043017e+02
1.056157130736200545e-01 2.203054279087810414e+02
1.066562619702854375e-01 1.999266050937945352e+02
1.076968108669508206e-01 1.888026283487294279e+02
1.087373597636162037e-01 1.854257156965427953e+02
1.097779086602815868e-01 1.839582703038936415e+02
1.108184575569469699e-01 1.841963874772209522e+02
1.118590064536123529e-01 1.842681973318284747e+02
1.128995553502777360e-01 1.837339974058882035e+02
1.139401042469431191e-01 1.810815737736571407e+02
1.149806531436085022e-01 1.774729373628405824e+02
1.160212020402738853e-01 1.720275936761399294e+02
1.170617509369392684e-01 1.656081994517662679e+02
1.181022998336046514e-01 1.577186058712551642e+02
1.191428487302700345e-01 1.482806389976109358e+02
1.201833976269354176e-01 1.388891783537765150e+02
1.212239465236008007e-01 1.286948425731515613e+02
1.222644954202661838e-01 1.198465148654262009e+02
1.233050443169315669e-01 1.102668450418768202e+02
1.243455932135969499e-01 1.005559423108114459e+02
1.253861421102623330e-01 9.369889200658511186e+01
1.264266910069277161e-01 8.612242453102231821e+01
1.274672399035930992e-01 7.925071994725253433e+01
1.285077888002584823e-01 7.439319287350393495e+01
1.295483376969238654e-01 7.316929306225236473e+01
1.305888865935892484e-01 7.552625949785704051e+01
1.316294354902546315e-01 8.082396793897167697e+01
1.326699843869200146e-01 8.412281751876383851e+01
1.337105332835853977e-01 8.478547073017313096e+01
1.347510821802507808e-01 8.534016899212376472e+01
1.357916310769161639e-01 8.059964341240305430e+01
1.368321799735815469e-01 6.623884390042567816e+01
1.378727288702469300e-01 5.130243218137816541e+01
1.389132777669123131e-01 4.248010685913057927e+01
1.399538266635776962e-01 3.806416732366128741e+01
1.409943755602430793e-01 3.564464798828876724e+01
1.420349244569084624e-01 3.408352094255819509e+01
1.430754733535738454e-01 3.340385977499607151e+01
1.441160222502392285e-01 3.394673634619113045e+01
1.451565711469046116e-01 3.529680139606720957e+01
1.461971200435699947e-01 3.765761232997128616e+01
1.472376689402353778e-01 4.095441478110267752e+01
1.482782178369007609e-01 4.305954192398685620e+01
1.493187667335661439e-01 4.286341481374272178e+01
1.503593156302315270e-01 4.016368351054280339e+01
1.513998645268969101e-01 3.641610919348083542e+01
1.524404134235622932e-01 3.409358203711810376e+01
1.534809623202276763e-01 3.379452659084482491e+01
1.545215112168930593e-01 3.359891092666646273e+01
1.555620601135584424e-01 3.395042785592484336e+01
1.566026090102238255e-01 3.413814406142239477e+01
1.576431579068892086e-01 3.286555252036893648e+01
1.586837068035545917e-01 3.116647640182328871e+01
1.597242557002199748e-01 2.909931884983262051e+01
1.607648045968853578e-01 2.735613591517614651e+01
1.618053534935507409e-01 2.666144805079242275e+01
1.628459023902161240e-01 2.617000689554928172e+01
1.638864512868815071e-01 2.540309038914984896e+01
1.649270001835468902e-01 2.420265610169987269e+01
1.659675490802122733e-01 2.342427222203225057e+01
1.670080979768776563e-01 2.316287820367529804e+01
1.680486468735430672e-01 2.322729211092955381e+01
1.690891957702084503e-01 2.306145813197646532e+01
1.701297446668738333e-01 2.244734633143129088e+01
1.711702935635392164e-01 2.215047324298657472e+01
1.722108424602045995e-01 2.195951079887877455e+01
1.732513913568699826e-01 2.107226877942763466e+01
1.742919402535353657e-01 2.102437539989466941e+01
1.753324891502007488e-01 2.077801940413047888e+01
1.763730380468661318e-01 2.076804276046391351e+01
1.774135869435315149e-01 2.221604094681550734e+01
1.784541358401968980e-01 2.447712483185465970e+01
1.794946847368622811e-01 2.536356003857701324e+01
1.805352336335276642e-01 2.504856337800696053e+01
1.815757825301930473e-01 2.362283557534056655e+01
1.826163314268584303e-01 2.147140294229306079e+01
1.836568803235238134e-01 1.913145284711585603e+01
1.846974292201891965e-01 1.731874092549427502e+01
1.857379781168545796e-01 1.599766184053270024e+01
1.867785270135199627e-01 1.515446235858190960e+01
1.878190759101853458e-01 1.469792922912488109e+01
1.888596248068507288e-01 1.433535773912688427e+01
1.899001737035161119e-01 1.432349867067809157e+01
1.909407226001814950e-01 1.399091953350211170e+01
1.919812714968468781e-01 1.383548896450564314e+01
1.930218203935122612e-01 1.361221570071154474e+01
1.940623692901776443e-01 1.270064995369644123e+01
1.951029181868430273e-01 1.206798045247538909e+01
1.961434670835084104e-01 1.190988400130504488e+01
1.971840159801737935e-01 1.180668707907349102e+01
1.982245648768391766e-01 1.170556265775445937e+01
1.992651137735045597e-01 1.240964660530850239e+01
2.003056626701699428e-01 1.211740865490212826e+01
2.013462115668353813e-01 1.085982701371911219e+01
2.023867604635007644e-01 1.024584571799167776e+01
2.034273093601661475e-01 9.506891269252257359e+00
2.044678582568315306e-01 8.876349306535402661e+00
2.055084071534969137e-01 8.372836117419527824e+00
2.065489560501622968e-01 8.294848404444636003e+00
2.075895049468276798e-01 8.131219190953085985e+00
2.086300538434930629e-01 7.620521707264376943e+00
2.096706027401584460e-01 7.673984309660777825e+00
2.107111516368238291e-01 7.294173873848325940e+00
2.117517005334892122e-01 6.857301088670745060e+00
2.127922494301545953e-01 7.106713860772593705e+00
2.138327983268199783e-01 7.264902980032882596e+00
2.148733472234853614e-01 7.119477395944905140e+00
2.159138961201507445e-01 6.712122271366336435e+00
2.169544450168161276e-01 6.705786616322484406e+00
2.179949939134815107e-01 6.878575051028832377e+00
2.190355428101468938e-01 6.811535700103391378e+00
2.200760917068122768e-01 6.617464302090958483e+00
2.211166406034776599e-01 6.571042675610904382e+00
2.221571895001430430e-01 6.987303200588332430e+00
2.231977383968084261e-01 6.960096599339404833e+00
2.242382872934738092e-01 7.001544455774503461e+00
2.252788361901391923e-01 7.120137944335819924e+00
2.263193850868045753e-01 7.217114064010658581e+00
2.273599339834699584e-01 7.425392063241410767e+00
2.284004828801353415e-01 7.729855451044400638e+00
2.294410317768007246e-01 7.395950085646568084e+00
2.304815806734661077e-01 7.250788417471682124e+00
2.315221295701314908e-01 7.649734431799743106e+00
2.325626784667968738e-01 7.595824009896013251e+00
2.336032273634622569e-01 7.112620780933422537e+00
2.346437762601276400e-01 6.650429139502900711e+00
2.356843251567930231e-01 6.181936100136155687e+00
2.367248740534584062e-01 5.650574128056010892e+00
2.377654229501237892e-01 5.100746188048475460e+00
2.388059718467891723e-01 4.908017361058863770e+00
2.398465207434545554e-01 4.782983806425757933e+00
2.408870696401199385e-01 4.899021972262623592e+00
2.419276185367853216e-01 4.959459076062131544e+00
2.429681674334507047e-01 4.702363413227168110e+00
2.440087163301160877e-01 4.770128662280285425e+00
2.450492652267814708e-01 4.712764666609103870e+00
2.460898141234468539e-01 4.831649219684440055e+00
2.471303630201122370e-01 4.702273791498441824e+00
2.481709119167776201e-01 4.327824530814091020e+00
2.492114608134430032e-01 4.322420354559884714e+00
2.502520097101083585e-01 4.427148599089704817e+00
2.512925586067737416e-01 4.369529644402270208e+00
2.523331075034391247e-01 4.180769759160966714e+00
2.533736564001045077e-01 3.663671469559044880e+00
2.544142052967698908e-01 3.464458927211566674e+00
2.554547541934352739e-01 3.616434055348516807e+00
2.564953030901006570e-01 3.246655120334487776e+00
2.575358519867660401e-01 3.372363726989949129e+00
2.585764008834314231e-01 3.333056559576714761e+00
2.596169497800968062e-01 3.490661951801936169e+00
2.606574986767621893e-01 3.646387236351255723e+00
2.616980475734275724e-01 3.333380330184283480e+00
2.627385964700929555e-01 2.889686149751419464e+00
2.637791453667583386e-01 2.873270914370902318e+00
2.648196942634237216e-01 3.035137781248618438e+00
2.658602431600891047e-01 2.803801520210686959e+00
2.669007920567544878e-01 2.751540730585460892e+00
2.679413409534198709e-01 2.745962599738927423e+00
2.689818898500852540e-01 2.814343430203845031e+00
2.700224387467506371e-01 2.910313127882577788e+00
2.710629876434160201e-01 3.338256194826961121e+00
2.721035365400814032e-01 3.244797396799299349e+00
2.731440854367467863e-01 2.984728540530088736e+00
2.741846343334121694e-01 3.152686906798148669e+00
2.752251832300775525e-01 3.311764573065033801e+00
2.762657321267429356e-01 3.560346352196624764e+00
2.773062810234083186e-01 3.541624952888618338e+00
2.783468299200737017e-01 3.053956576998004380e+00
2.793873788167390848e-01 2.973037531908449438e+00
2.804279277134044679e-01 2.950349543353969040e+00
2.814684766100698510e-01 2.998929545037032796e+00
2.825090255067352341e-01 2.971799264369298754e+00
2.835495744034006171e-01 2.990617181538929970e+00
2.845901233000660002e-01 2.892518257500938716e+00
2.856306721967313833e-01 2.865505629235990170e+00
2.866712210933967664e-01 2.823506675342649430e+00
2.877117699900621495e-01 2.764036184780536587e+00
2.887523188867275326e-01 2.836916933629424875e+00
2.897928677833929156e-01 2.669996780653157487e+00
2.908334166800582987e-01 2.681714550017471055e+00
2.918739655767236818e-01 2.689604360274927330e+00
2.929145144733890649e-01 2.466713293291110887e+00
2.939550633700544480e-01 2.168780082867971970e+00
2.949956122667198311e-01 2.340514928400615702e+00
2.960361611633852141e-01 2.571793467079569240e+00
2.970767100600505972e-01 2.373504200753124849e+00
2.981172589567159803e-01 2.074165750248781137e+00
2.991578078533813634e-01 2.256047537247493295e+00
3.001983567500468020e-01 2.008368327547380261e+00
3.012389056467121851e-01 2.031878707287017249e+00
3.022794545433775681e-01 2.048565741715570709e+00
3.033200034400429512e-01 1.971497233806154270e+00
3.043605523367083343e-01 2.033688904721465462e+00
3.054011012333737174e-01 1.974343471020254981e+00
3.064416501300391005e-01 2.007955408672120967e+00
3.074821990267044836e-01 1.781250212384115628e+00
3.085227479233698666e-01 1.531742590754621602e+00
3.095632968200352497e-01 1.454575456103267328e+00
3.106038457167006328e-01 1.544686096747149406e+00
3.116443946133660159e-01 1.532559830544819590e+00
3.126849435100313990e-01 1.695854139309318498e+00
3.137254924066967821e-01 1.590263672389582439e+00
3.147660413033621651e-01 1.508561115997490987e+00
3.158065902000275482e-01 1.650088558745490985e+00
3.168471390966929313e-01 1.573064879855742504e+00
3.178876879933583144e-01 1.834423588647062786e+00
3.189282368900236975e-01 1.977171528050106986e+00
3.199687857866890806e-01 1.941678172522532719e+00
3.210093346833544636e-01 1.857006999691115823e+00
3.220498835800198467e-01 1.704350296827264799e+00
3.230904324766852298e-01 1.928490634592957775e+00
3.241309813733506129e-01 1.822024276466386539e+00
3.251715302700159960e-01 1.909047660349479258e+00
3.262120791666813790e-01 1.726853108767937073e+00
3.272526280633467621e-01 1.698376895172941659e+00
3.282931769600121452e-01 1.861471848923514472e+00
3.293337258566775283e-01 1.806523600674584173e+00
3.303742747533429114e-01 2.000952214341452873e+00
3.314148236500082945e-01 1.970590231803033276e+00
3.324553725466736775e-01 1.557401571919125871e+00
3.334959214433390606e-01 1.695118344494350282e+00
3.345364703400044437e-01 1.445468063324753416e+00
3.355770192366698268e-01 1.521073311589553612e+00
3.366175681333352099e-01 1.632697833521785213e+00
3.376581170300005930e-01 1.513076264358112155e+00
3.386986659266659760e-01 1.411825430753332000e+00
3.397392148233313591e-01 1.520094318121532950e+00
3.407797637199967422e-01 1.487504863814027800e+00
3.418203126166621253e-01 1.691831411237409100e+00
3.428608615133275084e-01 1.634069054716078995e+00
3.439014104099928915e-01 1.454947490185446668e+00
3.449419593066582745e-01 1.781514004947322150e+00
3.459825082033236576e-01 1.729469171731583543e+00
3.470230570999890407e-01 1.745725494765469676e+00
3.480636059966544238e-01 1.609283515227989625e+00
3.491041548933198069e-01 1.298159422088339454e+00
3.501447037899851900e-01 1.555060729233016303e+00
3.511852526866505730e-01 1.693296571368136938e+00
3.522258015833159561e-01 1.436892528321575213e+00
3.532663504799813392e-01 1.222446730270274173e+00
3.543068993766467223e-01 1.261467675774419206e+00
3.553474482733121054e-01 1.056916407919210599e+00
3.563879971699774885e-01 1.259679064913665769e+00
3.574285460666428715e-01 1.316951347290164165e+00
3.584690949633082546e-01 1.276895818289556672e+00
3.595096438599736377e-01 1.512311707040502995e+00
3.605501927566390208e-01 1.660571867858784856e+00
3.615907416533044039e-01 1.460855007599462851e+00
3.626312905499697870e-01 1.257073754276387234e+00
3.636718394466351700e-01 1.271672609596166126e+00
3.647123883433005531e-01 1.247724825626633560e+00
3.657529372399659362e-01 1.038810036161596173e+00
3.667934861366313193e-01 1.151986692677358093e+00
3.678340350332967024e-01 1.136844235024653926e+00
3.688745839299620854e-01 1.340499778048751978e+00
3.699151328266274685e-01 1.312056830452075218e+00
3.709556817232928516e-01 1.400014825507756910e+00
3.719962306199582347e-01 1.462573992601413408e+00
3.730367795166236178e-01 1.408024627229185199e+00
3.740773284132890009e-01 1.497552969181832339e+00
3.751178773099543839e-01 1.375877528826332963e+00
3.761584262066197670e-01 1.251293582123071957e+00
3.771989751032851501e-01 1.184906572675586744e+00
3.782395239999505332e-01 1.379769748871140678e+00
3.792800728966159163e-01 1.237632861113386440e+00
3.803206217932812994e-01 1.280335870512658403e+00
3.813611706899466824e-01 1.253383113210329469e+00
3.824017195866120655e-01 1.376431628004446850e+00
3.834422684832774486e-01 1.361516339138194809e+00
3.844828173799428317e-01 1.122937631026942995e+00
3.855233662766082148e-01 1.179677144742562689e+00
3.865639151732735979e-01 1.288378695788214401e+00
3.876044640699389809e-01 1.213652178296978690e+00
3.886450129666043640e-01 1.149781635000117319e+00
3.896855618632697471e-01 1.268575696553735810e+00
3.907261107599351302e-01 1.084642349582509269e+00
3.917666596566005133e-01 9.542047664707986598e-01
3.928072085532658964e-01 8.483058948444934799e-01
3.938477574499312794e-01 9.466435183508643547e-01
3.948883063465966625e-01 9.444205017776035049e-01
3.959288552432620456e-01 1.086922086206680405e+00
3.969694041399274287e-01 9.533620060645837668e-01
3.980099530365928118e-01 1.058918932521955014e+00
3.990505019332581949e-01 1.087332334922670896e+00
4.000910508299235779e-01 9.812985007496415335e-01
4.011315997265889610e-01 9.730384389925212929e-01
4.021721486232543441e-01 1.015624188487766588e+00
4.032126975199197272e-01 1.022789270736804923e+00
4.042532464165851103e-01 9.444644536001121082e-01
4.052937953132504934e-01 9.564524168772585710e-01
4.063343442099158764e-01 8.298027861663612725e-01
4.073748931065812595e-01 6.713466954210858262e-01
4.084154420032466426e-01 6.644558304588272790e-01
4.094559908999120257e-01 6.898307619313293060e-01
4.104965397965774088e-01 8.764087585732305286e-01
4.115370886932427918e-01 8.504072145622778578e-01
4.125776375899081749e-01 7.826510825592123410e-01
4.136181864865735580e-01 8.492089174724561929e-01
4.146587353832389411e-01 8.233371242301359416e-01
4.156992842799043242e-01 8.805851217795073183e-01
4.167398331765697073e-01 9.725453984258471962e-01
4.177803820732350903e-01 8.285777808755376839e-01
4.188209309699004734e-01 6.158140187305711777e-01
4.198614798665658565e-01 8.637140180647158161e-01
4.209020287632312396e-01 1.021058959879592720e+00
4.219425776598966227e-01 7.153924157654749649e-01
4.229831265565620058e-01 5.926935417763026237e-01
4.240236754532273888e-01 6.951724890664259249e-01
4.250642243498927719e-01 8.407590453919162599e-01
4.261047732465581550e-01 8.306475352164248704e-01
4.271453221432235381e-01 9.309708124749178637e-01
4.281858710398889212e-01 8.054359648225464241e-01
4.292264199365543043e-01 6.963027236035088663e-01
4.302669688332196873e-01 7.542656667966944894e-01
4.313075177298850704e-01 9.492079996349502835e-01
4.323480666265504535e-01 8.882552058475390311e-01
4.333886155232158366e-01 8.953927725662929049e-01
4.344291644198812197e-01 8.556746368079757303e-01
