# q (1/Angstrom), Intensity (arb)
2.029070354705860696e-02 9.389636834743587315e+02
2.133125244372399004e-02 8.350475638681082273e+02
2.237180134038937659e-02 7.538078764417010689e+02
2.341235023705475968e-02 6.846994797869704144e+02
2.445289913372014276e-02 6.268550482166366464e+02
2.549344803038552584e-02 5.839798188105514782e+02
2.653399692705091240e-02 5.455926378101511318e+02
2.757454582371629548e-02 5.183824449299680737e+02
2.861509472038167856e-02 4.927483649778243944e+02
2.965564361704706164e-02 4.708865588907040660e+02
3.069619251371244473e-02 4.562018729690438477e+02
3.173674141037782781e-02 4.449787609935033288e+02
3.277729030704321089e-02 4.339615452841703700e+02
3.381783920370859398e-02 4.267222778644635355e+02
3.485838810037397706e-02 4.245135238012723562e+02
3.589893699703936014e-02 4.224467387150577906e+02
3.693948589370474322e-02 4.228691502171964771e+02
3.798003479037012631e-02 4.259598338241906959e+02
3.902058368703550939e-02 4.325941118656496087e+02
4.006113258370089247e-02 4.454566267753148168e+02
4.110168148036627556e-02 4.608835963181718967e+02
4.214223037703165864e-02 4.813110738509283806e+02
4.318277927369704866e-02 5.097931091222571354e+02
4.422332817036243174e-02 5.478733572400778939e+02
4.526387706702781483e-02 6.065361642535006013e+02
4.630442596369319791e-02 7.004483747032861629e+02
4.734497486035858099e-02 8.820939160086202264e+02
4.838552375702396408e-02 1.257530558507646674e+03
4.942607265368934716e-02 1.911076063646455395e+03
5.046662155035473024e-02 2.942474844533824125e+03
5.150717044702011332e-02 4.511492388324270905e+03
5.254771934368549641e-02 5.305560931416338462e+03
5.358826824035087949e-02 4.423148482931782382e+03
5.462881713701626257e-02 3.503201787626674559e+03
5.566936603368164566e-02 3.279790134444799605e+03
5.670991493034702874e-02 3.357607987261266317e+03
5.775046382701241182e-02 3.510219739752744317e+03
5.879101272367779490e-02 3.642844855216018004e+03
5.983156162034317799e-02 3.678600864040772194e+03
6.087211051700856107e-02 3.540632518284075104e+03
6.191265941367394415e-02 3.274211991817346188e+03
6.295320831033933417e-02 2.977815494847888658e+03
6.399375720700471726e-02 2.678014539469388183e+03
6.503430610367010034e-02 2.377108434187664898e+03
6.607485500033548342e-02 2.074121211833631151e+03
6.711540389700086651e-02 1.790216708004734983e+03
6.815595279366624959e-02 1.524742864638940773e+03
6.919650169033163267e-02 1.282385005871931753e+03
7.023705058699701576e-02 1.066336629742025707e+03
7.127759948366239884e-02 8.825092205236172731e+02
7.231814838032778192e-02 7.274282242455973346e+02
7.335869727699316500e-02 6.005391578118640155e+02
7.439924617365854809e-02 5.005953807389325902e+02
7.543979507032393117e-02 4.172954967020262984e+02
7.648034396698931425e-02 3.524293400874747135e+02
7.752089286365469734e-02 2.995714591205572219e+02
7.856144176032008042e-02 2.572836184729475804e+02
7.960199065698546350e-02 2.260259397530641081e+02
8.064253955365084658e-02 2.041906246126924600e+02
8.168308845031622967e-02 1.958086529645173357e+02
8.272363734698161275e-02 2.075928193897579206e+02
8.376418624364699583e-02 2.594811611140185619e+02
8.480473514031239279e-02 3.425409670226727599e+02
8.584528403697777588e-02 3.624125864777655011e+02
8.688583293364315896e-02 2.865813146761251460e+02
8.792638183030854204e-02 2.121621453869402103e+02
8.896693072697392513e-02 1.786287249814830318e+02
9.000747962363930821e-02 1.686242313240958310e+02
9.104802852030469129e-02 1.659409919032432015e+02
9.208857741697007437e-02 1.674399800269827381e+02
9.312912631363545746e-02 1.718292185270771597e+02
9.416967521030084054e-02 1.791246751894877320e+02
9.521022410696622362e-02 1.888352546038509558e+02
9.625077300363160671e-02 2.046854364485046460e+02
9.729132190029698979e-02 2.361698039698385969e+02
9.833187079696237287e-02 2.984464089756181124e+02
9.937241969362775595e-02 3.793492300281240546e+02
1.004129685902931390e-01 4.063934294048621609e+02
1.014535174869585221e-01 3.461613523656621965e+02
1.024940663836239052e-01 2.779882506425543625e+02
1.035346152802892883e-01 2.474951483564613000e+02
1.045751641769546714e-01 2.351686910528020462e+02
1.056157130736200545e-01 2.172127889102568759e+02
1.066562619702854375e-01 1.993938403653774856e+02
1.076968108669508206e-01 1.908911694584564884e+02
1.087373597636162037e-01 1.891105902170530726e+02
1.097779086602815868e-01 1.896258880393994843e+02
1.108184575569469699e-01 1.910976929297404752e+02
1.118590064536123529e-01 1.916751474094029959e+02
1.128995553502777360e-01 1.886354555304412770e+02
1.139401042469431191e-01 1.851002659971006210e+02
1.149806531436085022e-01 1.798807194056712149e+02
1.160212020402738853e-01 1.742162478440540951e+02
1.170617509369392684e-01 1.669015998289443417e+02
1.181022998336046514e-01 1.581662982020683046e+02
1.191428487302700345e-01 1.476479717995197802e+02
1.201833976269354176e-01 1.385103458901378701e+02
1.212239465236008007e-01 1.290671076375384700e+02
1.222644954202661838e-01 1.191605431089771514e+02
1.233050443169315669e-01 1.099633836592377776e+02
1.243455932135969499e-01 1.008327823338172209e+02
1.253861421102623330e-01 9.298923715263578060e+01
1.264266910069277161e-01 8.579321204867926554e+01
1.274672399035930992e-01 7.922881991399988522e+01
1.285077888002584823e-01 7.555263035762381207e+01
1.295483376969238654e-01 7.593189036759574151e+01
1.305888865935892484e-01 7.913322640750220671e+01
1.316294354902546315e-01 8.263430890664218964e+01
1.326699843869200146e-01 8.383779382734603303e+01
1.337105332835853977e-01 8.510617124094174812e+01
1.347510821802507808e-01 8.445692188125570965e+01
1.357916310769161639e-01 7.492540702268159691e+01
1.368321799735815469e-01 5.964280155905478864e+01
1.378727288702469300e-01 4.698749432026753681e+01
1.389132777669123131e-01 3.992020859591575288e+01
1.399538266635776962e-01 3.679282304981188645e+01
1.409943755602430793e-01 3.539258195461851386e+01
1.420349244569084624e-01 3.477325908198284310e+01
1.430754733535738454e-01 3.420852893358423330e+01
1.441160222502392285e-01 3.464226259835103150e+01
1.451565711469046116e-01 3.659411730018148035e+01
1.461971200435699947e-01 4.021125795502430833e+01
1.472376689402353778e-01 4.395928593001637097e+01
1.482782178369007609e-01 4.488371246538982007e+01
1.493187667335661439e-01 4.233160011331317918e+01
1.503593156302315270e-01 3.856539641535712803e+01
1.513998645268969101e-01 3.584452483360121278e+01
1.524404134235622932e-01 3.453332624516302474e+01
1.534809623202276763e-01 3.331697646796048673e+01
1.545215112168930593e-01 3.343988534957007630e+01
1.555620601135584424e-01 3.455756930033822272e+01
1.566026090102238255e-01 3.473524149144420647e+01
1.576431579068892086e-01 3.359093098236022001e+01
1.586837068035545917e-01 3.131138206547751679e+01
1.597242557002199748e-01 2.916923490107448202e+01
1.607648045968853578e-01 2.739555262534756253e+01
1.618053534935507409e-01 2.670656259945130984e+01
1.628459023902161240e-01 2.625875318388566626e+01
1.638864512868815071e-01 2.559264765925285445e+01
1.649270001835468902e-01 2.477477065299574832e+01
1.659675490802122733e-01 2.427556416199331224e+01
1.670080979768776563e-01 2.418116119782913742e+01
1.680486468735430672e-01 2.355983610511065862e+01
1.690891957702084503e-01 2.319329490754104484e+01
1.701297446668738333e-01 2.268177561664027664e+01
1.711702935635392164e-01 2.237287036147344921e+01
1.722108424602045995e-01 2.212656736640421684e+01
1.732513913568699826e-01 2.143930632038069817e+01
1.742919402535353657e-01 2.081703078920457983e+01
1.753324891502007488e-01 2.107430726335477189e+01
1.763730380468661318e-01 2.185888408495694080e+01
1.774135869435315149e-01 2.343504023916768730e+01
1.784541358401968980e-01 2.508459481633439125e+01
1.794946847368622811e-01 2.582587815004372800e+01
1.805352336335276642e-01 2.452463191968017142e+01
1.815757825301930473e-01 2.226497172504140920e+01
1.826163314268584303e-01 2.053789379680464222e+01
1.836568803235238134e-01 1.871911381757436388e+01
1.846974292201891965e-01 1.728673276255324964e+01
1.857379781168545796e-01 1.656715891848575239e+01
1.867785270135199627e-01 1.581862248975541974e+01
1.878190759101853458e-01 1.510712720576545465e+01
1.888596248068507288e-01 1.476890332709207954e+01
1.899001737035161119e-01 1.452384721355378616e+01
1.909407226001814950e-01 1.410437316572270205e+01
1.919812714968468781e-01 1.376655473318201928e+01
1.930218203935122612e-01 1.363660092081562780e+01
1.940623692901776443e-01 1.335510035344458046e+01
1.951029181868430273e-01 1.290433319143704338e+01
1.961434670835084104e-01 1.255887128188771484e+01
1.971840159801737935e-01 1.271059509073374372e+01
1.982245648768391766e-01 1.264724539239242063e+01
1.992651137735045597e-01 1.263113972446559075e+01
2.003056626701699428e-01 1.197447680525998237e+01
2.013462115668353813e-01 1.120329279763177865e+01
2.023867604635007644e-01 1.049602692589231623e+01
2.034273093601661475e-01 9.697057021584722492e+00
2.044678582568315306e-01 9.043825371077645059e+00
2.055084071534969137e-01 8.683382113813223668e+00
2.065489560501622968e-01 8.274043472086120232e+00
2.075895049468276798e-01 8.126801070397739579e+00
2.086300538434930629e-01 8.130447477119297162e+00
2.096706027401584460e-01 8.071812638569575427e+00
2.107111516368238291e-01 7.875496047256120846e+00
2.117517005334892122e-01 7.640287040004594132e+00
2.127922494301545953e-01 7.736191303496923410e+00
2.138327983268199783e-01 7.696720002963559182e+00
2.148733472234853614e-01 7.672857544409819042e+00
2.159138961201507445e-01 7.535066179083358406e+00
2.169544450168161276e-01 7.284315586541687537e+00
2.179949939134815107e-01 7.005120637331572198e+00
2.190355428101468938e-01 7.045248213070614440e+00
2.200760917068122768e-01 7.226090287047362892e+00
2.211166406034776599e-01 6.810791804720988551e+00
2.221571895001430430e-01 6.654918735414156572e+00
2.231977383968084261e-01 6.873373818382507494e+00
2.242382872934738092e-01 7.324665273158299073e+00
2.252788361901391923e-01 7.296532390434776971e+00
2.263193850868045753e-01 7.412401706705690430e+00
2.273599339834699584e-01 7.787202568059647945e+00
2.284004828801353415e-01 7.481224920010749457e+00
2.294410317768007246e-01 7.387180433170104976e+00
2.304815806734661077e-01 7.593690830237061817e+00
2.315221295701314908e-01 7.914923158098499556e+00
2.325626784667968738e-01 7.668831072642230851e+00
2.336032273634622569e-01 7.391280129476889726e+00
2.346437762601276400e-01 6.757863130630834547e+00
2.356843251567930231e-01 6.028285921783890444e+00
2.367248740534584062e-01 5.816485318097885937e+00
2.377654229501237892e-01 5.677864010913985737e+00
2.388059718467891723e-01 5.663795261426308514e+00
2.398465207434545554e-01 5.322745784824448378e+00
2.408870696401199385e-01 5.392180789567358801e+00
2.419276185367853216e-01 5.282933583787499998e+00
2.429681674334507047e-01 5.171492623210593109e+00
2.440087163301160877e-01 5.154944990201101973e+00
2.450492652267814708e-01 4.912893267617143067e+00
2.460898141234468539e-01 4.828019782616983946e+00
2.471303630201122370e-01 4.743725426712721571e+00
2.481709119167776201e-01 5.069513773576954208e+00
2.492114608134430032e-01 5.131193219113615811e+00
2.502520097101083585e-01 5.130392152180775156e+00
2.512925586067737416e-01 5.008299383278213668e+00
2.523331075034391247e-01 4.748223132540662306e+00
2.533736564001045077e-01 4.536206224666820219e+00
2.544142052967698908e-01 4.205134335450448901e+00
2.554547541934352739e-01 4.025313972641374249e+00
2.564953030901006570e-01 4.017319479765284029e+00
2.575358519867660401e-01 3.969545273713780631e+00
2.585764008834314231e-01 4.076284615832943103e+00
2.596169497800968062e-01 4.103119877487838352e+00
2.606574986767621893e-01 4.038943764278236870e+00
2.616980475734275724e-01 3.802705399693021349e+00
2.627385964700929555e-01 3.376795100405225014e+00
2.637791453667583386e-01 3.343619155739450122e+00
2.648196942634237216e-01 3.446901250260971494e+00
2.658602431600891047e-01 3.475061422566298575e+00
2.669007920567544878e-01 3.629750270844965598e+00
2.679413409534198709e-01 3.658897421121885429e+00
2.689818898500852540e-01 3.678643612072715285e+00
2.700224387467506371e-01 3.389328163480829659e+00
2.710629876434160201e-01 3.352666918456645107e+00
2.721035365400814032e-01 3.432185457875039702e+00
2.731440854367467863e-01 3.437233042538522909e+00
2.741846343334121694e-01 3.478832732088697810e+00
2.752251832300775525e-01 3.833770863567774967e+00
2.762657321267429356e-01 3.906733132253950913e+00
2.773062810234083186e-01 3.898696342480857169e+00
2.783468299200737017e-01 3.629460470072903178e+00
2.793873788167390848e-01 3.640149627886604122e+00
2.804279277134044679e-01 3.623271224986421402e+00
2.814684766100698510e-01 3.643864329837544602e+00
2.825090255067352341e-01 3.493517121963943595e+00
2.835495744034006171e-01 3.607224628529035471e+00
2.845901233000660002e-01 3.590306785001605050e+00
2.856306721967313833e-01 3.459625268970796697e+00
2.866712210933967664e-01 3.325506022896480118e+00
2.877117699900621495e-01 3.471218326080556693e+00
2.887523188867275326e-01 3.386203128641675164e+00
2.897928677833929156e-01 3.057214176281789264e+00
2.908334166800582987e-01 2.948382211055054825e+00
2.918739655767236818e-01 3.114060403767105356e+00
2.929145144733890649e-01 3.208964526658210303e+00
2.939550633700544480e-01 3.094871544620087178e+00
2.949956122667198311e-01 3.218075433806664165e+00
2.960361611633852141e-01 2.982156259028375445e+00
2.970767100600505972e-01 2.874877028413305169e+00
2.981172589567159803e-01 2.797678870565626141e+00
2.991578078533813634e-01 2.872552351352325672e+00
3.001983567500468020e-01 2.952609825453219372e+00
3.012389056467121851e-01 2.849366045013283610e+00
3.022794545433775681e-01 2.636056499775104811e+00
3.033200034400429512e-01 2.675972600683593328e+00
3.043605523367083343e-01 2.774951900343477718e+00
3.054011012333737174e-01 2.673873224618326105e+00
3.064416501300391005e-01 2.628969555525110025e+00
3.074821990267044836e-01 2.416235302109608796e+00
3.085227479233698666e-01 2.441613168234251674e+00
3.095632968200352497e-01 2.517959913936195449e+00
3.106038457167006328e-01 2.280089039990411237e+00
3.116443946133660159e-01 2.231308647273248624e+00
3.126849435100313990e-01 2.377254844302498782e+00
3.137254924066967821e-01 2.205320536541371723e+00
3.147660413033621651e-01 2.262373884134838420e+00
3.158065902000275482e-01 2.367036786117736824e+00
3.168471390966929313e-01 2.474688074491716350e+00
3.178876879933583144e-01 2.397664165721923979e+00
3.189282368900236975e-01 2.448584136576769765e+00
3.199687857866890806e-01 2.494430146446113383e+00
3.210093346833544636e-01 2.536295512233710525e+00
3.220498835800198467e-01 2.511829504433606530e+00
3.230904324766852298e-01 2.426613500367562182e+00
3.241309813733506129e-01 2.238927226768630874e+00
3.251715302700159960e-01 2.235889515741995126e+00
3.262120791666813790e-01 2.221279938733989212e+00
3.272526280633467621e-01 2.144059197371355197e+00
3.282931769600121452e-01 2.172545009506460900e+00
3.293337258566775283e-01 1.973816005861650069e+00
3.303742747533429114e-01 2.055388607762544950e+00
3.314148236500082945e-01 2.322820827794341625e+00
3.324553725466736775e-01 2.346022909256745947e+00
3.334959214433390606e-01 2.180569508389993416e+00
3.345364703400044437e-01 2.186338107199588876e+00
3.355770192366698268e-01 2.287155889769174166e+00
3.366175681333352099e-01 2.206494224792400871e+00
3.376581170300005930e-01 2.222478036657260958e+00
3.386986659266659760e-01 2.079140110808101127e+00
3.397392148233313591e-01 2.012222121619007709e+00
3.407797637199967422e-01 2.149382895362347057e+00
3.418203126166621253e-01 2.147609600805314045e+00
3.428608615133275084e-01 1.998492289122356880e+00
3.439014104099928915e-01 1.838864257893433773e+00
3.449419593066582745e-01 1.924095223670629906e+00
3.459825082033236576e-01 2.110881465255271650e+00
3.470230570999890407e-01 2.072450615271620222e+00
3.480636059966544238e-01 1.968945752382985859e+00
3.491041548933198069e-01 2.002947030229286440e+00
3.501447037899851900e-01 1.817159258445538939e+00
3.511852526866505730e-01 1.784519209479448421e+00
3.522258015833159561e-01 1.749481570358131677e+00
3.532663504799813392e-01 1.511926816738398571e+00
3.543068993766467223e-01 1.737722861994893009e+00
3.553474482733121054e-01 1.857551607037361663e+00
3.563879971699774885e-01 1.723699631747027894e+00
3.574285460666428715e-01 1.608342346353410335e+00
3.584690949633082546e-01 1.454260044189023660e+00
3.595096438599736377e-01 1.389111258081246802e+00
3.605501927566390208e-01 1.616224090127261093e+00
3.615907416533044039e-01 1.735751755387013873e+00
3.626312905499697870e-01 1.720966858483354400e+00
3.636718394466351700e-01 1.685285755427166521e+00
3.647123883433005531e-01 1.901102039317937198e+00
3.657529372399659362e-01 1.787274929722531880e+00
3.667934861366313193e-01 1.385831435025789204e+00
3.678340350332967024e-01 1.568501237692778716e+00
3.688745839299620854e-01 1.714216991249955413e+00
3.699151328266274685e-01 1.639595411205810649e+00
3.709556817232928516e-01 1.783353429112196409e+00
3.719962306199582347e-01 1.750839229275289455e+00
3.730367795166236178e-01 1.673189620271347877e+00
3.740773284132890009e-01 1.677831912990296104e+00
3.751178773099543839e-01 1.768578020309206522e+00
3.761584262066197670e-01 1.720679693270490418e+00
3.771989751032851501e-01 1.720553885177974252e+00
3.782395239999505332e-01 1.785559914509846635e+00
3.792800728966159163e-01 1.703598652293909055e+00
3.803206217932812994e-01 1.631712310066987470e+00
3.813611706899466824e-01 1.649466101941698071e+00
3.824017195866120655e-01 1.807947013836272987e+00
3.834422684832774486e-01 1.578523654174020407e+00
3.844828173799428317e-01 1.601288728628553315e+00
3.855233662766082148e-01 1.759280334572647320e+00
3.865639151732735979e-01 1.824619680610432226e+00
3.876044640699389809e-01 1.919884499588459192e+00
3.886450129666043640e-01 1.624937051359275131e+00
3.896855618632697471e-01 1.647311838162558217e+00
3.907261107599351302e-01 1.578779196919683159e+00
3.917666596566005133e-01 1.508008552340484698e+00
3.928072085532658964e-01 1.531109165234482816e+00
3.938477574499312794e-01 1.420722544351789907e+00
3.948883063465966625e-01 1.476778788094911476e+00
3.959288552432620456e-01 1.789486186412688085e+00
3.969694041399274287e-01 1.674236631417709731e+00
3.980099530365928118e-01 1.629185683091161962e+00
3.990505019332581949e-01 1.577866165057397296e+00
4.000910508299235779e-01 1.366221097473061974e+00
4.011315997265889610e-01 1.282671311029567107e+00
4.021721486232543441e-01 1.211371870144731133e+00
4.032126975199197272e-01 1.265433505523098745e+00
4.042532464165851103e-01 1.449483956510647431e+00
4.052937953132504934e-01 1.387517318541597433e+00
4.063343442099158764e-01 1.144020079503992093e+00
4.073748931065812595e-01 1.249721180505122931e+00
4.084154420032466426e-01 1.199213424193835920e+00
4.094559908999120257e-01 1.013693038637871524e+00
4.104965397965774088e-01 1.009820977021472999e+00
4.115370886932427918e-01 1.078035393261572494e+00
4.125776375899081749e-01 1.101725417098165849e+00
4.136181864865735580e-01 1.236981412391287449e+00
4.146587353832389411e-01 1.184633127794732843e+00
4.156992842799043242e-01 1.137081138770266620e+00
4.167398331765697073e-01 1.213505542521424729e+00
4.177803820732350903e-01 1.083563827214280906e+00
4.188209309699004734e-01 1.126636711305142313e+00
4.198614798665658565e-01 1.013021604618661087e+00
4.209020287632312396e-01 1.220993556901785126e+00
4.219425776598966227e-01 1.419471495528398464e+00
4.229831265565620058e-01 1.379549213558359355e+00
4.240236754532273888e-01 1.418501605827689360e+00
4.250642243498927719e-01 1.170032120991947977e+00
4.261047732465581550e-01 1.121018609594166549e+00
4.271453221432235381e-01 1.076607896557788990e+00
4.281858710398889212e-01 9.138621816588070601e-01
4.292264199365543043e-01 9.390460519077628021e-01
4.302669688332196873e-01 9.976462636595826439e-01
4.313075177298850704e-01 1.194712171581890914e+00
4.323480666265504535e-01 1.190465827487777517e+00
4.333886155232158366e-01 1.146345669123189026e+00
4.344291644198812197e-01 9.758366280637176260e-01
