# q (1/Angstrom), Intensity (arb)
2.029070354705860696e-02 9.440998290693660238e+02
2.133125244372399004e-02 8.366874354747550342e+02
2.237180134038937659e-02 7.560883116903082737e+02
2.341235023705475968e-02 6.881792676395181161e+02
2.445289913372014276e-02 6.322085685876071466e+02
2.549344803038552584e-02 5.916250117844531360e+02
2.653399692705091240e-02 5.552892783573699944e+02
2.757454582371629548e-02 5.206858387462680184e+02
2.861509472038167856e-02 4.940198981311352782e+02
2.965564361704706164e-02 4.757267283672261442e+02
3.069619251371244473e-02 4.574123666814206786e+02
3.173674141037782781e-02 4.442601684133413755e+02
3.277729030704321089e-02 4.341684728993727731e+02
3.381783920370859398e-02 4.261115949151243285e+02
3.485838810037397706e-02 4.206511411851918751e+02
3.589893699703936014e-02 4.222691334029575501e+02
3.693948589370474322e-02 4.254179515447854669e+02
3.798003479037012631e-02 4.310016024728804496e+02
3.902058368703550939e-02 4.363011939531531311e+02
4.006113258370089247e-02 4.486450833570722807e+02
4.110168148036627556e-02 4.611714500577067497e+02
4.214223037703165864e-02 4.814520848359642287e+02
4.318277927369704866e-02 5.107712884539834590e+02
4.422332817036243174e-02 5.520941351306861407e+02
4.526387706702781483e-02 6.099350472171137199e+02
4.630442596369319791e-02 6.999640508649504227e+02
4.734497486035858099e-02 8.813862869508927815e+02
4.838552375702396408e-02 1.262123175877004087e+03
4.942607265368934716e-02 1.909884375972401813e+03
5.046662155035473024e-02 2.934143236835074731e+03
5.150717044702011332e-02 4.493238923285131023e+03
5.254771934368549641e-02 5.306804949311449491e+03
5.358826824035087949e-02 4.439225967550939458e+03
5.462881713701626257e-02 3.506378421827056627e+03
5.566936603368164566e-02 3.281324659038433310e+03
5.670991493034702874e-02 3.359491742251714186e+03
5.775046382701241182e-02 3.510457202826601133e+03
5.879101272367779490e-02 3.652927887115651629e+03
5.983156162034317799e-02 3.689368902665622954e+03
6.087211051700856107e-02 3.543680025985119755e+03
6.191265941367394415e-02 3.272830714165761037e+03
6.295320831033933417e-02 2.981676828208100687e+03
6.399375720700471726e-02 2.680965849937066650e+03
6.503430610367010034e-02 2.378990543028771299e+03
6.607485500033548342e-02 2.080251223735936492e+03
6.711540389700086651e-02 1.798370170594317187e+03
6.815595279366624959e-02 1.528821060936011236e+03
6.919650169033163267e-02 1.282888236846795962e+03
7.023705058699701576e-02 1.067657577338976353e+03
7.127759948366239884e-02 8.855618295971960379e+02
7.231814838032778192e-02 7.313913233307625887e+02
7.335869727699316500e-02 6.034114844665156170e+02
7.439924617365854809e-02 5.007476817274101109e+02
7.543979507032393117e-02 4.184535607346975326e+02
7.648034396698931425e-02 3.535685309298268066e+02
7.752089286365469734e-02 2.991199629152299622e+02
7.856144176032008042e-02 2.569671242956158039e+02
7.960199065698546350e-02 2.248048498798268042e+02
8.064253955365084658e-02 2.044974904983972692e+02
8.168308845031622967e-02 1.951582225774203607e+02
8.272363734698161275e-02 2.077839760525059489e+02
8.376418624364699583e-02 2.599180228353781104e+02
8.480473514031239279e-02 3.429997264680610556e+02
8.584528403697777588e-02 3.632453112034880860e+02
8.688583293364315896e-02 2.875084076042617198e+02
8.792638183030854204e-02 2.123264089010721420e+02
8.896693072697392513e-02 1.785463994321516168e+02
9.000747962363930821e-02 1.683126071125575436e+02
9.104802852030469129e-02 1.660478916104140978e+02
9.208857741697007437e-02 1.678882828208763840e+02
9.312912631363545746e-02 1.735864035354319128e+02
9.416967521030084054e-02 1.811178685303495399e+02
9.521022410696622362e-02 1.888575521975089089e+02
9.625077300363160671e-02 2.039417324730255814e+02
9.729132190029698979e-02 2.355517071988191731e+02
9.833187079696237287e-02 2.966844150327929128e+02
9.937241969362775595e-02 3.770568959728541927e+02
1.004129685902931390e-01 4.058714493194861461e+02
1.014535174869585221e-01 3.471700952966875775e+02
1.024940663836239052e-01 2.779828477866715275e+02
1.035346152802892883e-01 2.489614782331100855e+02
1.045751641769546714e-01 2.358257937992933080e+02
1.056157130736200545e-01 2.177161259588503981e+02
1.066562619702854375e-01 1.999812075468111914e+02
1.076968108669508206e-01 1.916441819181675612e+02
1.087373597636162037e-01 1.905705536250591763e+02
1.097779086602815868e-01 1.906138358596685407e+02
1.108184575569469699e-01 1.906926491056691191e+02
1.118590064536123529e-01 1.905828916032359359e+02
1.128995553502777360e-01 1.895912243658985403e+02
1.139401042469431191e-01 1.871136456879659988e+02
1.149806531436085022e-01 1.805433259145972613e+02
1.160212020402738853e-01 1.741906411832984816e+02
1.170617509369392684e-01 1.670708786914168797e+02
1.181022998336046514e-01 1.585873188396194848e+02
1.191428487302700345e-01 1.491997767595308915e+02
1.201833976269354176e-01 1.395583020714581153e+02
1.212239465236008007e-01 1.303398960915729390e+02
1.222644954202661838e-01 1.195988587171448643e+02
1.233050443169315669e-01 1.100159835586135841e+02
1.243455932135969499e-01 1.013709984814809815e+02
1.253861421102623330e-01 9.293276910776965849e+01
1.264266910069277161e-01 8.480017439469058615e+01
1.274672399035930992e-01 7.877211298317125454e+01
1.285077888002584823e-01 7.515762378479230676e+01
1.295483376969238654e-01 7.527813498466294106e+01
1.305888865935892484e-01 7.887135812982894834e+01
1.316294354902546315e-01 8.290781566683537562e+01
1.326699843869200146e-01 8.487165070814808132e+01
1.337105332835853977e-01 8.574491398384918739e+01
1.347510821802507808e-01 8.481367829801452274e+01
1.357916310769161639e-01 7.568432780240603108e+01
1.368321799735815469e-01 5.934078116132787528e+01
1.378727288702469300e-01 4.755223046685327404e+01
1.389132777669123131e-01 4.117313937118611022e+01
1.399538266635776962e-01 3.750429466118394828e+01
1.409943755602430793e-01 3.518977218973961385e+01
1.420349244569084624e-01 3.399142776216706352e+01
1.430754733535738454e-01 3.411551629812088038e+01
1.441160222502392285e-01 3.511957761117631094e+01
1.451565711469046116e-01 3.722689070126149602e+01
1.461971200435699947e-01 4.027404720996368326e+01
1.472376689402353778e-01 4.401693737078149127e+01
1.482782178369007609e-01 4.505774253400745977e+01
1.493187667335661439e-01 4.231479416389493764e+01
1.503593156302315270e-01 3.835005680565789277e+01
1.513998645268969101e-01 3.565429469863026668e+01
1.524404134235622932e-01 3.418609372010160286e+01
1.534809623202276763e-01 3.393859682863956806e+01
1.545215112168930593e-01 3.388468582639792714e+01
1.555620601135584424e-01 3.440994456724652650e+01
1.566026090102238255e-01 3.465889456044457972e+01
1.576431579068892086e-01 3.359394771762637077e+01
1.586837068035545917e-01 3.122273320422273457e+01
1.597242557002199748e-01 2.934177264734054802e+01
1.607648045968853578e-01 2.740425348475772438e+01
1.618053534935507409e-01 2.664938353051307018e+01
1.628459023902161240e-01 2.621571660490420186e+01
1.638864512868815071e-01 2.541469105928631933e+01
1.649270001835468902e-01 2.438524545783478104e+01
1.659675490802122733e-01 2.427525091662682044e+01
1.670080979768776563e-01 2.415286394219739563e+01
1.680486468735430672e-01 2.371023088771426757e+01
1.690891957702084503e-01 2.309173588887691153e+01
1.701297446668738333e-01 2.244092998490832969e+01
1.711702935635392164e-01 2.188712720811541601e+01
1.722108424602045995e-01 2.181612323863279101e+01
1.732513913568699826e-01 2.197611672934823801e+01
1.742919402535353657e-01 2.154345032438789076e+01
1.753324891502007488e-01 2.129771872173509806e+01
1.763730380468661318e-01 2.242034126671209648e+01
1.774135869435315149e-01 2.409022043863770079e+01
1.784541358401968980e-01 2.520784890517501609e+01
1.794946847368622811e-01 2.532951198329049092e+01
1.805352336335276642e-01 2.455860122171110405e+01
1.815757825301930473e-01 2.283694700047777815e+01
1.826163314268584303e-01 2.071284276963446302e+01
1.836568803235238134e-01 1.882311266798643246e+01
1.846974292201891965e-01 1.743741970315949885e+01
1.857379781168545796e-01 1.636390179440419246e+01
1.867785270135199627e-01 1.539353212940451954e+01
1.878190759101853458e-01 1.513865321378738926e+01
1.888596248068507288e-01 1.513872096014801372e+01
1.899001737035161119e-01 1.493349909639515616e+01
1.909407226001814950e-01 1.451833545286143945e+01
1.919812714968468781e-01 1.387518130582346743e+01
1.930218203935122612e-01 1.357899137081306051e+01
1.940623692901776443e-01 1.304898980161827993e+01
1.951029181868430273e-01 1.304169267616416406e+01
1.961434670835084104e-01 1.263036354233244651e+01
1.971840159801737935e-01 1.260019814951369099e+01
1.982245648768391766e-01 1.252118005093478814e+01
1.992651137735045597e-01 1.247639441299147123e+01
2.003056626701699428e-01 1.211850835805199011e+01
2.013462115668353813e-01 1.116562345295401926e+01
2.023867604635007644e-01 1.015616344329765397e+01
2.034273093601661475e-01 9.590044885016300924e+00
2.044678582568315306e-01 9.263764360234286954e+00
2.055084071534969137e-01 8.677444359322887379e+00
2.065489560501622968e-01 8.432657429781233560e+00
2.075895049468276798e-01 8.065883460758627166e+00
2.086300538434930629e-01 7.851400855915557031e+00
2.096706027401584460e-01 8.045462508583845818e+00
2.107111516368238291e-01 7.998867918091995932e+00
2.117517005334892122e-01 7.962952080757457196e+00
2.127922494301545953e-01 7.749860245605376008e+00
2.138327983268199783e-01 7.689075273173006764e+00
2.148733472234853614e-01 7.355944623117693482e+00
2.159138961201507445e-01 7.082406543230796103e+00
2.169544450168161276e-01 7.270800904374855378e+00
2.179949939134815107e-01 7.036592635045867183e+00
2.190355428101468938e-01 6.962104052108514907e+00
2.200760917068122768e-01 7.081052984398667149e+00
2.211166406034776599e-01 7.249784596178972862e+00
2.221571895001430430e-01 6.993900112758183241e+00
2.231977383968084261e-01 6.999490139308658598e+00
2.242382872934738092e-01 7.268817684135409962e+00
2.252788361901391923e-01 7.495027760245232429e+00
2.263193850868045753e-01 7.837891057844881715e+00
2.273599339834699584e-01 7.567230315188357537e+00
2.284004828801353415e-01 7.580119733470176868e+00
2.294410317768007246e-01 7.758946289105903560e+00
2.304815806734661077e-01 8.065935963799404362e+00
2.315221295701314908e-01 7.997328302049471205e+00
2.325626784667968738e-01 8.024357568297155296e+00
2.336032273634622569e-01 7.727712340094232246e+00
2.346437762601276400e-01 6.930371035977540117e+00
2.356843251567930231e-01 6.334567067666604601e+00
2.367248740534584062e-01 6.168913231644367556e+00
2.377654229501237892e-01 5.847142954308250040e+00
2.388059718467891723e-01 5.586722392949099003e+00
2.398465207434545554e-01 5.389077227155716798e+00
2.408870696401199385e-01 5.444672123866222790e+00
2.419276185367853216e-01 5.519502482137532695e+00
2.429681674334507047e-01 5.479915542068106049e+00
2.440087163301160877e-01 5.138210622926564497e+00
2.450492652267814708e-01 5.192485094272452528e+00
2.460898141234468539e-01 5.017033729358502114e+00
2.471303630201122370e-01 5.153065182096288055e+00
2.481709119167776201e-01 5.260044517246225126e+00
2.492114608134430032e-01 5.276714678106039003e+00
2.502520097101083585e-01 4.951959020522743060e+00
2.512925586067737416e-01 4.774661388735122358e+00
2.523331075034391247e-01 4.580644929480662597e+00
2.533736564001045077e-01 4.527141911725276913e+00
2.544142052967698908e-01 4.239676175564010663e+00
2.554547541934352739e-01 4.229591632840978832e+00
2.564953030901006570e-01 3.922108856846282521e+00
2.575358519867660401e-01 3.860001497314282659e+00
2.585764008834314231e-01 3.949606703500538885e+00
2.596169497800968062e-01 3.765548134485701581e+00
2.606574986767621893e-01 3.438462061980782636e+00
2.616980475734275724e-01 3.782529587775869118e+00
2.627385964700929555e-01 3.639983643204178776e+00
2.637791453667583386e-01 3.389401199475770454e+00
2.648196942634237216e-01 3.227148254543152461e+00
2.658602431600891047e-01 3.090463733898406673e+00
2.669007920567544878e-01 3.433816061566254518e+00
2.679413409534198709e-01 3.656054528175602059e+00
2.689818898500852540e-01 3.581679017739968884e+00
2.700224387467506371e-01 3.638831079988463557e+00
2.710629876434160201e-01 3.581624539761570247e+00
2.721035365400814032e-01 3.446836574766763306e+00
2.731440854367467863e-01 3.503881120135446281e+00
2.741846343334121694e-01 3.912528266456465786e+00
2.752251832300775525e-01 3.908899850898823303e+00
2.762657321267429356e-01 3.688015700668927366e+00
2.773062810234083186e-01 3.848986882369416662e+00
2.783468299200737017e-01 3.572891062078568325e+00
2.793873788167390848e-01 3.467802756534812403e+00
2.804279277134044679e-01 3.565918219838458469e+00
2.814684766100698510e-01 3.366582065635103760e+00
2.825090255067352341e-01 3.120840794176231725e+00
2.835495744034006171e-01 3.189432268667868442e+00
2.845901233000660002e-01 3.492729759862374550e+00
2.856306721967313833e-01 3.325817587924809970e+00
2.866712210933967664e-01 3.307792273566409591e+00
2.877117699900621495e-01 3.559734471886194740e+00
2.887523188867275326e-01 3.398976885849862128e+00
2.897928677833929156e-01 3.127755270959699629e+00
2.908334166800582987e-01 2.911299846045068307e+00
2.918739655767236818e-01 3.137363603622635111e+00
2.929145144733890649e-01 3.251561657178804410e+00
2.939550633700544480e-01 3.321538416518460934e+00
2.949956122667198311e-01 3.150196007225712691e+00
2.960361611633852141e-01 3.080314531816696899e+00
2.970767100600505972e-01 2.865069595574812666e+00
2.981172589567159803e-01 2.783953153507709999e+00
2.991578078533813634e-01 2.808769824346711630e+00
3.001983567500468020e-01 3.063568173664439342e+00
3.012389056467121851e-01 2.954885661885548132e+00
3.022794545433775681e-01 2.622832235790987454e+00
3.033200034400429512e-01 2.600671801896638158e+00
3.043605523367083343e-01 2.533368216985440569e+00
3.054011012333737174e-01 2.469966616657341518e+00
3.064416501300391005e-01 2.520638334067061948e+00
3.074821990267044836e-01 2.616755026980015941e+00
3.085227479233698666e-01 2.500244153482281462e+00
3.095632968200352497e-01 2.409929057545092235e+00
3.106038457167006328e-01 2.388143296568404850e+00
3.116443946133660159e-01 2.465181999154257397e+00
3.126849435100313990e-01 2.253763550018366146e+00
3.137254924066967821e-01 2.299050666539265819e+00
3.147660413033621651e-01 2.382255521660095354e+00
3.158065902000275482e-01 2.296210853345325376e+00
3.168471390966929313e-01 2.178311716248689578e+00
3.178876879933583144e-01 2.220453713016866004e+00
3.189282368900236975e-01 2.180204826465345747e+00
3.199687857866890806e-01 2.419737777325469352e+00
3.210093346833544636e-01 2.472979344747095354e+00
3.220498835800198467e-01 2.305440088079848238e+00
3.230904324766852298e-01 2.242944295417583334e+00
3.241309813733506129e-01 2.556572651244568561e+00
3.251715302700159960e-01 2.388161835012237333e+00
3.262120791666813790e-01 2.533742862955751463e+00
3.272526280633467621e-01 2.453077071082081062e+00
3.282931769600121452e-01 2.348640299466207892e+00
3.293337258566775283e-01 2.197611093772803059e+00
3.303742747533429114e-01 2.471264021163701585e+00
3.314148236500082945e-01 2.281581287679564696e+00
3.324553725466736775e-01 2.117964365500554891e+00
3.334959214433390606e-01 2.216926987612936273e+00
3.345364703400044437e-01 2.322836413349065765e+00
3.355770192366698268e-01 2.301069011337833814e+00
3.366175681333352099e-01 2.329631739110748612e+00
3.376581170300005930e-01 2.404742354792695380e+00
3.386986659266659760e-01 2.112618079436412444e+00
3.397392148233313591e-01 2.073626529041789013e+00
3.407797637199967422e-01 2.122113726376184673e+00
3.418203126166621253e-01 2.048497142530710136e+00
3.428608615133275084e-01 2.009141677962151817e+00
3.439014104099928915e-01 2.025298020837940527e+00
3.449419593066582745e-01 2.162562191038674086e+00
3.459825082033236576e-01 2.180600931785757979e+00
3.470230570999890407e-01 2.177080370945510879e+00
3.480636059966544238e-01 2.270787560297410579e+00
3.491041548933198069e-01 2.119091289536790157e+00
3.501447037899851900e-01 2.138128729456578725e+00
3.511852526866505730e-01 2.170468119580796440e+00
3.522258015833159561e-01 1.903400600650968499e+00
3.532663504799813392e-01 1.680011651616478474e+00
3.543068993766467223e-01 1.666464532998556791e+00
3.553474482733121054e-01 1.647817954571980437e+00
3.563879971699774885e-01 1.782983255731114269e+00
3.574285460666428715e-01 1.953203909457499776e+00
3.584690949633082546e-01 1.887095266646092284e+00
3.595096438599736377e-01 1.957202362863569078e+00
3.605501927566390208e-01 1.737590413642628562e+00
3.615907416533044039e-01 1.676859429459948814e+00
3.626312905499697870e-01 1.658801877385915446e+00
3.636718394466351700e-01 1.680830762973684500e+00
3.647123883433005531e-01 1.603240191853188890e+00
3.657529372399659362e-01 1.427299066070244038e+00
3.667934861366313193e-01 1.578621457016943452e+00
3.678340350332967024e-01 1.618299500358336473e+00
3.688745839299620854e-01 1.767906849300153738e+00
3.699151328266274685e-01 1.912873218821498966e+00
3.709556817232928516e-01 1.923426473747596788e+00
3.719962306199582347e-01 1.732536203446848333e+00
3.730367795166236178e-01 1.494641081114437497e+00
3.740773284132890009e-01 1.413718412376947953e+00
3.751178773099543839e-01 1.569739954872449772e+00
3.761584262066197670e-01 1.478579558211453815e+00
3.771989751032851501e-01 1.599229884523023060e+00
3.782395239999505332e-01 1.769110777083394481e+00
3.792800728966159163e-01 1.673628321744107694e+00
3.803206217932812994e-01 1.612683948499370246e+00
3.813611706899466824e-01 1.534221203045685655e+00
3.824017195866120655e-01 1.492471163797397082e+00
3.834422684832774486e-01 1.476144760332022798e+00
3.844828173799428317e-01 1.628524690707841671e+00
3.855233662766082148e-01 1.526436251249389642e+00
3.865639151732735979e-01 1.606354932472459751e+00
3.876044640699389809e-01 1.791216844115758988e+00
3.886450129666043640e-01 1.747390356186187432e+00
3.896855618632697471e-01 1.580328698615332428e+00
3.907261107599351302e-01 1.556075937481786298e+00
3.917666596566005133e-01 1.477341118734479153e+00
3.928072085532658964e-01 1.639242685228200713e+00
3.938477574499312794e-01 1.558199937114178368e+00
3.948883063465966625e-01 1.363403551189982466e+00
3.959288552432620456e-01 1.337945557066220204e+00
3.969694041399274287e-01 1.424868940980015708e+00
3.980099530365928118e-01 1.556182148623630468e+00
3.990505019332581949e-01 1.403392212802781813e+00
4.000910508299235779e-01 1.359809422394977929e+00
4.011315997265889610e-01 1.646175436742449705e+00
4.021721486232543441e-01 1.548994609035307946e+00
4.032126975199197272e-01 1.350376154013080310e+00
4.042532464165851103e-01 1.385218389609551792e+00
4.052937953132504934e-01 1.203962202948709148e+00
4.063343442099158764e-01 1.315665592077888135e+00
4.073748931065812595e-01 1.146278713944365535e+00
4.084154420032466426e-01 1.220532591781633869e+00
4.094559908999120257e-01 1.096595061646553404e+00
4.104965397965774088e-01 1.182828890397278343e+00
4.115370886932427918e-01 1.177877222590808515e+00
4.125776375899081749e-01 1.137402800670130887e+00
4.136181864865735580e-01 1.007325293073922268e+00
4.146587353832389411e-01 1.061873462023644521e+00
4.156992842799043242e-01 1.274491121809859351e+00
4.167398331765697073e-01 1.201101696090095317e+00
4.177803820732350903e-01 1.155067297109223290e+00
4.188209309699004734e-01 1.105540274765953512e+00
4.198614798665658565e-01 1.184111042494475186e+00
4.209020287632312396e-01 1.105306388332230938e+00
4.219425776598966227e-01 1.200246293619709803e+00
4.229831265565620058e-01 1.124717451059250806e+00
4.240236754532273888e-01 1.166120040465060015e+00
4.250642243498927719e-01 1.236678434295825468e+00
4.261047732465581550e-01 1.237993554590428147e+00
4.271453221432235381e-01 1.172109019575632516e+00
4.281858710398889212e-01 1.173826220929505837e+00
4.292264199365543043e-01 1.034003195640838868e+00
4.302669688332196873e-01 1.256945493110293910e+00
4.313075177298850704e-01 1.229707575054394653e+00
4.323480666265504535e-01 1.276097586055595201e+00
4.333886155232158366e-01 1.336367450261487733e+00
4.344291644198812197e-01 1.361063433256859412e+00
