# q (1/Angstrom), Intensity (arb)
2.029070354705860696e-02 9.284104956846229015e+02
2.133125244372399004e-02 8.209232272778853030e+02
2.237180134038937659e-02 7.416922718255145810e+02
2.341235023705475968e-02 6.790900842234929087e+02
2.445289913372014276e-02 6.249026037550725050e+02
2.549344803038552584e-02 5.773473977422322605e+02
2.653399692705091240e-02 5.377889370753722460e+02
2.757454582371629548e-02 5.101825814751623511e+02
2.861509472038167856e-02 4.874177443530662117e+02
2.965564361704706164e-02 4.677095850599673668e+02
3.069619251371244473e-02 4.521139182074850851e+02
3.173674141037782781e-02 4.391196557452057050e+02
3.277729030704321089e-02 4.286429590484833625e+02
3.381783920370859398e-02 4.226974168271722760e+02
3.485838810037397706e-02 4.228401492162381601e+02
3.589893699703936014e-02 4.219176055017175031e+02
3.693948589370474322e-02 4.244210517051829470e+02
3.798003479037012631e-02 4.309235239479564825e+02
3.902058368703550939e-02 4.402496209602111321e+02
4.006113258370089247e-02 4.523505543951771415e+02
4.110168148036627556e-02 4.661596848138551081e+02
4.214223037703165864e-02 4.883648580330025766e+02
4.318277927369704866e-02 5.181855933364321345e+02
4.422332817036243174e-02 5.621134360515345634e+02
4.526387706702781483e-02 6.234974111172018638e+02
4.630442596369319791e-02 7.290276615279943826e+02
4.734497486035858099e-02 9.393810051105813272e+02
4.838552375702396408e-02 1.370267635147264173e+03
4.942607265368934716e-02 2.086809138546207578e+03
5.046662155035473024e-02 3.243622715542243441e+03
5.150717044702011332e-02 4.865297579377930560e+03
5.254771934368549641e-02 5.402063627864165937e+03
5.358826824035087949e-02 4.364862302046568402e+03
5.462881713701626257e-02 3.541000899800581919e+03
5.566936603368164566e-02 3.392562508014756077e+03
5.670991493034702874e-02 3.501176891433228775e+03
5.775046382701241182e-02 3.651532180212461753e+03
5.879101272367779490e-02 3.779086916596954325e+03
5.983156162034317799e-02 3.787300801503802631e+03
6.087211051700856107e-02 3.608615614624129194e+03
6.191265941367394415e-02 3.321082696822628350e+03
6.295320831033933417e-02 3.009747630663054224e+03
6.399375720700471726e-02 2.696732998036147364e+03
6.503430610367010034e-02 2.385270007441337839e+03
6.607485500033548342e-02 2.079763650126047196e+03
6.711540389700086651e-02 1.784735429022407516e+03
6.815595279366624959e-02 1.513497338465479288e+03
6.919650169033163267e-02 1.269911022671775982e+03
7.023705058699701576e-02 1.053489078692892917e+03
7.127759948366239884e-02 8.679928880591139659e+02
7.231814838032778192e-02 7.166345247272369079e+02
7.335869727699316500e-02 5.917917056859847662e+02
7.439924617365854809e-02 4.902539130951438437e+02
7.543979507032393117e-02 4.097021830818430885e+02
7.648034396698931425e-02 3.462595230272774529e+02
7.752089286365469734e-02 2.955711953869789568e+02
7.856144176032008042e-02 2.536930341059982368e+02
7.960199065698546350e-02 2.227609341592594205e+02
8.064253955365084658e-02 2.029339709313409230e+02
8.168308845031622967e-02 1.970759435426231221e+02
8.272363734698161275e-02 2.171518013872886854e+02
8.376418624364699583e-02 2.813180182409528811e+02
8.480473514031239279e-02 3.578204961472339960e+02
8.584528403697777588e-02 3.493017672984839805e+02
8.688583293364315896e-02 2.635882905611315437e+02
8.792638183030854204e-02 2.007354846256273504e+02
8.896693072697392513e-02 1.752121351045800850e+02
9.000747962363930821e-02 1.682515114139227137e+02
9.104802852030469129e-02 1.678767630060375211e+02
9.208857741697007437e-02 1.708918524409589850e+02
9.312912631363545746e-02 1.760092887951723242e+02
9.416967521030084054e-02 1.831810830230271279e+02
9.521022410696622362e-02 1.939123384636015714e+02
9.625077300363160671e-02 2.129230459717438464e+02
9.729132190029698979e-02 2.527292019254630304e+02
9.833187079696237287e-02 3.270597906205300092e+02
9.937241969362775595e-02 4.053952661140582450e+02
1.004129685902931390e-01 4.054571730821549522e+02
1.014535174869585221e-01 3.288436536323517885e+02
1.024940663836239052e-01 2.694872922017160590e+02
1.035346152802892883e-01 2.502350363938379871e+02
1.045751641769546714e-01 2.362623980521337899e+02
1.056157130736200545e-01 2.145103542874628602e+02
1.066562619702854375e-01 1.992534581096861075e+02
1.076968108669508206e-01 1.936698869389791184e+02
1.087373597636162037e-01 1.928199749867911805e+02
1.097779086602815868e-01 1.934380866390576443e+02
1.108184575569469699e-01 1.948602106985558464e+02
1.118590064536123529e-01 1.937109124865943670e+02
1.128995553502777360e-01 1.921033263591933746e+02
1.139401042469431191e-01 1.889496927865899920e+02
1.149806531436085022e-01 1.826512361433681804e+02
1.160212020402738853e-01 1.758605008288361944e+02
1.170617509369392684e-01 1.673286491476744118e+02
1.181022998336046514e-01 1.582288415906398313e+02
1.191428487302700345e-01 1.493366668677336122e+02
1.201833976269354176e-01 1.390472372760815176e+02
1.212239465236008007e-01 1.286475351092578592e+02
1.222644954202661838e-01 1.180909523786218784e+02
1.233050443169315669e-01 1.089175063340837397e+02
1.243455932135969499e-01 9.966080728356750740e+01
1.253861421102623330e-01 9.098674197367273564e+01
1.264266910069277161e-01 8.347655388614322192e+01
1.274672399035930992e-01 7.782522862195895641e+01
1.285077888002584823e-01 7.537230057867604671e+01
1.295483376969238654e-01 7.651246106423782578e+01
1.305888865935892484e-01 8.036071484258295072e+01
1.316294354902546315e-01 8.303933043755203869e+01
1.326699843869200146e-01 8.322244744495111490e+01
1.337105332835853977e-01 8.404361239212111911e+01
1.347510821802507808e-01 8.108296847801231877e+01
1.357916310769161639e-01 6.854410206586169352e+01
1.368321799735815469e-01 5.346003372956889166e+01
1.378727288702469300e-01 4.352975371488679457e+01
1.389132777669123131e-01 3.901145325059111002e+01
1.399538266635776962e-01 3.611197065124728312e+01
1.409943755602430793e-01 3.436657382862546939e+01
1.420349244569084624e-01 3.422947956548986781e+01
1.430754733535738454e-01 3.435586655474820361e+01
1.441160222502392285e-01 3.513080146149833638e+01
1.451565711469046116e-01 3.826166502388936408e+01
1.461971200435699947e-01 4.226136031112417868e+01
1.472376689402353778e-01 4.523707816389541847e+01
1.482782178369007609e-01 4.455221412218867272e+01
1.493187667335661439e-01 4.060809246522788385e+01
1.503593156302315270e-01 3.651167165679933646e+01
1.513998645268969101e-01 3.434551046224859761e+01
1.524404134235622932e-01 3.336575223241842991e+01
1.534809623202276763e-01 3.303275773688594086e+01
1.545215112168930593e-01 3.375436282525934928e+01
1.555620601135584424e-01 3.425496275788363931e+01
1.566026090102238255e-01 3.440248508178186881e+01
1.576431579068892086e-01 3.242742379786098184e+01
1.586837068035545917e-01 2.953843016561713952e+01
1.597242557002199748e-01 2.781125683414603955e+01
1.607648045968853578e-01 2.639088012633873248e+01
1.618053534935507409e-01 2.562022424985851998e+01
1.628459023902161240e-01 2.539445551937961909e+01
1.638864512868815071e-01 2.483364245064874254e+01
1.649270001835468902e-01 2.425690515232021127e+01
1.659675490802122733e-01 2.407059655101343054e+01
1.670080979768776563e-01 2.333399732365622015e+01
1.680486468735430672e-01 2.259565566909527590e+01
1.690891957702084503e-01 2.287899483743141005e+01
1.701297446668738333e-01 2.257646741141866187e+01
1.711702935635392164e-01 2.207918879770942766e+01
1.722108424602045995e-01 2.125035601064108093e+01
1.732513913568699826e-01 2.112229489378870184e+01
1.742919402535353657e-01 2.106285772410624801e+01
1.753324891502007488e-01 2.109904753296519786e+01
1.763730380468661318e-01 2.252993905798720320e+01
1.774135869435315149e-01 2.456612017522450486e+01
1.784541358401968980e-01 2.554283684776468988e+01
1.794946847368622811e-01 2.503276139024017155e+01
1.805352336335276642e-01 2.340501139199379210e+01
1.815757825301930473e-01 2.102271539728184280e+01
1.826163314268584303e-01 1.886211758508295588e+01
1.836568803235238134e-01 1.706779031406017211e+01
1.846974292201891965e-01 1.620205366492981724e+01
1.857379781168545796e-01 1.558120119410934379e+01
1.867785270135199627e-01 1.524004006544620538e+01
1.878190759101853458e-01 1.523542387094101969e+01
1.888596248068507288e-01 1.510468622341768707e+01
1.899001737035161119e-01 1.498974838470590143e+01
1.909407226001814950e-01 1.476362922090306995e+01
1.919812714968468781e-01 1.406381379331958215e+01
1.930218203935122612e-01 1.322413066325146858e+01
1.940623692901776443e-01 1.283227110127445059e+01
1.951029181868430273e-01 1.252237050804992435e+01
1.961434670835084104e-01 1.295898199511885807e+01
1.971840159801737935e-01 1.328375944914554907e+01
1.982245648768391766e-01 1.282613659352772828e+01
1.992651137735045597e-01 1.234739341577023808e+01
2.003056626701699428e-01 1.158151961688057696e+01
2.013462115668353813e-01 1.072723341638561934e+01
2.023867604635007644e-01 9.861414560187569123e+00
2.034273093601661475e-01 8.873603493147800947e+00
2.044678582568315306e-01 8.585396557244287408e+00
2.055084071534969137e-01 8.514637113958585246e+00
2.065489560501622968e-01 8.409199564329369991e+00
2.075895049468276798e-01 8.048349373538030704e+00
2.086300538434930629e-01 7.911701838316869129e+00
2.096706027401584460e-01 7.728711589636212409e+00
2.107111516368238291e-01 7.489039264143912078e+00
2.117517005334892122e-01 7.347115086702885378e+00
2.127922494301545953e-01 7.246864263091666203e+00
2.138327983268199783e-01 7.000328249885985343e+00
2.148733472234853614e-01 7.152914403617312900e+00
2.159138961201507445e-01 7.002481254171183167e+00
2.169544450168161276e-01 6.823666591533378067e+00
2.179949939134815107e-01 6.816745782642964713e+00
2.190355428101468938e-01 6.805627584086071380e+00
2.200760917068122768e-01 6.900403877284599474e+00
2.211166406034776599e-01 7.058092200621000956e+00
2.221571895001430430e-01 7.023256096956938421e+00
2.231977383968084261e-01 7.259541650311589933e+00
2.242382872934738092e-01 7.386932106115295937e+00
2.252788361901391923e-01 7.457353010450411546e+00
2.263193850868045753e-01 7.538962054887267783e+00
2.273599339834699584e-01 7.725438749192008459e+00
2.284004828801353415e-01 7.403063155109929738e+00
2.294410317768007246e-01 7.593513927729912183e+00
2.304815806734661077e-01 7.997444343351723717e+00
2.315221295701314908e-01 7.824380937289323157e+00
2.325626784667968738e-01 7.361065225186532501e+00
2.336032273634622569e-01 6.766628349493110761e+00
2.346437762601276400e-01 6.392871735117239496e+00
2.356843251567930231e-01 6.070553130940027131e+00
2.367248740534584062e-01 5.612631172506201693e+00
2.377654229501237892e-01 5.505256747991978727e+00
2.388059718467891723e-01 5.674261269845608524e+00
2.398465207434545554e-01 5.418660802379715591e+00
2.408870696401199385e-01 5.222748247218607531e+00
2.419276185367853216e-01 5.341657984071424892e+00
2.429681674334507047e-01 5.105186988231146472e+00
2.440087163301160877e-01 5.021007628116578303e+00
2.450492652267814708e-01 5.281271461546023005e+00
2.460898141234468539e-01 5.295131807610900410e+00
2.471303630201122370e-01 5.393400062555848251e+00
2.481709119167776201e-01 5.289270350842507185e+00
2.492114608134430032e-01 5.124537941682959286e+00
2.502520097101083585e-01 4.904244276855600049e+00
2.512925586067737416e-01 4.404195364944925473e+00
2.523331075034391247e-01 4.312815674988097925e+00
2.533736564001045077e-01 4.283341423687449634e+00
2.544142052967698908e-01 4.281836283819483668e+00
2.554547541934352739e-01 4.171733593347365598e+00
2.564953030901006570e-01 4.151369723637571951e+00
2.575358519867660401e-01 4.123518889319431224e+00
2.585764008834314231e-01 3.914044658511187436e+00
2.596169497800968062e-01 3.842037445804859175e+00
2.606574986767621893e-01 3.879409629469051879e+00
2.616980475734275724e-01 3.613763666446992318e+00
2.627385964700929555e-01 3.553069389203955097e+00
2.637791453667583386e-01 3.457593832856652227e+00
2.648196942634237216e-01 3.449386383825501667e+00
2.658602431600891047e-01 3.627766245515090304e+00
2.669007920567544878e-01 3.709530064138370165e+00
2.679413409534198709e-01 3.622524179203093553e+00
2.689818898500852540e-01 3.449638663017108087e+00
2.700224387467506371e-01 3.508722415864955479e+00
2.710629876434160201e-01 3.651496004767960102e+00
2.721035365400814032e-01 3.624393848846374055e+00
2.731440854367467863e-01 3.804662913673215741e+00
2.741846343334121694e-01 3.773770805257090188e+00
2.752251832300775525e-01 4.040837481755140459e+00
2.762657321267429356e-01 3.954615005895345092e+00
2.773062810234083186e-01 3.547079881268402346e+00
2.783468299200737017e-01 3.519798173801351737e+00
2.793873788167390848e-01 3.972266946748561622e+00
2.804279277134044679e-01 3.914228163541292105e+00
2.814684766100698510e-01 3.556722966451388857e+00
2.825090255067352341e-01 3.549150745301098198e+00
2.835495744034006171e-01 3.373610537372602636e+00
2.845901233000660002e-01 3.371240058792160710e+00
2.856306721967313833e-01 3.449531732317343113e+00
2.866712210933967664e-01 3.457797615391065449e+00
2.877117699900621495e-01 3.168961249438940087e+00
2.887523188867275326e-01 3.170469869530251117e+00
2.897928677833929156e-01 3.225119898105216265e+00
2.908334166800582987e-01 3.264434377652818853e+00
2.918739655767236818e-01 3.066729024227097256e+00
2.929145144733890649e-01 3.061141826655624953e+00
2.939550633700544480e-01 3.048478489279027315e+00
2.949956122667198311e-01 3.136827615669293579e+00
2.960361611633852141e-01 3.014423769401901154e+00
2.970767100600505972e-01 3.160290085821070960e+00
2.981172589567159803e-01 3.214583823152207032e+00
2.991578078533813634e-01 2.977760689081247136e+00
3.001983567500468020e-01 2.684051721359210774e+00
3.012389056467121851e-01 2.653554002638760068e+00
3.022794545433775681e-01 2.883303443006475675e+00
3.033200034400429512e-01 2.773631573371076797e+00
3.043605523367083343e-01 2.745687354592497798e+00
3.054011012333737174e-01 2.615857426391443141e+00
3.064416501300391005e-01 2.379897238892201727e+00
3.074821990267044836e-01 2.094462124836599770e+00
3.085227479233698666e-01 2.291882510847973009e+00
3.095632968200352497e-01 2.568845640687559495e+00
3.106038457167006328e-01 2.560309591457031075e+00
3.116443946133660159e-01 2.596887238171149193e+00
3.126849435100313990e-01 2.416621740437712162e+00
3.137254924066967821e-01 2.091712641407340811e+00
3.147660413033621651e-01 2.172274885075296424e+00
3.158065902000275482e-01 2.341781909445096233e+00
3.168471390966929313e-01 2.443747046998758776e+00
3.178876879933583144e-01 2.221244614689165786e+00
3.189282368900236975e-01 2.076738194489582412e+00
3.199687857866890806e-01 2.172809097175274928e+00
3.210093346833544636e-01 2.174758485864973778e+00
3.220498835800198467e-01 2.255383905911465092e+00
3.230904324766852298e-01 2.175115698016671928e+00
3.241309813733506129e-01 2.230480340327293476e+00
3.251715302700159960e-01 2.204247445862183241e+00
3.262120791666813790e-01 2.234174364014183567e+00
3.272526280633467621e-01 2.330030775193090875e+00
3.282931769600121452e-01 2.217549834946915155e+00
3.293337258566775283e-01 2.287885204515141879e+00
3.303742747533429114e-01 2.287682411821279516e+00
3.314148236500082945e-01 2.080714279509084719e+00
3.324553725466736775e-01 2.119271751660654957e+00
3.334959214433390606e-01 2.250801718974795307e+00
3.345364703400044437e-01 2.368106044667289467e+00
3.355770192366698268e-01 2.261419949947747199e+00
3.366175681333352099e-01 2.190813294754232032e+00
3.376581170300005930e-01 2.256956557590864776e+00
3.386986659266659760e-01 2.376725338288608214e+00
3.397392148233313591e-01 2.523484584021645105e+00
3.407797637199967422e-01 2.220021450844438249e+00
3.418203126166621253e-01 2.121690648314821459e+00
3.428608615133275084e-01 2.176272111620960459e+00
3.439014104099928915e-01 2.300790065874718238e+00
3.449419593066582745e-01 2.187604921466927976e+00
3.459825082033236576e-01 2.098983115958546364e+00
3.470230570999890407e-01 2.096107927346867683e+00
3.480636059966544238e-01 2.015585440195287958e+00
3.491041548933198069e-01 1.937543438467603352e+00
3.501447037899851900e-01 2.025097017968136015e+00
3.511852526866505730e-01 1.869991301245594428e+00
3.522258015833159561e-01 1.991375868086876721e+00
3.532663504799813392e-01 1.894247043920834983e+00
3.543068993766467223e-01 1.760821626315312471e+00
3.553474482733121054e-01 1.940996875049908255e+00
3.563879971699774885e-01 2.038232352331100117e+00
3.574285460666428715e-01 1.668567562309110741e+00
3.584690949633082546e-01 1.619402261508657404e+00
3.595096438599736377e-01 1.712400799372314708e+00
3.605501927566390208e-01 1.854572584571815952e+00
3.615907416533044039e-01 2.047794113247388026e+00
3.626312905499697870e-01 1.794342831412848227e+00
3.636718394466351700e-01 1.736848030203450577e+00
3.647123883433005531e-01 1.700496501361961066e+00
3.657529372399659362e-01 1.571492071406890290e+00
3.667934861366313193e-01 1.773541619653499879e+00
3.678340350332967024e-01 1.842488078845263999e+00
3.688745839299620854e-01 1.639488520215849121e+00
3.699151328266274685e-01 1.682397509133714664e+00
3.709556817232928516e-01 1.618561439338655816e+00
3.719962306199582347e-01 1.677447243265703491e+00
3.730367795166236178e-01 1.725040511207218685e+00
3.740773284132890009e-01 1.706065241265719123e+00
3.751178773099543839e-01 1.750766741294683015e+00
3.761584262066197670e-01 1.641228960247772761e+00
3.771989751032851501e-01 1.744083010295497616e+00
3.782395239999505332e-01 1.595869380425419592e+00
3.792800728966159163e-01 1.530875179750022852e+00
3.803206217932812994e-01 1.649713764073371891e+00
3.813611706899466824e-01 1.870529866560286081e+00
3.824017195866120655e-01 1.849799131103154082e+00
3.834422684832774486e-01 1.797626489390371063e+00
3.844828173799428317e-01 1.651883589778751826e+00
3.855233662766082148e-01 1.594217842451818967e+00
3.865639151732735979e-01 1.640881327955749924e+00
3.876044640699389809e-01 1.704948174284393048e+00
3.886450129666043640e-01 1.680361030335280503e+00
3.896855618632697471e-01 1.493128777247928696e+00
3.907261107599351302e-01 1.313346869197886235e+00
3.917666596566005133e-01 1.340385942142038544e+00
3.928072085532658964e-01 1.495115519663489323e+00
3.938477574499312794e-01 1.386495884005842782e+00
3.948883063465966625e-01 1.408022278283997508e+00
3.959288552432620456e-01 1.395172266899159297e+00
3.969694041399274287e-01 1.402406944627042407e+00
3.980099530365928118e-01 1.474075394361353375e+00
3.990505019332581949e-01 1.367674620903681415e+00
4.000910508299235779e-01 1.445182104202423545e+00
4.011315997265889610e-01 1.404529114478233254e+00
4.021721486232543441e-01 1.539974205275324692e+00
4.032126975199197272e-01 1.572480383923128500e+00
4.042532464165851103e-01 1.385655237058063705e+00
4.052937953132504934e-01 1.158772492806008358e+00
4.063343442099158764e-01 1.403279369133286991e+00
4.073748931065812595e-01 1.382337531675755571e+00
4.084154420032466426e-01 1.280692963043367882e+00
4.094559908999120257e-01 1.435468961617800687e+00
4.104965397965774088e-01 1.388379915106163764e+00
4.115370886932427918e-01 1.244207784005471495e+00
4.125776375899081749e-01 1.128526798670652198e+00
4.136181864865735580e-01 1.043595821656911227e+00
4.146587353832389411e-01 1.255432159728780306e+00
4.156992842799043242e-01 1.401715637731534514e+00
4.167398331765697073e-01 1.340883851726651699e+00
4.177803820732350903e-01 1.370811503473394311e+00
4.188209309699004734e-01 1.090877121463933008e+00
4.198614798665658565e-01 1.010147740611117229e+00
4.209020287632312396e-01 1.033701808094235730e+00
4.219425776598966227e-01 1.153887453418992237e+00
4.229831265565620058e-01 1.144445923641022489e+00
4.240236754532273888e-01 1.183910206219302097e+00
4.250642243498927719e-01 1.235688007147473400e+00
4.261047732465581550e-01 1.144281062825307060e+00
4.271453221432235381e-01 1.059971194868897015e+00
4.281858710398889212e-01 1.080221647489423731e+00
4.292264199365543043e-01 1.215010241658944778e+00
4.302669688332196873e-01 1.178923915022604518e+00
4.313075177298850704e-01 1.058504559743315809e+00
4.323480666265504535e-01 9.496286554151041059e-01
4.333886155232158366e-01 1.013580053927270797e+00
4.344291644198812197e-01 1.261229570258517896e+00
