# q (1/Angstrom), Intensity (arb)
2.029070354705860696e-02 9.402503373850421440e+02
2.133125244372399004e-02 8.336930336184809676e+02
2.237180134038937659e-02 7.502827868556332760e+02
2.341235023705475968e-02 6.836665361481404943e+02
2.445289913372014276e-02 6.285204551594824807e+02
2.549344803038552584e-02 5.829064287982290580e+02
2.653399692705091240e-02 5.495369477328094945e+02
2.757454582371629548e-02 5.160989306737487823e+02
2.861509472038167856e-02 4.893926849102297183e+02
2.965564361704706164e-02 4.710744875420584776e+02
3.069619251371244473e-02 4.547673212692504876e+02
3.173674141037782781e-02 4.435097835507933723e+02
3.277729030704321089e-02 4.329932532747009759e+02
3.381783920370859398e-02 4.309595972353368438e+02
3.485838810037397706e-02 4.259775445007962276e+02
3.589893699703936014e-02 4.217879684897003472e+02
3.693948589370474322e-02 4.204667464207367971e+02
3.798003479037012631e-02 4.273918246411555515e+02
3.902058368703550939e-02 4.357729121443970826e+02
4.006113258370089247e-02 4.443516088224750433e+02
4.110168148036627556e-02 4.611533096129827527e+02
4.214223037703165864e-02 4.857243408656627821e+02
4.318277927369704866e-02 5.130140439853680618e+02
4.422332817036243174e-02 5.499060393229499368e+02
4.526387706702781483e-02 6.065239520376489963e+02
4.630442596369319791e-02 7.004259277932391115e+02
4.734497486035858099e-02 8.778227372016835943e+02
4.838552375702396408e-02 1.252142789356876847e+03
4.942607265368934716e-02 1.897637376652433886e+03
5.046662155035473024e-02 2.919584061578639648e+03
5.150717044702011332e-02 4.473239995727915812e+03
5.254771934368549641e-02 5.283361453197734591e+03
5.358826824035087949e-02 4.427728212331225222e+03
5.462881713701626257e-02 3.498910122504270930e+03
5.566936603368164566e-02 3.269879515778024142e+03
5.670991493034702874e-02 3.346266827648084927e+03
5.775046382701241182e-02 3.491760343102492698e+03
5.879101272367779490e-02 3.629126991988453483e+03
5.983156162034317799e-02 3.673773908171575840e+03
6.087211051700856107e-02 3.535420921258616090e+03
6.191265941367394415e-02 3.269377074092053135e+03
6.295320831033933417e-02 2.972564155264999954e+03
6.399375720700471726e-02 2.673774905334172217e+03
6.503430610367010034e-02 2.378025316007644960e+03
6.607485500033548342e-02 2.080040163003454836e+03
6.711540389700086651e-02 1.791027820366474771e+03
6.815595279366624959e-02 1.522453463193955713e+03
6.919650169033163267e-02 1.280584375318393768e+03
7.023705058699701576e-02 1.065248996153595726e+03
7.127759948366239884e-02 8.811674868349407461e+02
7.231814838032778192e-02 7.283317473188320719e+02
7.335869727699316500e-02 6.014546629249044827e+02
7.439924617365854809e-02 4.996156740492502308e+02
7.543979507032393117e-02 4.171060577868531709e+02
7.648034396698931425e-02 3.510356317148200560e+02
7.752089286365469734e-02 2.962085564781872336e+02
7.856144176032008042e-02 2.549774969019431410e+02
7.960199065698546350e-02 2.239542535092732010e+02
8.064253955365084658e-02 2.043750487743899953e+02
8.168308845031622967e-02 1.950461791868760884e+02
8.272363734698161275e-02 2.064878510828870617e+02
8.376418624364699583e-02 2.582957397085692719e+02
8.480473514031239279e-02 3.424160247927213163e+02
8.584528403697777588e-02 3.656917866278824931e+02
8.688583293364315896e-02 2.905963100287564203e+02
8.792638183030854204e-02 2.138663860517516753e+02
8.896693072697392513e-02 1.792285073683015355e+02
9.000747962363930821e-02 1.673935627038844700e+02
9.104802852030469129e-02 1.664780804861817387e+02
9.208857741697007437e-02 1.690571365715564127e+02
9.312912631363545746e-02 1.740464254991211988e+02
9.416967521030084054e-02 1.798378252692805006e+02
9.521022410696622362e-02 1.893280024535361576e+02
9.625077300363160671e-02 2.045177616541812995e+02
9.729132190029698979e-02 2.352683767912936901e+02
9.833187079696237287e-02 2.940777939934292817e+02
9.937241969362775595e-02 3.748944058216036410e+02
1.004129685902931390e-01 4.067358011112677900e+02
1.014535174869585221e-01 3.466055514437090324e+02
1.024940663836239052e-01 2.773306252381124750e+02
1.035346152802892883e-01 2.482121004657971355e+02
1.045751641769546714e-01 2.353902789794159389e+02
1.056157130736200545e-01 2.164881256578273110e+02
1.066562619702854375e-01 1.993771167629096226e+02
1.076968108669508206e-01 1.912437460347110516e+02
1.087373597636162037e-01 1.892805551386779257e+02
1.097779086602815868e-01 1.897648857468206529e+02
1.108184575569469699e-01 1.896244803751419568e+02
1.118590064536123529e-01 1.891695676833953428e+02
1.128995553502777360e-01 1.877641519897940725e+02
1.139401042469431191e-01 1.849184704615202861e+02
1.149806531436085022e-01 1.808576565972300330e+02
1.160212020402738853e-01 1.744270698862661106e+02
1.170617509369392684e-01 1.661681778547690271e+02
1.181022998336046514e-01 1.578321486941646299e+02
1.191428487302700345e-01 1.496991708255495439e+02
1.201833976269354176e-01 1.386562242315081903e+02
1.212239465236008007e-01 1.288679420013605750e+02
1.222644954202661838e-01 1.190539498767855378e+02
1.233050443169315669e-01 1.096747808417921561e+02
1.243455932135969499e-01 1.010627376997872773e+02
1.253861421102623330e-01 9.307637246895508554e+01
1.264266910069277161e-01 8.517340803226551316e+01
1.274672399035930992e-01 7.948839875329778693e+01
1.285077888002584823e-01 7.522738075027585580e+01
1.295483376969238654e-01 7.500068754209797817e+01
1.305888865935892484e-01 7.832724025842404103e+01
1.316294354902546315e-01 8.263361547144604913e+01
1.326699843869200146e-01 8.410320778166726541e+01
1.337105332835853977e-01 8.458222748633136234e+01
1.347510821802507808e-01 8.408373634536495445e+01
1.357916310769161639e-01 7.546938047916377457e+01
1.368321799735815469e-01 5.914530261871534833e+01
1.378727288702469300e-01 4.725062989236955957e+01
1.389132777669123131e-01 4.091813215400013348e+01
1.399538266635776962e-01 3.733539009911621775e+01
1.409943755602430793e-01 3.519157513019016648e+01
1.420349244569084624e-01 3.393332323693086039e+01
1.430754733535738454e-01 3.351627151575758745e+01
1.441160222502392285e-01 3.477866059366465379e+01
1.451565711469046116e-01 3.729376705957382399e+01
1.461971200435699947e-01 4.019989169258038686e+01
1.472376689402353778e-01 4.389435925638595393e+01
1.482782178369007609e-01 4.518672079067818004e+01
1.493187667335661439e-01 4.235914878262192929e+01
1.503593156302315270e-01 3.826918978669873184e+01
1.513998645268969101e-01 3.530281579989403440e+01
1.524404134235622932e-01 3.412169080288603595e+01
1.534809623202276763e-01 3.355845757047177358e+01
1.545215112168930593e-01 3.349700002566348900e+01
1.555620601135584424e-01 3.452748800320375011e+01
1.566026090102238255e-01 3.473772396483869329e+01
1.576431579068892086e-01 3.356116288793945301e+01
1.586837068035545917e-01 3.105122910201977859e+01
1.597242557002199748e-01 2.881343022177030022e+01
1.607648045968853578e-01 2.745961764104295710e+01
1.618053534935507409e-01 2.646217356259517217e+01
1.628459023902161240e-01 2.587697394524301231e+01
1.638864512868815071e-01 2.543360946014374235e+01
1.649270001835468902e-01 2.446905460191120341e+01
1.659675490802122733e-01 2.428676320220937868e+01
1.670080979768776563e-01 2.413294110672980608e+01
1.680486468735430672e-01 2.365156356015935657e+01
1.690891957702084503e-01 2.313063184623215918e+01
1.701297446668738333e-01 2.252396053259350950e+01
1.711702935635392164e-01 2.195952373475238417e+01
1.722108424602045995e-01 2.163278942314623521e+01
1.732513913568699826e-01 2.137915250733045625e+01
1.742919402535353657e-01 2.094612037425828532e+01
1.753324891502007488e-01 2.101986890191172819e+01
1.763730380468661318e-01 2.223208995413872557e+01
1.774135869435315149e-01 2.376443708692043799e+01
1.784541358401968980e-01 2.525284297480996543e+01
1.794946847368622811e-01 2.543634591826555891e+01
1.805352336335276642e-01 2.470867062209707754e+01
1.815757825301930473e-01 2.306987895964845592e+01
1.826163314268584303e-01 2.084837157666417440e+01
1.836568803235238134e-01 1.877284498394235968e+01
1.846974292201891965e-01 1.704612754772598038e+01
1.857379781168545796e-01 1.618026739633205224e+01
1.867785270135199627e-01 1.550562220540825109e+01
1.878190759101853458e-01 1.523388731825913922e+01
1.888596248068507288e-01 1.511427818989134053e+01
1.899001737035161119e-01 1.493495419094211840e+01
1.909407226001814950e-01 1.468671845731480374e+01
1.919812714968468781e-01 1.435087057759158569e+01
1.930218203935122612e-01 1.397181356447635991e+01
1.940623692901776443e-01 1.298072321254519323e+01
1.951029181868430273e-01 1.238913147187795971e+01
1.961434670835084104e-01 1.244086532408946155e+01
1.971840159801737935e-01 1.244590082680891285e+01
1.982245648768391766e-01 1.250589198464786733e+01
1.992651137735045597e-01 1.286002160141257278e+01
2.003056626701699428e-01 1.202894357031360784e+01
2.013462115668353813e-01 1.111960500997090406e+01
2.023867604635007644e-01 1.033670520946263238e+01
2.034273093601661475e-01 9.376089227574389895e+00
2.044678582568315306e-01 8.939152954575931176e+00
2.055084071534969137e-01 8.712892032361001071e+00
2.065489560501622968e-01 8.222305157969135081e+00
2.075895049468276798e-01 7.879575044382800542e+00
2.086300538434930629e-01 8.020264997648851590e+00
2.096706027401584460e-01 7.954011006944284645e+00
2.107111516368238291e-01 7.720084469722788612e+00
2.117517005334892122e-01 7.616562313246632243e+00
2.127922494301545953e-01 7.500031517848970708e+00
2.138327983268199783e-01 7.343703492000152266e+00
2.148733472234853614e-01 7.059287051679895342e+00
2.159138961201507445e-01 7.413925994961900301e+00
2.169544450168161276e-01 7.453518496812307603e+00
2.179949939134815107e-01 7.087839357480405056e+00
2.190355428101468938e-01 6.867784930370451235e+00
2.200760917068122768e-01 6.734045275120124074e+00
2.211166406034776599e-01 6.626883231245759731e+00
2.221571895001430430e-01 6.958959021322360883e+00
2.231977383968084261e-01 7.200862335193676245e+00
2.242382872934738092e-01 7.270737157842674492e+00
2.252788361901391923e-01 7.693631710842346649e+00
2.263193850868045753e-01 7.965611872867224719e+00
2.273599339834699584e-01 7.621370634122715870e+00
2.284004828801353415e-01 7.704604974252116989e+00
2.294410317768007246e-01 7.524290570037351245e+00
2.304815806734661077e-01 7.774933055827908390e+00
2.315221295701314908e-01 7.894231755470929812e+00
2.325626784667968738e-01 7.847920480695258050e+00
2.336032273634622569e-01 7.776051618339835159e+00
2.346437762601276400e-01 6.790568611340574989e+00
2.356843251567930231e-01 5.981169342552629331e+00
2.367248740534584062e-01 5.899410884316324655e+00
2.377654229501237892e-01 5.701566850863006408e+00
2.388059718467891723e-01 5.609947652361512382e+00
2.398465207434545554e-01 5.251989242449123907e+00
2.408870696401199385e-01 5.450716130863444420e+00
2.419276185367853216e-01 5.469660213471712495e+00
2.429681674334507047e-01 5.269817280934109505e+00
2.440087163301160877e-01 5.107803821866127691e+00
2.450492652267814708e-01 5.277568136294803480e+00
2.460898141234468539e-01 5.046933640737581328e+00
2.471303630201122370e-01 4.948284355427698955e+00
2.481709119167776201e-01 5.282487797479234359e+00
2.492114608134430032e-01 5.234906693830790658e+00
2.502520097101083585e-01 5.111832165532099737e+00
2.512925586067737416e-01 4.978418019381219750e+00
2.523331075034391247e-01 4.777679651484842083e+00
2.533736564001045077e-01 4.663482879624524458e+00
2.544142052967698908e-01 4.266077355233775847e+00
2.554547541934352739e-01 3.962030155218958072e+00
2.564953030901006570e-01 3.680592727342421711e+00
2.575358519867660401e-01 3.651696469469886352e+00
2.585764008834314231e-01 3.841905257398337881e+00
2.596169497800968062e-01 3.760547875812015661e+00
2.606574986767621893e-01 3.496831142449600804e+00
2.616980475734275724e-01 3.491988341895204684e+00
2.627385964700929555e-01 3.480684583542132060e+00
2.637791453667583386e-01 3.470330728878057158e+00
2.648196942634237216e-01 3.576838458212190375e+00
2.658602431600891047e-01 3.425539515443031036e+00
2.669007920567544878e-01 3.684735661839880549e+00
2.679413409534198709e-01 3.621353341226445366e+00
2.689818898500852540e-01 3.423938910966779048e+00
2.700224387467506371e-01 3.494343797196542312e+00
2.710629876434160201e-01 3.659168672764547381e+00
2.721035365400814032e-01 3.568880135761958172e+00
2.731440854367467863e-01 3.395546185850932375e+00
2.741846343334121694e-01 3.675647287206139424e+00
2.752251832300775525e-01 3.830617569114121324e+00
2.762657321267429356e-01 3.950119594121904498e+00
2.773062810234083186e-01 4.021203635891993144e+00
2.783468299200737017e-01 3.680236992729120971e+00
2.793873788167390848e-01 3.579790542545371324e+00
2.804279277134044679e-01 3.636750445107615803e+00
2.814684766100698510e-01 3.412491014164412917e+00
2.825090255067352341e-01 3.321406409812951210e+00
2.835495744034006171e-01 3.517989069336415753e+00
2.845901233000660002e-01 3.438275834105464668e+00
2.856306721967313833e-01 3.422942135983209511e+00
2.866712210933967664e-01 3.412576747505372765e+00
2.877117699900621495e-01 3.643486547323146141e+00
2.887523188867275326e-01 3.367449486508274248e+00
2.897928677833929156e-01 3.159318439571421777e+00
2.908334166800582987e-01 3.120488264873614526e+00
2.918739655767236818e-01 3.184292084241704401e+00
2.929145144733890649e-01 3.081948741415729387e+00
2.939550633700544480e-01 3.218037443745988213e+00
2.949956122667198311e-01 3.078930303123545542e+00
2.960361611633852141e-01 2.926163663020961536e+00
2.970767100600505972e-01 2.801603341231821531e+00
2.981172589567159803e-01 2.756126370763347211e+00
2.991578078533813634e-01 2.856815667972604444e+00
3.001983567500468020e-01 2.919065533195421835e+00
3.012389056467121851e-01 2.825617294928914447e+00
3.022794545433775681e-01 2.915891105463376931e+00
3.033200034400429512e-01 2.669917964627661178e+00
3.043605523367083343e-01 2.464473581022431858e+00
3.054011012333737174e-01 2.469040056267438388e+00
3.064416501300391005e-01 2.652030187782870030e+00
3.074821990267044836e-01 2.678051627214603769e+00
3.085227479233698666e-01 2.420843274252568733e+00
3.095632968200352497e-01 2.265133619155339062e+00
3.106038457167006328e-01 2.280834702934260605e+00
3.116443946133660159e-01 2.559990363107079503e+00
3.126849435100313990e-01 2.441129057037400685e+00
3.137254924066967821e-01 2.482116290390973035e+00
3.147660413033621651e-01 2.579403993514326032e+00
3.158065902000275482e-01 2.410006867399477670e+00
3.168471390966929313e-01 2.379299162387898292e+00
3.178876879933583144e-01 2.228845209148577311e+00
3.189282368900236975e-01 1.883365791171044634e+00
3.199687857866890806e-01 2.292318223176813774e+00
3.210093346833544636e-01 2.440608412005836669e+00
3.220498835800198467e-01 2.221675487465645915e+00
3.230904324766852298e-01 2.315540303396744548e+00
3.241309813733506129e-01 2.497762777350626351e+00
3.251715302700159960e-01 2.234982201200772067e+00
3.262120791666813790e-01 2.251590448659452903e+00
3.272526280633467621e-01 2.420967687490435338e+00
3.282931769600121452e-01 2.552905377737957338e+00
3.293337258566775283e-01 2.226991950758822725e+00
3.303742747533429114e-01 2.330785093205896885e+00
3.314148236500082945e-01 2.255760863427020979e+00
3.324553725466736775e-01 2.218220193588724243e+00
3.334959214433390606e-01 2.202754170291914448e+00
3.345364703400044437e-01 2.182181652686363549e+00
3.355770192366698268e-01 2.382870532266196051e+00
3.366175681333352099e-01 2.105003394273794015e+00
3.376581170300005930e-01 2.073644708002593262e+00
3.386986659266659760e-01 2.031042173816636875e+00
3.397392148233313591e-01 2.311387730773784455e+00
3.407797637199967422e-01 2.357078499759559520e+00
3.418203126166621253e-01 1.951318622448368956e+00
3.428608615133275084e-01 1.740673732038828803e+00
3.439014104099928915e-01 1.878300516290462241e+00
3.449419593066582745e-01 1.992867287249698194e+00
3.459825082033236576e-01 1.907936552217240234e+00
3.470230570999890407e-01 1.823363477229868579e+00
3.480636059966544238e-01 2.190271816871728561e+00
3.491041548933198069e-01 2.012530332931795840e+00
3.501447037899851900e-01 2.000340435272793371e+00
3.511852526866505730e-01 1.981823818742928012e+00
3.522258015833159561e-01 1.857303168871236920e+00
3.532663504799813392e-01 1.817377443175740126e+00
3.543068993766467223e-01 1.761680502638242274e+00
3.553474482733121054e-01 1.680619555529958120e+00
3.563879971699774885e-01 1.646792610926038236e+00
3.574285460666428715e-01 1.775574774368934072e+00
3.584690949633082546e-01 1.681989854965575404e+00
3.595096438599736377e-01 1.768685191999153972e+00
3.605501927566390208e-01 1.569714731978059774e+00
3.615907416533044039e-01 1.652928040505432961e+00
3.626312905499697870e-01 1.674938521548245518e+00
3.636718394466351700e-01 1.467840832028592502e+00
3.647123883433005531e-01 1.512168551188377563e+00
3.657529372399659362e-01 1.515535324693644270e+00
3.667934861366313193e-01 1.532802985644288185e+00
3.678340350332967024e-01 1.372757652560121500e+00
3.688745839299620854e-01 1.563629888051998762e+00
3.699151328266274685e-01 1.908053529773091839e+00
3.709556817232928516e-01 1.784329320330815705e+00
3.719962306199582347e-01 1.573199543418532187e+00
3.730367795166236178e-01 1.681273183865808818e+00
3.740773284132890009e-01 1.717405053999751630e+00
3.751178773099543839e-01 1.705676697077105786e+00
3.761584262066197670e-01 1.554457423692870321e+00
3.771989751032851501e-01 1.651858695786025066e+00
3.782395239999505332e-01 1.486360355336497463e+00
3.792800728966159163e-01 1.554324161791058145e+00
3.803206217932812994e-01 1.501020464755185913e+00
3.813611706899466824e-01 1.381524794983732818e+00
3.824017195866120655e-01 1.397504772230661274e+00
3.834422684832774486e-01 1.426136535425467144e+00
3.844828173799428317e-01 1.609289418934931604e+00
3.855233662766082148e-01 1.540720671270396025e+00
3.865639151732735979e-01 1.598737533419885892e+00
3.876044640699389809e-01 1.564309840730025769e+00
3.886450129666043640e-01 1.487829726657629692e+00
3.896855618632697471e-01 1.529915089003644368e+00
3.907261107599351302e-01 1.675283398986888272e+00
3.917666596566005133e-01 1.681399886827279033e+00
3.928072085532658964e-01 1.863530289340530999e+00
3.938477574499312794e-01 1.657365543055799861e+00
3.948883063465966625e-01 1.381784352601496124e+00
3.959288552432620456e-01 1.234613834219572936e+00
3.969694041399274287e-01 1.241636717919316624e+00
3.980099530365928118e-01 1.549231478232151460e+00
3.990505019332581949e-01 1.441682531904163511e+00
4.000910508299235779e-01 1.358072634793902722e+00
4.011315997265889610e-01 1.551297759104521390e+00
4.021721486232543441e-01 1.273208542692533030e+00
4.032126975199197272e-01 1.107848259874035790e+00
4.042532464165851103e-01 1.356456928276532636e+00
4.052937953132504934e-01 1.218373639870588221e+00
4.063343442099158764e-01 1.223924004159655965e+00
4.073748931065812595e-01 1.253400104812442351e+00
4.084154420032466426e-01 1.373375051039616324e+00
4.094559908999120257e-01 1.275476111397807699e+00
4.104965397965774088e-01 1.045433251659591889e+00
4.115370886932427918e-01 1.157790874970064721e+00
4.125776375899081749e-01 1.226106433651157346e+00
4.136181864865735580e-01 1.175542310789207789e+00
4.146587353832389411e-01 1.288199505386092625e+00
4.156992842799043242e-01 1.404443632797626407e+00
4.167398331765697073e-01 1.291984803307425267e+00
4.177803820732350903e-01 1.033546120520423273e+00
4.188209309699004734e-01 1.074585914324593716e+00
4.198614798665658565e-01 1.247449781558088944e+00
4.209020287632312396e-01 1.050867205821631956e+00
4.219425776598966227e-01 1.125615199330301408e+00
4.229831265565620058e-01 1.089164689560302435e+00
4.240236754532273888e-01 1.069037419675481715e+00
4.250642243498927719e-01 1.130903152631290709e+00
4.261047732465581550e-01 1.164261995391093762e+00
4.271453221432235381e-01 1.196230493549162333e+00
4.281858710398889212e-01 1.136228270128224693e+00
4.292264199365543043e-01 9.728827313451020586e-01
4.302669688332196873e-01 1.124234773872004212e+00
4.313075177298850704e-01 1.155604673576061003e+00
4.323480666265504535e-01 1.151584835699537734e+00
4.333886155232158366e-01 1.058161072609649977e+00
4.344291644198812197e-01 1.104527814649976847e+00
