# q (1/Angstrom), Intensity (arb)
2.029070354705860696e-02 9.323243653891371423e+02
2.133125244372399004e-02 8.350860755100858341e+02
2.237180134038937659e-02 7.526617174165669439e+02
2.341235023705475968e-02 6.810244916907060997e+02
2.445289913372014276e-02 6.264882083616361115e+02
2.549344803038552584e-02 5.798950985427571823e+02
2.653399692705091240e-02 5.438195912552744176e+02
2.757454582371629548e-02 5.122761505955401162e+02
2.861509472038167856e-02 4.849977842032383819e+02
2.965564361704706164e-02 4.697555637264390498e+02
3.069619251371244473e-02 4.531610864557156901e+02
3.173674141037782781e-02 4.430185910397631233e+02
3.277729030704321089e-02 4.329145596651101187e+02
3.381783920370859398e-02 4.261463110907690179e+02
3.485838810037397706e-02 4.227952065390784355e+02
3.589893699703936014e-02 4.228182326127212036e+02
3.693948589370474322e-02 4.216579683857280543e+02
3.798003479037012631e-02 4.279609363329993243e+02
3.902058368703550939e-02 4.383613140053347479e+02
4.006113258370089247e-02 4.498344048023872688e+02
4.110168148036627556e-02 4.624307898485031387e+02
4.214223037703165864e-02 4.853746119318336696e+02
4.318277927369704866e-02 5.163778485083973919e+02
4.422332817036243174e-02 5.607835596079762581e+02
4.526387706702781483e-02 6.203423864822270843e+02
4.630442596369319791e-02 7.209861464821193522e+02
4.734497486035858099e-02 9.254014433641303867e+02
4.838552375702396408e-02 1.340984116517084885e+03
4.942607265368934716e-02 2.044512021780984014e+03
5.046662155035473024e-02 3.173951918569860482e+03
5.150717044702011332e-02 4.788299957718461883e+03
5.254771934368549641e-02 5.383688742612463102e+03
5.358826824035087949e-02 4.376789935518761013e+03
5.462881713701626257e-02 3.528659133505257159e+03
5.566936603368164566e-02 3.360997825896446557e+03
5.670991493034702874e-02 3.461103612029986834e+03
5.775046382701241182e-02 3.622769707106370788e+03
5.879101272367779490e-02 3.750989776346595136e+03
5.983156162034317799e-02 3.757388850875369826e+03
6.087211051700856107e-02 3.591095153469377692e+03
6.191265941367394415e-02 3.305069052183668191e+03
6.295320831033933417e-02 3.001225068375699720e+03
6.399375720700471726e-02 2.691416155254546538e+03
6.503430610367010034e-02 2.382109649008570614e+03
6.607485500033548342e-02 2.076905241520943491e+03
6.711540389700086651e-02 1.788668877681645654e+03
6.815595279366624959e-02 1.519762807941929168e+03
6.919650169033163267e-02 1.270575257559746660e+03
7.023705058699701576e-02 1.053319251172088116e+03
7.127759948366239884e-02 8.723310087020671517e+02
7.231814838032778192e-02 7.177310377231763141e+02
7.335869727699316500e-02 5.941677421720029315e+02
7.439924617365854809e-02 4.944845475666348875e+02
7.543979507032393117e-02 4.126910934147584271e+02
7.648034396698931425e-02 3.463702998415627690e+02
7.752089286365469734e-02 2.950628464321018782e+02
7.856144176032008042e-02 2.547692857084144293e+02
7.960199065698546350e-02 2.243558190417442404e+02
8.064253955365084658e-02 2.030303302970740162e+02
8.168308845031622967e-02 1.962930373412218046e+02
8.272363734698161275e-02 2.161143359051155528e+02
8.376418624364699583e-02 2.771084449240827325e+02
8.480473514031239279e-02 3.554335628027154144e+02
8.584528403697777588e-02 3.540924636322102970e+02
8.688583293364315896e-02 2.691244406734051609e+02
8.792638183030854204e-02 2.017926572475910802e+02
8.896693072697392513e-02 1.749958860032742507e+02
9.000747962363930821e-02 1.680489598731611807e+02
9.104802852030469129e-02 1.675645350746501663e+02
9.208857741697007437e-02 1.702918556532987111e+02
9.312912631363545746e-02 1.750001281760998495e+02
9.416967521030084054e-02 1.829980569781985480e+02
9.521022410696622362e-02 1.924960749765466801e+02
9.625077300363160671e-02 2.104701473471457689e+02
9.729132190029698979e-02 2.468871852533635831e+02
9.833187079696237287e-02 3.176860412636942215e+02
9.937241969362775595e-02 3.966227269668005988e+02
1.004129685902931390e-01 4.058494711387646134e+02
1.014535174869585221e-01 3.340489956316686175e+02
1.024940663836239052e-01 2.709072345700599840e+02
1.035346152802892883e-01 2.482813001360711382e+02
1.045751641769546714e-01 2.350463476781133068e+02
1.056157130736200545e-01 2.151188178966330895e+02
1.066562619702854375e-01 1.991139533166209219e+02
1.076968108669508206e-01 1.924740267601154926e+02
1.087373597636162037e-01 1.920255230021935233e+02
1.097779086602815868e-01 1.938515699903479117e+02
1.108184575569469699e-01 1.944707227512718077e+02
1.118590064536123529e-01 1.930094438486907791e+02
1.128995553502777360e-01 1.910304502821701362e+02
1.139401042469431191e-01 1.872494804679772074e+02
1.149806531436085022e-01 1.818765355540024586e+02
1.160212020402738853e-01 1.755532439607897572e+02
1.170617509369392684e-01 1.668438657733836408e+02
1.181022998336046514e-01 1.588277468757808037e+02
1.191428487302700345e-01 1.492393648631139627e+02
1.201833976269354176e-01 1.380712192001511482e+02
1.212239465236008007e-01 1.273363225413062594e+02
1.222644954202661838e-01 1.178352973884736485e+02
1.233050443169315669e-01 1.080488687819425877e+02
1.243455932135969499e-01 9.913585144327014120e+01
1.253861421102623330e-01 9.112022779241084436e+01
1.264266910069277161e-01 8.440031291062828700e+01
1.274672399035930992e-01 7.865895512063838169e+01
1.285077888002584823e-01 7.517625269070447303e+01
1.295483376969238654e-01 7.607022053257674088e+01
1.305888865935892484e-01 8.021681277965882373e+01
1.316294354902546315e-01 8.235933228397205141e+01
1.326699843869200146e-01 8.346152449333330026e+01
1.337105332835853977e-01 8.429589247996025847e+01
1.347510821802507808e-01 8.147201923140066526e+01
1.357916310769161639e-01 6.986040524939954821e+01
1.368321799735815469e-01 5.406803470899640729e+01
1.378727288702469300e-01 4.392693050494163742e+01
1.389132777669123131e-01 3.866368398105058191e+01
1.399538266635776962e-01 3.615703283888529995e+01
1.409943755602430793e-01 3.494614821466055332e+01
1.420349244569084624e-01 3.463972780144067798e+01
1.430754733535738454e-01 3.461822706052608112e+01
1.441160222502392285e-01 3.548369829124092689e+01
1.451565711469046116e-01 3.791071982694536757e+01
1.461971200435699947e-01 4.238378336410968927e+01
1.472376689402353778e-01 4.534811221990413088e+01
1.482782178369007609e-01 4.507989250050415109e+01
1.493187667335661439e-01 4.082130981189587970e+01
1.503593156302315270e-01 3.684793793395824935e+01
1.513998645268969101e-01 3.441345407456634575e+01
1.524404134235622932e-01 3.385612766330754653e+01
1.534809623202276763e-01 3.340621274289483722e+01
1.545215112168930593e-01 3.390431831800509599e+01
1.555620601135584424e-01 3.458203182874522952e+01
1.566026090102238255e-01 3.456371361185033209e+01
1.576431579068892086e-01 3.229914000943750807e+01
1.586837068035545917e-01 2.981506067624665235e+01
1.597242557002199748e-01 2.810958405506834978e+01
1.607648045968853578e-01 2.666353391233178272e+01
1.618053534935507409e-01 2.558651379194579434e+01
1.628459023902161240e-01 2.487104023503078309e+01
1.638864512868815071e-01 2.496093369139400409e+01
1.649270001835468902e-01 2.448155967392372645e+01
1.659675490802122733e-01 2.382791488665447233e+01
1.670080979768776563e-01 2.312386767132676013e+01
1.680486468735430672e-01 2.261454689445467636e+01
1.690891957702084503e-01 2.235131691761044337e+01
1.701297446668738333e-01 2.198177136915423802e+01
1.711702935635392164e-01 2.138584553556769308e+01
1.722108424602045995e-01 2.121559397704542960e+01
1.732513913568699826e-01 2.087402068948772182e+01
1.742919402535353657e-01 2.090769989947650842e+01
1.753324891502007488e-01 2.140064102739780338e+01
1.763730380468661318e-01 2.244691860786769411e+01
1.774135869435315149e-01 2.370475342653567097e+01
1.784541358401968980e-01 2.503152064833761870e+01
1.794946847368622811e-01 2.538315364656995143e+01
1.805352336335276642e-01 2.381105566358620962e+01
1.815757825301930473e-01 2.161426556003598876e+01
1.826163314268584303e-01 1.950256045706734298e+01
1.836568803235238134e-01 1.738714555082146873e+01
1.846974292201891965e-01 1.625960836400876275e+01
1.857379781168545796e-01 1.560031463337474733e+01
1.867785270135199627e-01 1.544349340323748265e+01
1.878190759101853458e-01 1.549477526738120048e+01
1.888596248068507288e-01 1.526291693011871686e+01
1.899001737035161119e-01 1.506517281987124690e+01
1.909407226001814950e-01 1.498693833427850919e+01
1.919812714968468781e-01 1.445532316138449858e+01
1.930218203935122612e-01 1.338950941406238471e+01
1.940623692901776443e-01 1.247489443629790884e+01
1.951029181868430273e-01 1.246349330134151501e+01
1.961434670835084104e-01 1.293310123802827860e+01
1.971840159801737935e-01 1.329507280971552419e+01
1.982245648768391766e-01 1.289320277231661649e+01
1.992651137735045597e-01 1.244549575288308318e+01
2.003056626701699428e-01 1.188990276900807075e+01
2.013462115668353813e-01 1.067099624076493214e+01
2.023867604635007644e-01 9.569480658290654418e+00
2.034273093601661475e-01 9.025535301326005566e+00
2.044678582568315306e-01 8.632845780921893919e+00
2.055084071534969137e-01 8.246857659800838292e+00
2.065489560501622968e-01 8.049745657971847379e+00
2.075895049468276798e-01 8.046100541140862816e+00
2.086300538434930629e-01 7.929879883948551367e+00
2.096706027401584460e-01 7.594869314773763591e+00
2.107111516368238291e-01 7.328050234405178998e+00
2.117517005334892122e-01 7.402262289934078865e+00
2.127922494301545953e-01 7.195616808773486639e+00
2.138327983268199783e-01 7.304824453502327231e+00
2.148733472234853614e-01 7.383741313991812660e+00
2.159138961201507445e-01 7.040481864053749206e+00
2.169544450168161276e-01 6.953880079776457279e+00
2.179949939134815107e-01 6.791889573215605935e+00
2.190355428101468938e-01 6.861778379060922362e+00
2.200760917068122768e-01 6.910382618150528344e+00
2.211166406034776599e-01 6.689302239699369323e+00
2.221571895001430430e-01 6.823766644382526891e+00
2.231977383968084261e-01 7.082050397799232400e+00
2.242382872934738092e-01 7.525137448255527772e+00
2.252788361901391923e-01 7.862869396619835527e+00
2.263193850868045753e-01 7.635741452870139057e+00
2.273599339834699584e-01 7.410389660555026126e+00
2.284004828801353415e-01 7.710317595536331226e+00
2.294410317768007246e-01 7.709263480476348462e+00
2.304815806734661077e-01 7.819426140543058068e+00
2.315221295701314908e-01 7.748892936748958959e+00
2.325626784667968738e-01 7.357124153868259242e+00
2.336032273634622569e-01 6.725640681680427946e+00
2.346437762601276400e-01 6.334715748675165514e+00
2.356843251567930231e-01 5.922328002303114403e+00
2.367248740534584062e-01 5.764628443711643513e+00
2.377654229501237892e-01 5.585375186013219917e+00
2.388059718467891723e-01 5.480458777905973022e+00
2.398465207434545554e-01 5.443874614320730387e+00
2.408870696401199385e-01 5.209284802592211605e+00
2.419276185367853216e-01 4.918073566902364746e+00
2.429681674334507047e-01 4.704061424440180161e+00
2.440087163301160877e-01 5.160242801362798559e+00
2.450492652267814708e-01 5.245574883166007396e+00
2.460898141234468539e-01 5.262976698131044628e+00
2.471303630201122370e-01 5.294011191371964742e+00
2.481709119167776201e-01 5.408140422583119999e+00
2.492114608134430032e-01 5.181334262559470716e+00
2.502520097101083585e-01 4.646176886192417754e+00
2.512925586067737416e-01 4.357329615867246986e+00
2.523331075034391247e-01 4.331427495875388445e+00
2.533736564001045077e-01 4.185117444007932619e+00
2.544142052967698908e-01 4.149278718949368283e+00
2.554547541934352739e-01 4.060393072689056027e+00
2.564953030901006570e-01 3.961716207115106414e+00
2.575358519867660401e-01 4.064663537714128694e+00
2.585764008834314231e-01 3.859863535618959673e+00
2.596169497800968062e-01 3.731626382281934440e+00
2.606574986767621893e-01 3.481282579687462686e+00
2.616980475734275724e-01 3.520436332662377765e+00
2.627385964700929555e-01 3.382484712318539977e+00
2.637791453667583386e-01 3.404694439428581632e+00
2.648196942634237216e-01 3.223856241200227402e+00
2.658602431600891047e-01 3.132641316511403318e+00
2.669007920567544878e-01 3.150427280002652708e+00
2.679413409534198709e-01 3.156743584448499007e+00
2.689818898500852540e-01 3.393918312491617684e+00
2.700224387467506371e-01 3.360149515917811414e+00
2.710629876434160201e-01 3.288332113666790235e+00
2.721035365400814032e-01 3.317531947587308849e+00
2.731440854367467863e-01 3.481493663680769401e+00
2.741846343334121694e-01 3.494622292954471021e+00
2.752251832300775525e-01 3.682850106531539325e+00
2.762657321267429356e-01 3.768548266564213378e+00
2.773062810234083186e-01 3.655745093370878607e+00
2.783468299200737017e-01 3.500589761974246983e+00
2.793873788167390848e-01 3.572893526833986755e+00
2.804279277134044679e-01 3.217371254697322769e+00
2.814684766100698510e-01 3.236387950961777449e+00
2.825090255067352341e-01 3.665842040812343328e+00
2.835495744034006171e-01 3.613147000075070281e+00
2.845901233000660002e-01 3.466280111748741177e+00
2.856306721967313833e-01 3.366798381482343672e+00
2.866712210933967664e-01 3.427915580388372518e+00
2.877117699900621495e-01 3.333247214897170352e+00
2.887523188867275326e-01 3.202090721713322097e+00
2.897928677833929156e-01 3.043220423787190043e+00
2.908334166800582987e-01 3.240687952670359806e+00
2.918739655767236818e-01 3.214675692790514461e+00
2.929145144733890649e-01 2.988552392104246280e+00
2.939550633700544480e-01 2.943011449554550296e+00
2.949956122667198311e-01 3.158429978947953742e+00
2.960361611633852141e-01 2.959604253564936727e+00
2.970767100600505972e-01 2.666065094899320087e+00
2.981172589567159803e-01 2.884579989577890302e+00
2.991578078533813634e-01 2.966068089898818982e+00
3.001983567500468020e-01 2.611411243812032268e+00
3.012389056467121851e-01 2.492232422193978891e+00
3.022794545433775681e-01 2.498929525672902940e+00
3.033200034400429512e-01 2.364657169328921782e+00
3.043605523367083343e-01 2.245854306662359079e+00
3.054011012333737174e-01 2.378221760728667533e+00
3.064416501300391005e-01 2.543801217913124191e+00
3.074821990267044836e-01 2.381577005552664161e+00
3.085227479233698666e-01 2.481729311968251750e+00
3.095632968200352497e-01 2.557842164533269624e+00
3.106038457167006328e-01 2.413663482700208363e+00
3.116443946133660159e-01 2.368554319413380682e+00
3.126849435100313990e-01 2.474300768995725264e+00
3.137254924066967821e-01 2.365062405709569049e+00
3.147660413033621651e-01 2.149251334472932484e+00
3.158065902000275482e-01 2.197615637169530345e+00
3.168471390966929313e-01 2.121608530683914751e+00
3.178876879933583144e-01 2.047727527349834986e+00
3.189282368900236975e-01 1.959968066591244451e+00
3.199687857866890806e-01 2.165415507338821044e+00
3.210093346833544636e-01 2.239785987992771510e+00
3.220498835800198467e-01 2.110312283469014005e+00
3.230904324766852298e-01 2.409541928667376709e+00
3.241309813733506129e-01 2.308918063109040020e+00
3.251715302700159960e-01 2.310481552358996993e+00
3.262120791666813790e-01 2.213270183914172407e+00
3.272526280633467621e-01 2.219374292355777101e+00
3.282931769600121452e-01 2.370175584106732458e+00
3.293337258566775283e-01 2.161226006876592720e+00
3.303742747533429114e-01 2.133171571344746553e+00
3.314148236500082945e-01 2.296654436532666210e+00
3.324553725466736775e-01 2.394306050233467431e+00
3.334959214433390606e-01 2.279437833992673745e+00
3.345364703400044437e-01 1.946869884376948079e+00
3.355770192366698268e-01 2.058347542223156523e+00
3.366175681333352099e-01 1.799134954982420709e+00
3.376581170300005930e-01 1.702528960304814376e+00
3.386986659266659760e-01 1.984652775692417492e+00
3.397392148233313591e-01 2.064178544253422842e+00
3.407797637199967422e-01 2.092856843547618695e+00
3.418203126166621253e-01 2.183336263265648114e+00
3.428608615133275084e-01 2.061858082244221180e+00
3.439014104099928915e-01 2.013555802235956094e+00
3.449419593066582745e-01 2.030013950958814206e+00
3.459825082033236576e-01 2.123997665242871591e+00
3.470230570999890407e-01 2.132736445126642622e+00
3.480636059966544238e-01 2.050667326574693305e+00
3.491041548933198069e-01 1.942310166290727835e+00
3.501447037899851900e-01 1.801356752310280029e+00
3.511852526866505730e-01 1.878259855352951035e+00
3.522258015833159561e-01 1.720560164744071585e+00
3.532663504799813392e-01 1.591990673842836657e+00
3.543068993766467223e-01 1.663461386272185649e+00
3.553474482733121054e-01 1.617679839914639928e+00
3.563879971699774885e-01 1.683681004532640912e+00
3.574285460666428715e-01 1.647569400271379436e+00
3.584690949633082546e-01 1.613388590533951117e+00
3.595096438599736377e-01 1.737561814853549436e+00
3.605501927566390208e-01 1.699397100537311189e+00
3.615907416533044039e-01 1.620784866070515307e+00
3.626312905499697870e-01 1.783353521194786850e+00
3.636718394466351700e-01 1.471410303177691503e+00
3.647123883433005531e-01 1.360628727255573267e+00
3.657529372399659362e-01 1.373377443284759636e+00
3.667934861366313193e-01 1.474112468914611895e+00
3.678340350332967024e-01 1.233408869392210505e+00
3.688745839299620854e-01 1.431011960755363077e+00
3.699151328266274685e-01 1.710298944922090669e+00
3.709556817232928516e-01 1.743069204396981320e+00
3.719962306199582347e-01 1.869346141800374284e+00
3.730367795166236178e-01 1.886662769374883197e+00
3.740773284132890009e-01 1.868488989443989112e+00
3.751178773099543839e-01 1.664017215041340592e+00
3.761584262066197670e-01 1.594118123882495297e+00
3.771989751032851501e-01 1.559058564335622066e+00
3.782395239999505332e-01 1.626406919510717586e+00
3.792800728966159163e-01 1.417090198136641277e+00
3.803206217932812994e-01 1.355962896876253154e+00
3.813611706899466824e-01 1.444954360485446898e+00
3.824017195866120655e-01 1.600907181448736338e+00
3.834422684832774486e-01 1.622378369321676672e+00
3.844828173799428317e-01 1.763882611790915433e+00
3.855233662766082148e-01 1.654993725361748602e+00
3.865639151732735979e-01 1.365914240220991616e+00
3.876044640699389809e-01 1.326283120722170139e+00
3.886450129666043640e-01 1.358922952432493503e+00
3.896855618632697471e-01 1.418332104825147155e+00
3.907261107599351302e-01 1.397763998906665250e+00
3.917666596566005133e-01 1.479030500354600264e+00
3.928072085532658964e-01 1.513008315331521914e+00
3.938477574499312794e-01 1.710634125268899908e+00
3.948883063465966625e-01 1.519530062024312400e+00
3.959288552432620456e-01 1.438308178836173568e+00
3.969694041399274287e-01 1.391944340030562444e+00
3.980099530365928118e-01 1.351329605796316002e+00
3.990505019332581949e-01 1.341913197022410742e+00
4.000910508299235779e-01 1.302074915547379419e+00
4.011315997265889610e-01 1.419665978765660697e+00
4.021721486232543441e-01 1.263432255806083759e+00
4.032126975199197272e-01 1.241799525088591594e+00
4.042532464165851103e-01 1.245977120339421873e+00
4.052937953132504934e-01 1.184452768559097535e+00
4.063343442099158764e-01 1.314511038787880892e+00
4.073748931065812595e-01 1.340432151380838377e+00
4.084154420032466426e-01 1.432848781382752179e+00
4.094559908999120257e-01 1.354173884783993032e+00
4.104965397965774088e-01 1.271220576987161621e+00
4.115370886932427918e-01 1.194589960328801936e+00
4.125776375899081749e-01 1.038265078008858922e+00
4.136181864865735580e-01 1.061707524579343698e+00
4.146587353832389411e-01 1.313623207928884540e+00
4.156992842799043242e-01 1.234496669099865329e+00
4.167398331765697073e-01 9.479891381227609770e-01
4.177803820732350903e-01 1.161606577915186733e+00
4.188209309699004734e-01 1.124140316408922757e+00
4.198614798665658565e-01 1.117718258760735495e+00
4.209020287632312396e-01 1.136178331569169586e+00
4.219425776598966227e-01 1.170028763739754396e+00
4.229831265565620058e-01 9.477817758880568988e-01
4.240236754532273888e-01 8.783361140888672480e-01
4.250642243498927719e-01 1.021507252536768107e+00
4.261047732465581550e-01 9.249709299593540379e-01
4.271453221432235381e-01 9.769940452717378321e-01
4.281858710398889212e-01 1.006822440697373366e+00
4.292264199365543043e-01 9.095597776769679399e-01
4.302669688332196873e-01 1.093886633490317450e+00
4.313075177298850704e-01 1.057688957106101668e+00
4.323480666265504535e-01 1.031595675094202136e+00
4.333886155232158366e-01 1.076305765579199658e+00
4.344291644198812197e-01 1.156024173363817908e+00
