# q (1/Angstrom), Intensity (arb)
2.029070354705860696e-02 9.998851635480860978e+02
2.133125244372399004e-02 8.846588125593214045e+02
2.237180134038937659e-02 7.949562570044474796e+02
2.341235023705475968e-02 7.187810676356181148e+02
2.445289913372014276e-02 6.624129072424464084e+02
2.549344803038552584e-02 6.164400564215058012e+02
2.653399692705091240e-02 5.762675676699623182e+02
2.757454582371629548e-02 5.435661037658378518e+02
2.861509472038167856e-02 5.184495952402421608e+02
2.965564361704706164e-02 4.960091231559641756e+02
3.069619251371244473e-02 4.749706450953560193e+02
3.173674141037782781e-02 4.580845141226601527e+02
3.277729030704321089e-02 4.486220523307616759e+02
3.381783920370859398e-02 4.417747334791796447e+02
3.485838810037397706e-02 4.380452863575797551e+02
3.589893699703936014e-02 4.376741737339750102e+02
3.693948589370474322e-02 4.388720741880786136e+02
3.798003479037012631e-02 4.407202098120295659e+02
3.902058368703550939e-02 4.443264258501959603e+02
4.006113258370089247e-02 4.544949784875253727e+02
4.110168148036627556e-02 4.695905216464946079e+02
4.214223037703165864e-02 4.852669166094619868e+02
4.318277927369704866e-02 5.116919209783586098e+02
4.422332817036243174e-02 5.470360642138247158e+02
4.526387706702781483e-02 5.978353934473585696e+02
4.630442596369319791e-02 6.766926251310036378e+02
4.734497486035858099e-02 8.296803148780618358e+02
4.838552375702396408e-02 1.139636491816351736e+03
4.942607265368934716e-02 1.706879492597537819e+03
5.046662155035473024e-02 2.585898899581466594e+03
5.150717044702011332e-02 4.014851240623410831e+03
5.254771934368549641e-02 5.131804799148079837e+03
5.358826824035087949e-02 4.604028293518309511e+03
5.462881713701626257e-02 3.559567757712739876e+03
5.566936603368164566e-02 3.191169007417792727e+03
5.670991493034702874e-02 3.216922327899172160e+03
5.775046382701241182e-02 3.351037577296107884e+03
5.879101272367779490e-02 3.487727068446582962e+03
5.983156162034317799e-02 3.554845118342769638e+03
6.087211051700856107e-02 3.476148432766099177e+03
6.191265941367394415e-02 3.251277751426876875e+03
6.295320831033933417e-02 2.973224674588682319e+03
6.399375720700471726e-02 2.688269428497662375e+03
6.503430610367010034e-02 2.404995389409866220e+03
6.607485500033548342e-02 2.116622876431386885e+03
6.711540389700086651e-02 1.834920229769427351e+03
6.815595279366624959e-02 1.563848938728904841e+03
6.919650169033163267e-02 1.325519439886548525e+03
7.023705058699701576e-02 1.106176705813601302e+03
7.127759948366239884e-02 9.187303723652838698e+02
7.231814838032778192e-02 7.604119057445467433e+02
7.335869727699316500e-02 6.293663234971654674e+02
7.439924617365854809e-02 5.214831456104521976e+02
7.543979507032393117e-02 4.336779145087632514e+02
7.648034396698931425e-02 3.642954774540158951e+02
7.752089286365469734e-02 3.073946441094018383e+02
7.856144176032008042e-02 2.649975993993941756e+02
7.960199065698546350e-02 2.309834780974424575e+02
8.064253955365084658e-02 2.061051497201860911e+02
8.168308845031622967e-02 1.935033984820307751e+02
8.272363734698161275e-02 1.965326932717186992e+02
8.376418624364699583e-02 2.332002327792266954e+02
8.480473514031239279e-02 3.157708995364753264e+02
8.584528403697777588e-02 3.771673961389208216e+02
8.688583293364315896e-02 3.317692657435165415e+02
8.792638183030854204e-02 2.426534865764099322e+02
8.896693072697392513e-02 1.907115106588432809e+02
9.000747962363930821e-02 1.716498492313780844e+02
9.104802852030469129e-02 1.673532942490037385e+02
9.208857741697007437e-02 1.684368604741234208e+02
9.312912631363545746e-02 1.713897374865904908e+02
9.416967521030084054e-02 1.780926832620805271e+02
9.521022410696622362e-02 1.863002187375010692e+02
9.625077300363160671e-02 1.970019055195278384e+02
9.729132190029698979e-02 2.185201454049918937e+02
9.833187079696237287e-02 2.627518411055453953e+02
9.937241969362775595e-02 3.355898027472765079e+02
1.004129685902931390e-01 3.948796223308041249e+02
1.014535174869585221e-01 3.741177140861605608e+02
1.024940663836239052e-01 3.025668565019207676e+02
1.035346152802892883e-01 2.546568038933086200e+02
1.045751641769546714e-01 2.382760111991058807e+02
1.056157130736200545e-01 2.230633005975305139e+02
1.066562619702854375e-01 2.033743856160204473e+02
1.076968108669508206e-01 1.917095926074877354e+02
1.087373597636162037e-01 1.872663798783410698e+02
1.097779086602815868e-01 1.857329456605584426e+02
1.108184575569469699e-01 1.860772082596028270e+02
1.118590064536123529e-01 1.860190335988852439e+02
1.128995553502777360e-01 1.854658950260717347e+02
1.139401042469431191e-01 1.823531742245617977e+02
1.149806531436085022e-01 1.789015125801882959e+02
1.160212020402738853e-01 1.729992373939521144e+02
1.170617509369392684e-01 1.670375862823830175e+02
1.181022998336046514e-01 1.586124032947032561e+02
1.191428487302700345e-01 1.502847629898475930e+02
1.201833976269354176e-01 1.418084096778436844e+02
1.212239465236008007e-01 1.316424074057422331e+02
1.222644954202661838e-01 1.215778500489780924e+02
1.233050443169315669e-01 1.120251294972731841e+02
1.243455932135969499e-01 1.032671856616302932e+02
1.253861421102623330e-01 9.502819336879505840e+01
1.264266910069277161e-01 8.730703915585158370e+01
1.274672399035930992e-01 8.031148569948607019e+01
1.285077888002584823e-01 7.577223665462256008e+01
1.295483376969238654e-01 7.417270797356786716e+01
1.305888865935892484e-01 7.600414840158612151e+01
1.316294354902546315e-01 8.074257771019236429e+01
1.326699843869200146e-01 8.472506086074989184e+01
1.337105332835853977e-01 8.585226506743364894e+01
1.347510821802507808e-01 8.680009749057563795e+01
1.357916310769161639e-01 8.358432872363724186e+01
1.368321799735815469e-01 7.012899059689766545e+01
1.378727288702469300e-01 5.431396413848931104e+01
1.389132777669123131e-01 4.355308344054118663e+01
1.399538266635776962e-01 3.845165469240517098e+01
1.409943755602430793e-01 3.547779613891039219e+01
1.420349244569084624e-01 3.444250409431825233e+01
1.430754733535738454e-01 3.399028333153737691e+01
1.441160222502392285e-01 3.380773516300988746e+01
1.451565711469046116e-01 3.507050931868658239e+01
1.461971200435699947e-01 3.733581236019575300e+01
1.472376689402353778e-01 4.113497150891016219e+01
1.482782178369007609e-01 4.449603567712542684e+01
1.493187667335661439e-01 4.402095475296058424e+01
1.503593156302315270e-01 4.080300348103850183e+01
1.513998645268969101e-01 3.705502713893665145e+01
1.524404134235622932e-01 3.518257585593913461e+01
1.534809623202276763e-01 3.454831987729991027e+01
1.545215112168930593e-01 3.417092035538215811e+01
1.555620601135584424e-01 3.350648267679478209e+01
1.566026090102238255e-01 3.352149557252466394e+01
1.576431579068892086e-01 3.343302555893166073e+01
1.586837068035545917e-01 3.211238079417518776e+01
1.597242557002199748e-01 2.974595381932352467e+01
1.607648045968853578e-01 2.777763816622492499e+01
1.618053534935507409e-01 2.679762521215346993e+01
1.628459023902161240e-01 2.618109609380402247e+01
1.638864512868815071e-01 2.544458490491400227e+01
1.649270001835468902e-01 2.474071579447228686e+01
1.659675490802122733e-01 2.427514677118923458e+01
1.670080979768776563e-01 2.336935436569339686e+01
1.680486468735430672e-01 2.283976158223494934e+01
1.690891957702084503e-01 2.297181761620806384e+01
1.701297446668738333e-01 2.244984175938334658e+01
1.711702935635392164e-01 2.230045300547583054e+01
1.722108424602045995e-01 2.161920820876451899e+01
1.732513913568699826e-01 2.112453819007399858e+01
1.742919402535353657e-01 2.109731349334501971e+01
1.753324891502007488e-01 2.061494189682144196e+01
1.763730380468661318e-01 2.096346569471424459e+01
1.774135869435315149e-01 2.239859869954445770e+01
1.784541358401968980e-01 2.420737394712558199e+01
1.794946847368622811e-01 2.614224850993373650e+01
1.805352336335276642e-01 2.620007905668079218e+01
1.815757825301930473e-01 2.476805465836784492e+01
1.826163314268584303e-01 2.289525475927787568e+01
1.836568803235238134e-01 1.962401614147577078e+01
1.846974292201891965e-01 1.748039092268424355e+01
1.857379781168545796e-01 1.554178276445473017e+01
1.867785270135199627e-01 1.497476215550187106e+01
1.878190759101853458e-01 1.472620699669340638e+01
1.888596248068507288e-01 1.460913462907160465e+01
1.899001737035161119e-01 1.443989299113044211e+01
1.909407226001814950e-01 1.420299917586275740e+01
1.919812714968468781e-01 1.378151292093523494e+01
1.930218203935122612e-01 1.348963174041779922e+01
1.940623692901776443e-01 1.263258960295709699e+01
1.951029181868430273e-01 1.218620333496500763e+01
1.961434670835084104e-01 1.172029720512046680e+01
1.971840159801737935e-01 1.157497330373478661e+01
1.982245648768391766e-01 1.147576601109410177e+01
1.992651137735045597e-01 1.148876781784387902e+01
2.003056626701699428e-01 1.141608804851895798e+01
2.013462115668353813e-01 1.095578492268770532e+01
2.023867604635007644e-01 1.031794660121669693e+01
2.034273093601661475e-01 9.404877218385401250e+00
2.044678582568315306e-01 8.913219392347851766e+00
2.055084071534969137e-01 8.345755304211543546e+00
2.065489560501622968e-01 8.078302519649604108e+00
2.075895049468276798e-01 7.799708118264383927e+00
2.086300538434930629e-01 7.857681355230873521e+00
2.096706027401584460e-01 7.488680571969847932e+00
2.107111516368238291e-01 7.403026871152977861e+00
2.117517005334892122e-01 7.432504026476376424e+00
2.127922494301545953e-01 7.142501582543715699e+00
2.138327983268199783e-01 6.878867223497870498e+00
2.148733472234853614e-01 6.530367640556654862e+00
2.159138961201507445e-01 6.546272338039695882e+00
2.169544450168161276e-01 6.629759928059137053e+00
2.179949939134815107e-01 6.713795616803253097e+00
2.190355428101468938e-01 6.505776924158805485e+00
2.200760917068122768e-01 6.494383810712214711e+00
2.211166406034776599e-01 6.324178432861934596e+00
2.221571895001430430e-01 6.309600233236842826e+00
2.231977383968084261e-01 6.268548739731254926e+00
2.242382872934738092e-01 6.629049376678796790e+00
2.252788361901391923e-01 7.067010530227658904e+00
2.263193850868045753e-01 6.995728378436066208e+00
2.273599339834699584e-01 6.967171956424351720e+00
2.284004828801353415e-01 6.840345318696215315e+00
2.294410317768007246e-01 6.873880743863892917e+00
2.304815806734661077e-01 7.104998045863599287e+00
2.315221295701314908e-01 7.229404422609636782e+00
2.325626784667968738e-01 7.288029010084041914e+00
2.336032273634622569e-01 7.536918611651476141e+00
2.346437762601276400e-01 7.081584883817907183e+00
2.356843251567930231e-01 6.290703249862364288e+00
2.367248740534584062e-01 5.604365424762910664e+00
2.377654229501237892e-01 5.197527260814652550e+00
2.388059718467891723e-01 5.098968300754652461e+00
2.398465207434545554e-01 5.100524150497321330e+00
2.408870696401199385e-01 4.952902861120630718e+00
2.419276185367853216e-01 4.600840260811381199e+00
2.429681674334507047e-01 4.467067402644673280e+00
2.440087163301160877e-01 4.057921958531625961e+00
2.450492652267814708e-01 3.998399290784234950e+00
2.460898141234468539e-01 4.180458849145111344e+00
2.471303630201122370e-01 4.215832569447645284e+00
2.481709119167776201e-01 4.085076151390502730e+00
2.492114608134430032e-01 4.281149725981137522e+00
2.502520097101083585e-01 4.544217186895018301e+00
2.512925586067737416e-01 4.532282413586493419e+00
2.523331075034391247e-01 4.215905370059065405e+00
2.533736564001045077e-01 3.792037256800039557e+00
2.544142052967698908e-01 3.267080542906459328e+00
2.554547541934352739e-01 2.943790369813360286e+00
2.564953030901006570e-01 2.918703740443497452e+00
2.575358519867660401e-01 2.760232086112914374e+00
2.585764008834314231e-01 2.874548777533213695e+00
2.596169497800968062e-01 2.915234159730854202e+00
2.606574986767621893e-01 2.590895279524623618e+00
2.616980475734275724e-01 2.644554112449682748e+00
2.627385964700929555e-01 3.033551183406206775e+00
2.637791453667583386e-01 3.318703135787096414e+00
2.648196942634237216e-01 2.776811409899657690e+00
2.658602431600891047e-01 2.837962887826144254e+00
2.669007920567544878e-01 2.942115059702938851e+00
2.679413409534198709e-01 2.873679389947973561e+00
2.689818898500852540e-01 2.399838183546666670e+00
2.700224387467506371e-01 2.514751960887370075e+00
2.710629876434160201e-01 2.820216770339225576e+00
2.721035365400814032e-01 2.687746298149981783e+00
2.731440854367467863e-01 2.656646428537786875e+00
2.741846343334121694e-01 2.761826107498333016e+00
2.752251832300775525e-01 2.901161363520117220e+00
2.762657321267429356e-01 3.186303570204579216e+00
2.773062810234083186e-01 3.319859649270028967e+00
2.783468299200737017e-01 3.128326402078748458e+00
2.793873788167390848e-01 3.031734948631658710e+00
2.804279277134044679e-01 3.043418424911035203e+00
2.814684766100698510e-01 2.777777222633584842e+00
2.825090255067352341e-01 2.768134109187723624e+00
2.835495744034006171e-01 2.869114030735758547e+00
2.845901233000660002e-01 2.939546593639878580e+00
2.856306721967313833e-01 2.829132246501927739e+00
2.866712210933967664e-01 2.658216931081536671e+00
2.877117699900621495e-01 2.640505955292191231e+00
2.887523188867275326e-01 2.547131166001420866e+00
2.897928677833929156e-01 2.318116554543724561e+00
2.908334166800582987e-01 2.109238451404106485e+00
2.918739655767236818e-01 2.129670929957335090e+00
2.929145144733890649e-01 2.202073428774117048e+00
2.939550633700544480e-01 2.241081075208732898e+00
2.949956122667198311e-01 2.404841997893591099e+00
2.960361611633852141e-01 2.122692352184781583e+00
2.970767100600505972e-01 2.264415761080773137e+00
2.981172589567159803e-01 2.388090163822877088e+00
2.991578078533813634e-01 2.246593239945369191e+00
3.001983567500468020e-01 2.057295260610484178e+00
3.012389056467121851e-01 1.988880955182015242e+00
3.022794545433775681e-01 1.705601993216895096e+00
3.033200034400429512e-01 1.658871942218066664e+00
3.043605523367083343e-01 1.896460101977002211e+00
3.054011012333737174e-01 1.805580127949241387e+00
3.064416501300391005e-01 1.708415542934073272e+00
3.074821990267044836e-01 1.840002930880171306e+00
3.085227479233698666e-01 1.908632010943122737e+00
3.095632968200352497e-01 1.930247610804180169e+00
3.106038457167006328e-01 1.685062128600275599e+00
3.116443946133660159e-01 1.611814394813467999e+00
3.126849435100313990e-01 1.705041025527052057e+00
3.137254924066967821e-01 1.559797116843483877e+00
3.147660413033621651e-01 1.586135297863560112e+00
3.158065902000275482e-01 1.674454554535046213e+00
3.168471390966929313e-01 1.501493605325890712e+00
3.178876879933583144e-01 1.442638365782535459e+00
3.189282368900236975e-01 1.482688074822650748e+00
3.199687857866890806e-01 1.579261916291446965e+00
3.210093346833544636e-01 1.369567502551220173e+00
3.220498835800198467e-01 1.449728112139442970e+00
3.230904324766852298e-01 1.643142234619720199e+00
3.241309813733506129e-01 1.870138730844299602e+00
3.251715302700159960e-01 1.922650354035670972e+00
3.262120791666813790e-01 1.949488796796622125e+00
3.272526280633467621e-01 1.887865890664848223e+00
3.282931769600121452e-01 1.695035557233126156e+00
3.293337258566775283e-01 1.646507078829102966e+00
3.303742747533429114e-01 1.763648721708047873e+00
3.314148236500082945e-01 1.738760719393273035e+00
3.324553725466736775e-01 1.674430358785222950e+00
3.334959214433390606e-01 1.391615676208829200e+00
3.345364703400044437e-01 1.415587976783747592e+00
3.355770192366698268e-01 1.547673846853239610e+00
3.366175681333352099e-01 1.675892741043856660e+00
3.376581170300005930e-01 1.568164620238519547e+00
3.386986659266659760e-01 1.586218533920909834e+00
3.397392148233313591e-01 1.727503759691618512e+00
3.407797637199967422e-01 1.784348053446599636e+00
3.418203126166621253e-01 1.193946401243682232e+00
3.428608615133275084e-01 1.183232972968280450e+00
3.439014104099928915e-01 1.264950727021417975e+00
3.449419593066582745e-01 1.159680317817272766e+00
3.459825082033236576e-01 1.131767777382364670e+00
3.470230570999890407e-01 1.101237373750251436e+00
3.480636059966544238e-01 1.286738552020217696e+00
3.491041548933198069e-01 1.290095726382030961e+00
3.501447037899851900e-01 1.317490634296028418e+00
3.511852526866505730e-01 1.388597664666082920e+00
3.522258015833159561e-01 1.511661864094559604e+00
3.532663504799813392e-01 1.383668644425288363e+00
3.543068993766467223e-01 1.152580838684023945e+00
3.553474482733121054e-01 1.024712656702462255e+00
3.563879971699774885e-01 1.078010678815505941e+00
3.574285460666428715e-01 9.630130853076970254e-01
3.584690949633082546e-01 1.163108260228469248e+00
3.595096438599736377e-01 1.112824009636955935e+00
3.605501927566390208e-01 1.285345290634044346e+00
3.615907416533044039e-01 1.132728735056126368e+00
3.626312905499697870e-01 1.077320624453548703e+00
3.636718394466351700e-01 9.059659760093374814e-01
3.647123883433005531e-01 8.511201203824079187e-01
3.657529372399659362e-01 1.168312802517281312e+00
3.667934861366313193e-01 1.122586630468536129e+00
3.678340350332967024e-01 9.201710215506295754e-01
3.688745839299620854e-01 1.032061753616812183e+00
3.699151328266274685e-01 8.324943299544678155e-01
3.709556817232928516e-01 9.540640849594410611e-01
3.719962306199582347e-01 1.085942990339930248e+00
3.730367795166236178e-01 1.056950711524073938e+00
3.740773284132890009e-01 9.711538430849806502e-01
3.751178773099543839e-01 9.909336757632871695e-01
3.761584262066197670e-01 1.182549263545126905e+00
3.771989751032851501e-01 1.112258683114674795e+00
3.782395239999505332e-01 1.125823463346005582e+00
3.792800728966159163e-01 1.200602832873070014e+00
3.803206217932812994e-01 1.275012325336621899e+00
3.813611706899466824e-01 1.407701310547857076e+00
3.824017195866120655e-01 1.310101751872970510e+00
3.834422684832774486e-01 1.011232249585670928e+00
3.844828173799428317e-01 9.278479194269664276e-01
3.855233662766082148e-01 9.514983196126145515e-01
3.865639151732735979e-01 8.499940928583349375e-01
3.876044640699389809e-01 8.060894414709167677e-01
3.886450129666043640e-01 8.358554754350464577e-01
3.896855618632697471e-01 1.162110718193069658e+00
3.907261107599351302e-01 1.228078746212393213e+00
3.917666596566005133e-01 1.161195152765522209e+00
3.928072085532658964e-01 1.167331251819991422e+00
3.938477574499312794e-01 9.780128370632148460e-01
3.948883063465966625e-01 9.120092370577097540e-01
3.959288552432620456e-01 9.499963908582138572e-01
3.969694041399274287e-01 9.140396776894803565e-01
3.980099530365928118e-01 8.747072715235120199e-01
3.990505019332581949e-01 9.003028830287931328e-01
4.000910508299235779e-01 9.100007196516095576e-01
4.011315997265889610e-01 8.611849639284692159e-01
4.021721486232543441e-01 7.557060371020725142e-01
4.032126975199197272e-01 6.978279623017868971e-01
4.042532464165851103e-01 7.332377856914256142e-01
4.052937953132504934e-01 7.564645169321053686e-01
4.063343442099158764e-01 8.326317982111000049e-01
4.073748931065812595e-01 6.695023791092040710e-01
4.084154420032466426e-01 7.119232363391176932e-01
4.094559908999120257e-01 5.534347660577552119e-01
4.104965397965774088e-01 5.660209511255729353e-01
4.115370886932427918e-01 9.570489377791169261e-01
4.125776375899081749e-01 8.559554473560027077e-01
4.136181864865735580e-01 6.653428236501000015e-01
4.146587353832389411e-01 7.027476051054364348e-01
4.156992842799043242e-01 6.969296562239826187e-01
4.167398331765697073e-01 6.011026799500456264e-01
4.177803820732350903e-01 6.561905024850354096e-01
4.188209309699004734e-01 8.133791999670272332e-01
4.198614798665658565e-01 8.934005381620977460e-01
4.209020287632312396e-01 7.162021799921944876e-01
4.219425776598966227e-01 7.032108268965409081e-01
4.229831265565620058e-01 6.318531142683561086e-01
4.240236754532273888e-01 6.268238529253729041e-01
4.250642243498927719e-01 6.468245446982017199e-01
4.261047732465581550e-01 7.298457454698983327e-01
4.271453221432235381e-01 7.292634276489096123e-01
4.281858710398889212e-01 6.316053781405095435e-01
4.292264199365543043e-01 7.620770066719835256e-01
4.302669688332196873e-01 6.866100167006905508e-01
4.313075177298850704e-01 4.506743076403054715e-01
4.323480666265504535e-01 4.452376024876976146e-01
4.333886155232158366e-01 6.352557081086196433e-01
4.344291644198812197e-01 6.616758732860823500e-01
