# q (1/Angstrom), Intensity (arb)
2.029070354705860696e-02 9.386568196178307062e+02
2.133125244372399004e-02 8.254540235401270820e+02
2.237180134038937659e-02 7.448182374312705178e+02
2.341235023705475968e-02 6.796626481216611637e+02
2.445289913372014276e-02 6.260870546677285802e+02
2.549344803038552584e-02 5.798005215163965431e+02
2.653399692705091240e-02 5.384775371122755132e+02
2.757454582371629548e-02 5.095227158309026549e+02
2.861509472038167856e-02 4.873642432072695101e+02
2.965564361704706164e-02 4.678922324049705139e+02
3.069619251371244473e-02 4.523899947476959369e+02
3.173674141037782781e-02 4.396809507852407251e+02
3.277729030704321089e-02 4.295004814466433345e+02
3.381783920370859398e-02 4.252723764076790189e+02
3.485838810037397706e-02 4.202777031842708766e+02
3.589893699703936014e-02 4.184566804823019766e+02
3.693948589370474322e-02 4.211246472652010198e+02
3.798003479037012631e-02 4.285418749039183695e+02
3.902058368703550939e-02 4.354558943445588284e+02
4.006113258370089247e-02 4.455362754030325618e+02
4.110168148036627556e-02 4.620281899803996453e+02
4.214223037703165864e-02 4.814799934472296172e+02
4.318277927369704866e-02 5.105159201298295670e+02
4.422332817036243174e-02 5.536522283547166126e+02
4.526387706702781483e-02 6.115449790920761188e+02
4.630442596369319791e-02 7.072971806378766360e+02
4.734497486035858099e-02 8.975449408413253423e+02
4.838552375702396408e-02 1.293429857478177155e+03
4.942607265368934716e-02 1.965672675197028866e+03
5.046662155035473024e-02 3.044556625387617714e+03
5.150717044702011332e-02 4.627104505648036138e+03
5.254771934368549641e-02 5.323984997027216195e+03
5.358826824035087949e-02 4.392777213516760639e+03
5.462881713701626257e-02 3.505373807806981404e+03
5.566936603368164566e-02 3.306991454593214712e+03
5.670991493034702874e-02 3.400107718836227377e+03
5.775046382701241182e-02 3.554373758749960871e+03
5.879101272367779490e-02 3.684327561457188949e+03
5.983156162034317799e-02 3.708846817561608532e+03
6.087211051700856107e-02 3.558759402027572378e+03
6.191265941367394415e-02 3.283689093395379587e+03
6.295320831033933417e-02 2.978227543741695627e+03
6.399375720700471726e-02 2.676208394851390949e+03
6.503430610367010034e-02 2.375463837074178628e+03
6.607485500033548342e-02 2.076266139287027727e+03
6.711540389700086651e-02 1.787852263351583588e+03
6.815595279366624959e-02 1.517781386523298352e+03
6.919650169033163267e-02 1.275630169830665182e+03
7.023705058699701576e-02 1.061210626165805934e+03
7.127759948366239884e-02 8.767758166008459284e+02
7.231814838032778192e-02 7.222058368353438027e+02
7.335869727699316500e-02 5.958661730215115995e+02
7.439924617365854809e-02 4.970236984270343328e+02
7.543979507032393117e-02 4.156342677969956299e+02
7.648034396698931425e-02 3.491327043838183499e+02
7.752089286365469734e-02 2.952753604597970707e+02
7.856144176032008042e-02 2.559529649621622980e+02
7.960199065698546350e-02 2.256888470827434219e+02
8.064253955365084658e-02 2.041398742792865733e+02
8.168308845031622967e-02 1.960433278942828110e+02
8.272363734698161275e-02 2.108170249230743138e+02
8.376418624364699583e-02 2.672808331512479754e+02
8.480473514031239279e-02 3.489007137991156924e+02
8.584528403697777588e-02 3.578749280851624803e+02
8.688583293364315896e-02 2.782676436713684325e+02
8.792638183030854204e-02 2.076448544895123405e+02
8.896693072697392513e-02 1.774591681384003437e+02
9.000747962363930821e-02 1.671043495885531911e+02
9.104802852030469129e-02 1.661338783995623203e+02
9.208857741697007437e-02 1.691714801883678660e+02
9.312912631363545746e-02 1.746886287095842363e+02
9.416967521030084054e-02 1.811639484378732163e+02
9.521022410696622362e-02 1.906910231702829037e+02
9.625077300363160671e-02 2.071308945384717788e+02
9.729132190029698979e-02 2.417510718433492798e+02
9.833187079696237287e-02 3.074866042828558079e+02
9.937241969362775595e-02 3.874054988536046267e+02
1.004129685902931390e-01 4.050325753639607456e+02
1.014535174869585221e-01 3.396640486559504666e+02
1.024940663836239052e-01 2.730970700238102609e+02
1.035346152802892883e-01 2.472175396451669656e+02
1.045751641769546714e-01 2.343249190075587478e+02
1.056157130736200545e-01 2.156012083378035697e+02
1.066562619702854375e-01 1.990566800424109601e+02
1.076968108669508206e-01 1.916118537065431155e+02
1.087373597636162037e-01 1.911081878198179425e+02
1.097779086602815868e-01 1.917726039895890153e+02
1.108184575569469699e-01 1.920697658841061184e+02
1.118590064536123529e-01 1.906886348201855697e+02
1.128995553502777360e-01 1.895273210148393730e+02
1.139401042469431191e-01 1.865933014744495040e+02
1.149806531436085022e-01 1.810124923610574967e+02
1.160212020402738853e-01 1.754498728336641875e+02
1.170617509369392684e-01 1.673026490876431183e+02
1.181022998336046514e-01 1.579286006876654369e+02
1.191428487302700345e-01 1.491306536201825850e+02
1.201833976269354176e-01 1.391328192556315742e+02
1.212239465236008007e-01 1.289507951555212344e+02
1.222644954202661838e-01 1.191739911397497877e+02
1.233050443169315669e-01 1.095088908821341960e+02
1.243455932135969499e-01 1.001886995099296485e+02
1.253861421102623330e-01 9.171597314432742110e+01
1.264266910069277161e-01 8.448677700319574058e+01
1.274672399035930992e-01 7.928590410557055179e+01
1.285077888002584823e-01 7.598129477430852319e+01
1.295483376969238654e-01 7.562685707399434420e+01
1.305888865935892484e-01 7.984128539472877151e+01
1.316294354902546315e-01 8.314621230338717339e+01
1.326699843869200146e-01 8.339868015065407292e+01
1.337105332835853977e-01 8.418290605142571792e+01
1.347510821802507808e-01 8.306209608926647547e+01
1.357916310769161639e-01 7.262451470132396025e+01
1.368321799735815469e-01 5.643410590466265120e+01
1.378727288702469300e-01 4.551310988090340004e+01
1.389132777669123131e-01 3.977814348714493775e+01
1.399538266635776962e-01 3.666406842513301001e+01
1.409943755602430793e-01 3.483855228036328811e+01
1.420349244569084624e-01 3.392321862018639678e+01
1.430754733535738454e-01 3.394379901441603664e+01
1.441160222502392285e-01 3.524571165074570445e+01
1.451565711469046116e-01 3.730598866103255062e+01
1.461971200435699947e-01 4.084350743910022885e+01
1.472376689402353778e-01 4.499398363334051965e+01
1.482782178369007609e-01 4.504436868488352275e+01
1.493187667335661439e-01 4.163999031965428799e+01
1.503593156302315270e-01 3.760283568689061440e+01
1.513998645268969101e-01 3.498353623803666324e+01
1.524404134235622932e-01 3.409853485647910531e+01
1.534809623202276763e-01 3.390620116337672130e+01
1.545215112168930593e-01 3.409167733733597316e+01
1.555620601135584424e-01 3.448593792198725794e+01
1.566026090102238255e-01 3.488280350108134087e+01
1.576431579068892086e-01 3.336748919060774909e+01
1.586837068035545917e-01 3.081558741684940372e+01
1.597242557002199748e-01 2.838635613058443852e+01
1.607648045968853578e-01 2.699082525286752698e+01
1.618053534935507409e-01 2.617113033747368789e+01
1.628459023902161240e-01 2.552138984760440721e+01
1.638864512868815071e-01 2.481043439850815346e+01
1.649270001835468902e-01 2.456364198766697982e+01
1.659675490802122733e-01 2.423254327166483080e+01
1.670080979768776563e-01 2.388959162770938960e+01
1.680486468735430672e-01 2.344745723324558995e+01
1.690891957702084503e-01 2.319284418920283741e+01
1.701297446668738333e-01 2.305017428862229778e+01
1.711702935635392164e-01 2.248043206014765261e+01
1.722108424602045995e-01 2.187718266128280931e+01
1.732513913568699826e-01 2.126470876441852909e+01
1.742919402535353657e-01 2.077757421312680464e+01
1.753324891502007488e-01 2.100152698850775224e+01
1.763730380468661318e-01 2.204404604051310912e+01
1.774135869435315149e-01 2.364420991405109262e+01
1.784541358401968980e-01 2.530589349164877433e+01
1.794946847368622811e-01 2.549801977577616796e+01
1.805352336335276642e-01 2.461826595898537207e+01
1.815757825301930473e-01 2.226966247237378838e+01
1.826163314268584303e-01 2.025634855051958283e+01
1.836568803235238134e-01 1.821687846780094588e+01
1.846974292201891965e-01 1.679700549459674619e+01
1.857379781168545796e-01 1.625120008448945086e+01
1.867785270135199627e-01 1.527327192239641107e+01
1.878190759101853458e-01 1.486000510606181635e+01
1.888596248068507288e-01 1.483744099701728558e+01
1.899001737035161119e-01 1.509003341962192835e+01
1.909407226001814950e-01 1.479840352107832402e+01
1.919812714968468781e-01 1.393757170824316916e+01
1.930218203935122612e-01 1.362205866242651808e+01
1.940623692901776443e-01 1.327674521612003744e+01
1.951029181868430273e-01 1.291928059115357996e+01
1.961434670835084104e-01 1.282433973829678209e+01
1.971840159801737935e-01 1.276472453720343125e+01
1.982245648768391766e-01 1.299087850117943077e+01
1.992651137735045597e-01 1.268432342612061703e+01
2.003056626701699428e-01 1.216570306265151302e+01
2.013462115668353813e-01 1.099829117727023586e+01
2.023867604635007644e-01 9.917216376439778713e+00
2.034273093601661475e-01 9.556316043332518717e+00
2.044678582568315306e-01 8.914493162440013663e+00
2.055084071534969137e-01 8.513319099550891167e+00
2.065489560501622968e-01 8.442144103404388034e+00
2.075895049468276798e-01 8.413854227277919762e+00
2.086300538434930629e-01 8.500781549296551276e+00
2.096706027401584460e-01 8.416203971127160344e+00
2.107111516368238291e-01 8.080224906662174078e+00
2.117517005334892122e-01 7.770340117216480991e+00
2.127922494301545953e-01 7.456232856870784076e+00
2.138327983268199783e-01 7.042439727905996705e+00
2.148733472234853614e-01 7.204437120645959425e+00
2.159138961201507445e-01 7.346346957946824574e+00
2.169544450168161276e-01 7.369381676127662928e+00
2.179949939134815107e-01 7.099760420198556687e+00
2.190355428101468938e-01 7.132008364195964845e+00
2.200760917068122768e-01 7.114712734007980544e+00
2.211166406034776599e-01 7.106719765373036068e+00
2.221571895001430430e-01 7.207696336737456022e+00
2.231977383968084261e-01 7.407485653023606176e+00
2.242382872934738092e-01 7.553749084839854078e+00
2.252788361901391923e-01 7.535517534166949360e+00
2.263193850868045753e-01 7.711574084514790428e+00
2.273599339834699584e-01 7.759740441369348929e+00
2.284004828801353415e-01 7.466600237135654794e+00
2.294410317768007246e-01 7.611437136898693723e+00
2.304815806734661077e-01 7.987492277321031509e+00
2.315221295701314908e-01 8.012286447679610291e+00
2.325626784667968738e-01 7.725673584952730266e+00
2.336032273634622569e-01 7.274406234592973419e+00
2.346437762601276400e-01 6.823657581988264553e+00
2.356843251567930231e-01 6.385038851686903882e+00
2.367248740534584062e-01 6.038549874907573667e+00
2.377654229501237892e-01 5.778921486596669155e+00
2.388059718467891723e-01 5.502350754227997243e+00
2.398465207434545554e-01 5.459776890203531963e+00
2.408870696401199385e-01 5.519915450362628206e+00
2.419276185367853216e-01 5.168339575731085489e+00
2.429681674334507047e-01 5.209549427338810546e+00
2.440087163301160877e-01 5.220092446821183785e+00
2.450492652267814708e-01 5.335107591114532255e+00
2.460898141234468539e-01 5.259371714951566190e+00
2.471303630201122370e-01 5.288535209236300716e+00
2.481709119167776201e-01 5.555770105085986899e+00
2.492114608134430032e-01 5.372341785238372580e+00
2.502520097101083585e-01 5.140779304626931889e+00
2.512925586067737416e-01 4.708420135089216529e+00
2.523331075034391247e-01 4.101339312445112739e+00
2.533736564001045077e-01 3.948502622075903190e+00
2.544142052967698908e-01 4.188586470922960103e+00
2.554547541934352739e-01 4.374121392663614216e+00
2.564953030901006570e-01 4.182226502960499914e+00
2.575358519867660401e-01 3.870114843763918344e+00
2.585764008834314231e-01 3.731303872891448492e+00
2.596169497800968062e-01 3.694611441383781170e+00
2.606574986767621893e-01 3.821414297255092407e+00
2.616980475734275724e-01 3.731972746624816040e+00
2.627385964700929555e-01 3.821451960970918549e+00
2.637791453667583386e-01 3.603742225173871105e+00
2.648196942634237216e-01 3.570851318704789890e+00
2.658602431600891047e-01 3.407382378712792814e+00
2.669007920567544878e-01 3.586845807482060167e+00
2.679413409534198709e-01 3.701852235143046954e+00
2.689818898500852540e-01 3.372788002850057865e+00
2.700224387467506371e-01 3.292766559061686138e+00
2.710629876434160201e-01 3.467812789595374312e+00
2.721035365400814032e-01 3.810725395541673777e+00
2.731440854367467863e-01 3.834298121591537267e+00
2.741846343334121694e-01 3.608281635959233569e+00
2.752251832300775525e-01 3.685454600418463400e+00
2.762657321267429356e-01 3.730517377562691195e+00
2.773062810234083186e-01 3.504885848441730900e+00
2.783468299200737017e-01 3.463600559829604464e+00
2.793873788167390848e-01 3.512504958052367954e+00
2.804279277134044679e-01 3.303982747894036009e+00
2.814684766100698510e-01 3.214112538795479423e+00
2.825090255067352341e-01 3.252763483169619718e+00
2.835495744034006171e-01 3.200076695221376610e+00
2.845901233000660002e-01 3.329817212119611014e+00
2.856306721967313833e-01 3.406579153978455565e+00
2.866712210933967664e-01 3.614864917696134938e+00
2.877117699900621495e-01 3.632676274202566447e+00
2.887523188867275326e-01 3.281856707346918256e+00
2.897928677833929156e-01 3.262175766464647353e+00
2.908334166800582987e-01 3.076208869772678156e+00
2.918739655767236818e-01 3.384684111557120900e+00
2.929145144733890649e-01 3.283194178374134964e+00
2.939550633700544480e-01 3.072134589695298956e+00
2.949956122667198311e-01 3.391384688999888652e+00
2.960361611633852141e-01 3.323384222713627878e+00
2.970767100600505972e-01 3.180145658385715279e+00
2.981172589567159803e-01 3.167073962840479595e+00
2.991578078533813634e-01 3.336893419088386992e+00
3.001983567500468020e-01 3.147091256926593417e+00
3.012389056467121851e-01 3.128540648287845727e+00
3.022794545433775681e-01 2.785998376780746355e+00
3.033200034400429512e-01 2.672161405723930017e+00
3.043605523367083343e-01 2.647098222828308423e+00
3.054011012333737174e-01 2.532149433703590802e+00
3.064416501300391005e-01 2.496932599963571420e+00
3.074821990267044836e-01 2.503779834684369376e+00
3.085227479233698666e-01 2.341029500719802314e+00
3.095632968200352497e-01 2.568820755650726539e+00
3.106038457167006328e-01 2.554810433636507838e+00
3.116443946133660159e-01 2.332789096504857440e+00
3.126849435100313990e-01 2.320377835196794081e+00
3.137254924066967821e-01 2.213026428232428344e+00
3.147660413033621651e-01 2.347821123995782244e+00
3.158065902000275482e-01 2.429361426772256749e+00
3.168471390966929313e-01 2.245082265088587548e+00
3.178876879933583144e-01 2.372659612204426338e+00
3.189282368900236975e-01 2.270625023731021486e+00
3.199687857866890806e-01 2.366632106585900175e+00
3.210093346833544636e-01 2.449481808692073770e+00
3.220498835800198467e-01 2.582307608618286565e+00
3.230904324766852298e-01 2.428336277435480639e+00
3.241309813733506129e-01 2.229657919747776162e+00
3.251715302700159960e-01 2.422625619042605649e+00
3.262120791666813790e-01 2.610850848996904006e+00
3.272526280633467621e-01 2.430833781177835107e+00
3.282931769600121452e-01 2.213960342730558750e+00
3.293337258566775283e-01 2.312674834854664851e+00
3.303742747533429114e-01 2.343178658940146875e+00
3.314148236500082945e-01 2.144137005730886614e+00
3.324553725466736775e-01 2.298271006398774574e+00
3.334959214433390606e-01 2.265148381529993316e+00
3.345364703400044437e-01 2.251710593557699980e+00
3.355770192366698268e-01 2.080610793302692940e+00
3.366175681333352099e-01 2.204751871888255721e+00
3.376581170300005930e-01 2.525554070944387774e+00
3.386986659266659760e-01 2.538088096928149184e+00
3.397392148233313591e-01 2.503489803395883229e+00
3.407797637199967422e-01 2.385143798703911244e+00
3.418203126166621253e-01 2.216928253732834975e+00
3.428608615133275084e-01 2.056569100971426423e+00
3.439014104099928915e-01 2.269507939914408468e+00
3.449419593066582745e-01 2.172270836145525408e+00
3.459825082033236576e-01 2.008968416637859633e+00
3.470230570999890407e-01 2.022359995878606043e+00
3.480636059966544238e-01 2.446515975059291748e+00
3.491041548933198069e-01 2.232999095360408859e+00
3.501447037899851900e-01 1.844443025199158370e+00
3.511852526866505730e-01 1.950178295889127611e+00
3.522258015833159561e-01 2.009117429017258871e+00
3.532663504799813392e-01 2.049552202694336245e+00
3.543068993766467223e-01 2.061710770671290049e+00
3.553474482733121054e-01 1.862265493236268554e+00
3.563879971699774885e-01 1.909322412634168131e+00
3.574285460666428715e-01 2.050858155354532641e+00
3.584690949633082546e-01 1.937020719699518168e+00
3.595096438599736377e-01 1.919645165540281084e+00
3.605501927566390208e-01 1.750105028191754286e+00
3.615907416533044039e-01 1.662671034018934790e+00
3.626312905499697870e-01 1.800030714990139558e+00
3.636718394466351700e-01 1.726245051070854686e+00
3.647123883433005531e-01 1.756136200235633993e+00
3.657529372399659362e-01 1.760953493436890227e+00
3.667934861366313193e-01 1.697187613464318900e+00
3.678340350332967024e-01 1.720058416240338062e+00
3.688745839299620854e-01 1.807091412704838973e+00
3.699151328266274685e-01 1.998380820262021018e+00
3.709556817232928516e-01 1.796299490843058067e+00
3.719962306199582347e-01 1.821224689744923353e+00
3.730367795166236178e-01 1.829697046968064456e+00
3.740773284132890009e-01 1.812644089433263161e+00
3.751178773099543839e-01 1.810624606488847377e+00
3.761584262066197670e-01 1.655772397361861437e+00
3.771989751032851501e-01 1.616717596202455809e+00
3.782395239999505332e-01 1.754613919346191153e+00
3.792800728966159163e-01 1.773995582975778973e+00
3.803206217932812994e-01 1.800220307299191802e+00
3.813611706899466824e-01 1.888855008694424242e+00
3.824017195866120655e-01 1.614541819302527159e+00
3.834422684832774486e-01 1.602953362337132148e+00
3.844828173799428317e-01 1.678666236612112783e+00
3.855233662766082148e-01 1.676690174914789111e+00
3.865639151732735979e-01 1.520635086846787942e+00
3.876044640699389809e-01 1.519332604425521538e+00
3.886450129666043640e-01 1.627926857922364690e+00
3.896855618632697471e-01 1.611170447959484164e+00
3.907261107599351302e-01 1.604271792647583794e+00
3.917666596566005133e-01 1.668410089879181157e+00
3.928072085532658964e-01 1.622532800541726772e+00
3.938477574499312794e-01 1.693974478663555772e+00
3.948883063465966625e-01 1.776859685323369575e+00
3.959288552432620456e-01 1.715409344788835000e+00
3.969694041399274287e-01 1.603516095902595140e+00
3.980099530365928118e-01 1.467158509502500152e+00
3.990505019332581949e-01 1.466751157631435376e+00
4.000910508299235779e-01 1.487522650721427198e+00
4.011315997265889610e-01 1.548203867795830746e+00
4.021721486232543441e-01 1.375394781276416012e+00
4.032126975199197272e-01 1.417008350945813788e+00
4.042532464165851103e-01 1.501858066368988887e+00
4.052937953132504934e-01 1.402654589817473152e+00
4.063343442099158764e-01 1.328180019847902571e+00
4.073748931065812595e-01 1.477913216742127389e+00
4.084154420032466426e-01 1.342998997597430133e+00
4.094559908999120257e-01 1.178633707518162765e+00
4.104965397965774088e-01 1.319663546609824323e+00
4.115370886932427918e-01 1.224720140034122551e+00
4.125776375899081749e-01 1.341430883889451309e+00
4.136181864865735580e-01 1.176711044023253550e+00
4.146587353832389411e-01 1.214140604492012443e+00
4.156992842799043242e-01 1.353037706567498333e+00
4.167398331765697073e-01 1.499831204573762733e+00
4.177803820732350903e-01 1.408966630487793026e+00
4.188209309699004734e-01 1.135333492531941602e+00
4.198614798665658565e-01 1.003627629340897442e+00
4.209020287632312396e-01 1.133908956684891223e+00
4.219425776598966227e-01 1.257566781268661060e+00
4.229831265565620058e-01 1.391819929178382154e+00
4.240236754532273888e-01 1.413748717188990867e+00
4.250642243498927719e-01 1.440789743761278885e+00
4.261047732465581550e-01 1.262520673483283673e+00
4.271453221432235381e-01 1.234021550880104456e+00
4.281858710398889212e-01 1.353886654008377377e+00
4.292264199365543043e-01 1.233530150131375791e+00
4.302669688332196873e-01 1.154080119976686802e+00
4.313075177298850704e-01 1.197499794277419483e+00
4.323480666265504535e-01 1.438071657475965992e+00
4.333886155232158366e-01 1.406891350928958673e+00
4.344291644198812197e-01 1.275391748727066954e+00
