# q (1/Angstrom), Intensity (arb)
2.029070354705860696e-02 9.270824120750637576e+02
2.133125244372399004e-02 8.198457361104742631e+02
2.237180134038937659e-02 7.378382229120209104e+02
2.341235023705475968e-02 6.734645406700085459e+02
2.445289913372014276e-02 6.194402451179948912e+02
2.549344803038552584e-02 5.779331890767878122e+02
2.653399692705091240e-02 5.397744502522381254e+02
2.757454582371629548e-02 5.107034473813656632e+02
2.861509472038167856e-02 4.873960499716714594e+02
2.965564361704706164e-02 4.675512818672187336e+02
3.069619251371244473e-02 4.480853771499466802e+02
3.173674141037782781e-02 4.350356897986935110e+02
3.277729030704321089e-02 4.282799117668754434e+02
3.381783920370859398e-02 4.226513154811440813e+02
3.485838810037397706e-02 4.183783825030847083e+02
3.589893699703936014e-02 4.168420813616339728e+02
3.693948589370474322e-02 4.183185701898271418e+02
3.798003479037012631e-02 4.250024834349769094e+02
3.902058368703550939e-02 4.350435551981171329e+02
4.006113258370089247e-02 4.439230656988170836e+02
4.110168148036627556e-02 4.601849968489624416e+02
4.214223037703165864e-02 4.827038374226449378e+02
4.318277927369704866e-02 5.138090549654073129e+02
4.422332817036243174e-02 5.542786401346542107e+02
4.526387706702781483e-02 6.102686903800215532e+02
4.630442596369319791e-02 7.089528996990674159e+02
4.734497486035858099e-02 9.077796448634570652e+02
4.838552375702396408e-02 1.317925694575098760e+03
4.942607265368934716e-02 2.002273411336363552e+03
5.046662155035473024e-02 3.106240863612523754e+03
5.150717044702011332e-02 4.693939497204032705e+03
5.254771934368549641e-02 5.317382490606174542e+03
5.358826824035087949e-02 4.349516826899279295e+03
5.462881713701626257e-02 3.499706695675038645e+03
5.566936603368164566e-02 3.326881909667446507e+03
5.670991493034702874e-02 3.425751907976314214e+03
5.775046382701241182e-02 3.578969284594724741e+03
5.879101272367779490e-02 3.706323421913246420e+03
5.983156162034317799e-02 3.725435625967866144e+03
6.087211051700856107e-02 3.556250386595778764e+03
6.191265941367394415e-02 3.273320160017055059e+03
6.295320831033933417e-02 2.973818085533212525e+03
6.399375720700471726e-02 2.672319537572444915e+03
6.503430610367010034e-02 2.368626359171718377e+03
6.607485500033548342e-02 2.065185293895573977e+03
6.711540389700086651e-02 1.774092659947087213e+03
6.815595279366624959e-02 1.502648261600341812e+03
6.919650169033163267e-02 1.261329299013104219e+03
7.023705058699701576e-02 1.050435724390786845e+03
7.127759948366239884e-02 8.672095057353413949e+02
7.231814838032778192e-02 7.146743922460431122e+02
7.335869727699316500e-02 5.907118753821629298e+02
7.439924617365854809e-02 4.907724807108905338e+02
7.543979507032393117e-02 4.089464675290120113e+02
7.648034396698931425e-02 3.453452820524610729e+02
7.752089286365469734e-02 2.937633249288522848e+02
7.856144176032008042e-02 2.523068998641428493e+02
7.960199065698546350e-02 2.231398453755612081e+02
8.064253955365084658e-02 2.029819078427567547e+02
8.168308845031622967e-02 1.959489440023995712e+02
8.272363734698161275e-02 2.131852989648373580e+02
8.376418624364699583e-02 2.723976785320327849e+02
8.480473514031239279e-02 3.514775172463909598e+02
8.584528403697777588e-02 3.535242909733757415e+02
8.688583293364315896e-02 2.703366689102329019e+02
8.792638183030854204e-02 2.031651580923439440e+02
8.896693072697392513e-02 1.760315742233184153e+02
9.000747962363930821e-02 1.655558120952610466e+02
9.104802852030469129e-02 1.654290240145651865e+02
9.208857741697007437e-02 1.687472859210463696e+02
9.312912631363545746e-02 1.726382691883155189e+02
9.416967521030084054e-02 1.798707289742797002e+02
9.521022410696622362e-02 1.904088093554363184e+02
9.625077300363160671e-02 2.082054748426141657e+02
9.729132190029698979e-02 2.451851820990403894e+02
9.833187079696237287e-02 3.130987593193382850e+02
9.937241969362775595e-02 3.919430349147299921e+02
1.004129685902931390e-01 4.023244896141012532e+02
1.014535174869585221e-01 3.322366936920645912e+02
1.024940663836239052e-01 2.704392551975122956e+02
1.035346152802892883e-01 2.468778356431699308e+02
1.045751641769546714e-01 2.339691062724531037e+02
1.056157130736200545e-01 2.133949273469190189e+02
1.066562619702854375e-01 1.972187016852605836e+02
1.076968108669508206e-01 1.910264691525136982e+02
1.087373597636162037e-01 1.903886612442578894e+02
1.097779086602815868e-01 1.910665944622296308e+02
1.108184575569469699e-01 1.908783016601632596e+02
1.118590064536123529e-01 1.907974420433306193e+02
1.128995553502777360e-01 1.893842614957345631e+02
1.139401042469431191e-01 1.850284335881938773e+02
1.149806531436085022e-01 1.800213041566273091e+02
1.160212020402738853e-01 1.745447593588060897e+02
1.170617509369392684e-01 1.670189915350311196e+02
1.181022998336046514e-01 1.576435760649084159e+02
1.191428487302700345e-01 1.475150361668845846e+02
1.201833976269354176e-01 1.375895852544706770e+02
1.212239465236008007e-01 1.281060727987238010e+02
1.222644954202661838e-01 1.177674341662776243e+02
1.233050443169315669e-01 1.085628509854497707e+02
1.243455932135969499e-01 9.889597058009293562e+01
1.253861421102623330e-01 9.089256706045146927e+01
1.264266910069277161e-01 8.382644600996727036e+01
1.274672399035930992e-01 7.799203550195227308e+01
1.285077888002584823e-01 7.480422828577006555e+01
1.295483376969238654e-01 7.511754095176669921e+01
1.305888865935892484e-01 7.799255848602705044e+01
1.316294354902546315e-01 8.186666764478563607e+01
1.326699843869200146e-01 8.294822393335995514e+01
1.337105332835853977e-01 8.395024539844119715e+01
1.347510821802507808e-01 8.179777015497948867e+01
1.357916310769161639e-01 6.966496351609839621e+01
1.368321799735815469e-01 5.470762284877815773e+01
1.378727288702469300e-01 4.371749786811340499e+01
1.389132777669123131e-01 3.838774637045644056e+01
1.399538266635776962e-01 3.579821077068918100e+01
1.409943755602430793e-01 3.435409709031426928e+01
1.420349244569084624e-01 3.390510496148735342e+01
1.430754733535738454e-01 3.418696659889319278e+01
1.441160222502392285e-01 3.461022532283665498e+01
1.451565711469046116e-01 3.713368952224209352e+01
1.461971200435699947e-01 4.176113600656946545e+01
1.472376689402353778e-01 4.533605535718561441e+01
1.482782178369007609e-01 4.498368858578109553e+01
1.493187667335661439e-01 4.110800384102162752e+01
1.503593156302315270e-01 3.655835376213599375e+01
1.513998645268969101e-01 3.430260371639188577e+01
1.524404134235622932e-01 3.337948330261633600e+01
1.534809623202276763e-01 3.299683714597169626e+01
1.545215112168930593e-01 3.351363814341537761e+01
1.555620601135584424e-01 3.412399050563438152e+01
1.566026090102238255e-01 3.444997043727609309e+01
1.576431579068892086e-01 3.301092854108232189e+01
1.586837068035545917e-01 3.016109248723739356e+01
1.597242557002199748e-01 2.807911950870137829e+01
1.607648045968853578e-01 2.669736972740515668e+01
1.618053534935507409e-01 2.566135977173315297e+01
1.628459023902161240e-01 2.500082399907479314e+01
1.638864512868815071e-01 2.400237445963719196e+01
1.649270001835468902e-01 2.377721905580362716e+01
1.659675490802122733e-01 2.377179190561619038e+01
1.670080979768776563e-01 2.316269190172215175e+01
1.680486468735430672e-01 2.283355917964920678e+01
1.690891957702084503e-01 2.252504391546478857e+01
1.701297446668738333e-01 2.241121464161487964e+01
1.711702935635392164e-01 2.212090261900578625e+01
1.722108424602045995e-01 2.152953291529428625e+01
1.732513913568699826e-01 2.094254146129431504e+01
1.742919402535353657e-01 2.075869478466073659e+01
1.753324891502007488e-01 2.115953636356847412e+01
1.763730380468661318e-01 2.243726351299201127e+01
1.774135869435315149e-01 2.382073134444904738e+01
1.784541358401968980e-01 2.523322401048116603e+01
1.794946847368622811e-01 2.506313091020494710e+01
1.805352336335276642e-01 2.370742992756775180e+01
1.815757825301930473e-01 2.162794797298299443e+01
1.826163314268584303e-01 1.908853056833983430e+01
1.836568803235238134e-01 1.744051289578879249e+01
1.846974292201891965e-01 1.635020480835981260e+01
1.857379781168545796e-01 1.535495674647519948e+01
1.867785270135199627e-01 1.460002488995328918e+01
1.878190759101853458e-01 1.459723828382056254e+01
1.888596248068507288e-01 1.454114823629289432e+01
1.899001737035161119e-01 1.448199707057395358e+01
1.909407226001814950e-01 1.448763588978778216e+01
1.919812714968468781e-01 1.397243957944832360e+01
1.930218203935122612e-01 1.372508163562167383e+01
1.940623692901776443e-01 1.268579391516509958e+01
1.951029181868430273e-01 1.225002409009217530e+01
1.961434670835084104e-01 1.270833203503047670e+01
1.971840159801737935e-01 1.260409088105592801e+01
1.982245648768391766e-01 1.245630603358602784e+01
1.992651137735045597e-01 1.260877361545238529e+01
2.003056626701699428e-01 1.199196935136449937e+01
2.013462115668353813e-01 1.077408021489262069e+01
2.023867604635007644e-01 9.903469327377848686e+00
2.034273093601661475e-01 9.077547747567201952e+00
2.044678582568315306e-01 8.681427231821647439e+00
2.055084071534969137e-01 8.437531852185578884e+00
2.065489560501622968e-01 8.154380491826238142e+00
2.075895049468276798e-01 7.859948615626450419e+00
2.086300538434930629e-01 7.718403455569454508e+00
2.096706027401584460e-01 7.549374922406997257e+00
2.107111516368238291e-01 7.235338894056820180e+00
2.117517005334892122e-01 7.111233588327518618e+00
2.127922494301545953e-01 7.118516991716873576e+00
2.138327983268199783e-01 7.152971085667836348e+00
2.148733472234853614e-01 7.198803448721459830e+00
2.159138961201507445e-01 7.090900507764523297e+00
2.169544450168161276e-01 6.876741744319001981e+00
2.179949939134815107e-01 6.684698980083719988e+00
2.190355428101468938e-01 6.724834014376298796e+00
2.200760917068122768e-01 6.588430808117276882e+00
2.211166406034776599e-01 6.611936818422943674e+00
2.221571895001430430e-01 6.742558563327936128e+00
2.231977383968084261e-01 6.993032827166057785e+00
2.242382872934738092e-01 7.177528480594236981e+00
2.252788361901391923e-01 7.405287133566488933e+00
2.263193850868045753e-01 7.463108866977748335e+00
2.273599339834699584e-01 7.657398576482808750e+00
2.284004828801353415e-01 7.539574922622364284e+00
2.294410317768007246e-01 7.302588321150562223e+00
2.304815806734661077e-01 7.318986049445900477e+00
2.315221295701314908e-01 7.571523319906457772e+00
2.325626784667968738e-01 7.420158688931994817e+00
2.336032273634622569e-01 6.812610621242853881e+00
2.346437762601276400e-01 6.251363448215528251e+00
2.356843251567930231e-01 5.846483599762155592e+00
2.367248740534584062e-01 5.710940325993618671e+00
2.377654229501237892e-01 5.620626160084746914e+00
2.388059718467891723e-01 5.282229533707333502e+00
2.398465207434545554e-01 5.191562802199122473e+00
2.408870696401199385e-01 4.984216760814444314e+00
2.419276185367853216e-01 5.054052425388473324e+00
2.429681674334507047e-01 5.154385682562317328e+00
2.440087163301160877e-01 5.003218488519081575e+00
2.450492652267814708e-01 4.821755424235732335e+00
2.460898141234468539e-01 4.997345437954539449e+00
2.471303630201122370e-01 5.188064830877372913e+00
2.481709119167776201e-01 5.168003008737667159e+00
2.492114608134430032e-01 4.961326759614507864e+00
2.502520097101083585e-01 4.775382869606460190e+00
2.512925586067737416e-01 4.472768978686652019e+00
2.523331075034391247e-01 4.350142994653264594e+00
2.533736564001045077e-01 4.247310238214780043e+00
2.544142052967698908e-01 4.004601099960467536e+00
2.554547541934352739e-01 3.760240388864115602e+00
2.564953030901006570e-01 3.480414144312167224e+00
2.575358519867660401e-01 3.640297121544389114e+00
2.585764008834314231e-01 3.676081890684841369e+00
2.596169497800968062e-01 3.681615696755034861e+00
2.606574986767621893e-01 3.546084963014159541e+00
2.616980475734275724e-01 3.561932726648446845e+00
2.627385964700929555e-01 3.684429875075736049e+00
2.637791453667583386e-01 3.640632337687893738e+00
2.648196942634237216e-01 3.478631219283478515e+00
2.658602431600891047e-01 3.351580271418551860e+00
2.669007920567544878e-01 3.384317078686468250e+00
2.679413409534198709e-01 3.679552695106796278e+00
2.689818898500852540e-01 3.586410962380320200e+00
2.700224387467506371e-01 3.609287582024691687e+00
2.710629876434160201e-01 3.484992107117058424e+00
2.721035365400814032e-01 3.272770350297605546e+00
2.731440854367467863e-01 3.507486304352148920e+00
2.741846343334121694e-01 3.598779455074303968e+00
2.752251832300775525e-01 3.775813182791416978e+00
2.762657321267429356e-01 3.585106048501678799e+00
2.773062810234083186e-01 3.444399304758004376e+00
2.783468299200737017e-01 3.528139329991841322e+00
2.793873788167390848e-01 3.317707890779178825e+00
2.804279277134044679e-01 3.300555520480919824e+00
2.814684766100698510e-01 3.346840887347372728e+00
2.825090255067352341e-01 3.263893191357905010e+00
2.835495744034006171e-01 3.265116487251138011e+00
2.845901233000660002e-01 3.025843550524864867e+00
2.856306721967313833e-01 3.038470115794442705e+00
2.866712210933967664e-01 3.330870915244563690e+00
2.877117699900621495e-01 3.277301633263885350e+00
2.887523188867275326e-01 2.961251132793272234e+00
2.897928677833929156e-01 2.869899428403169139e+00
2.908334166800582987e-01 2.911234228755990472e+00
2.918739655767236818e-01 3.090714378500575066e+00
2.929145144733890649e-01 3.063848438500933469e+00
2.939550633700544480e-01 2.977671075891798580e+00
2.949956122667198311e-01 3.050648081943041490e+00
2.960361611633852141e-01 2.789802025412480901e+00
2.970767100600505972e-01 2.908089870333370186e+00
2.981172589567159803e-01 2.795220376502005166e+00
2.991578078533813634e-01 2.671390393438276334e+00
3.001983567500468020e-01 2.800465236680448555e+00
3.012389056467121851e-01 2.686023480203264313e+00
3.022794545433775681e-01 2.679600054121092256e+00
3.033200034400429512e-01 2.557398593599945258e+00
3.043605523367083343e-01 2.263358621903137191e+00
3.054011012333737174e-01 2.459050487878705837e+00
3.064416501300391005e-01 2.542471393114631439e+00
3.074821990267044836e-01 2.390186115028694047e+00
3.085227479233698666e-01 2.388034166389477519e+00
3.095632968200352497e-01 2.374882634649040369e+00
3.106038457167006328e-01 2.263059714048207383e+00
3.116443946133660159e-01 2.379805020203093591e+00
3.126849435100313990e-01 2.357826923996992008e+00
3.137254924066967821e-01 2.104091613245490322e+00
3.147660413033621651e-01 2.358418358750117960e+00
3.158065902000275482e-01 2.198473597020438319e+00
3.168471390966929313e-01 2.081728215131626314e+00
3.178876879933583144e-01 2.086878496130534444e+00
3.189282368900236975e-01 2.047034618590721777e+00
3.199687857866890806e-01 2.123490471061863616e+00
3.210093346833544636e-01 2.253394040203570370e+00
3.220498835800198467e-01 2.285925807664710874e+00
3.230904324766852298e-01 2.319745650586330754e+00
3.241309813733506129e-01 2.287571251427294783e+00
3.251715302700159960e-01 2.090299878099507680e+00
3.262120791666813790e-01 2.097915684374626721e+00
3.272526280633467621e-01 2.220921062181776762e+00
3.282931769600121452e-01 2.383492136328410282e+00
3.293337258566775283e-01 2.367116909905366384e+00
3.303742747533429114e-01 2.292929582119228371e+00
3.314148236500082945e-01 2.270357813436032046e+00
3.324553725466736775e-01 2.270290378800652320e+00
3.334959214433390606e-01 2.305748718845372025e+00
3.345364703400044437e-01 2.279925624573245102e+00
3.355770192366698268e-01 2.178539984811632024e+00
3.366175681333352099e-01 2.228054976035100054e+00
3.376581170300005930e-01 2.120671857581449160e+00
3.386986659266659760e-01 1.904521891179090431e+00
3.397392148233313591e-01 1.867856335858260053e+00
3.407797637199967422e-01 1.917400760653389824e+00
3.418203126166621253e-01 1.964125883418521568e+00
3.428608615133275084e-01 2.213910271727989709e+00
3.439014104099928915e-01 2.253561923708470971e+00
3.449419593066582745e-01 2.128467676880170245e+00
3.459825082033236576e-01 2.067828510802396380e+00
3.470230570999890407e-01 1.987866150320517278e+00
3.480636059966544238e-01 2.191815164762900281e+00
3.491041548933198069e-01 1.984866597417134670e+00
3.501447037899851900e-01 1.777934932415522695e+00
3.511852526866505730e-01 1.865826354584136482e+00
3.522258015833159561e-01 1.882014158497501199e+00
3.532663504799813392e-01 1.680842898630835691e+00
3.543068993766467223e-01 1.495583219895941340e+00
3.553474482733121054e-01 1.670865818252185164e+00
3.563879971699774885e-01 1.737014032732332680e+00
3.574285460666428715e-01 1.599741689242545561e+00
3.584690949633082546e-01 1.722284938049156722e+00
3.595096438599736377e-01 1.821491892939434365e+00
3.605501927566390208e-01 1.781662592122302158e+00
3.615907416533044039e-01 1.687709000634018963e+00
3.626312905499697870e-01 1.606314129612748332e+00
3.636718394466351700e-01 1.771472336726183983e+00
3.647123883433005531e-01 1.754329286507530838e+00
3.657529372399659362e-01 1.886635922468713034e+00
3.667934861366313193e-01 1.869931059743596080e+00
3.678340350332967024e-01 1.708325131568450672e+00
3.688745839299620854e-01 1.536388939966499834e+00
3.699151328266274685e-01 1.418962263819803837e+00
3.709556817232928516e-01 1.654712419914837085e+00
3.719962306199582347e-01 1.633981988992804446e+00
3.730367795166236178e-01 1.718529952105452452e+00
3.740773284132890009e-01 1.467558228793848230e+00
3.751178773099543839e-01 1.472103441625030484e+00
3.761584262066197670e-01 1.563484279661810916e+00
3.771989751032851501e-01 1.546900517770470884e+00
3.782395239999505332e-01 1.566960362501422566e+00
3.792800728966159163e-01 1.594348631160851681e+00
3.803206217932812994e-01 1.662948920236775763e+00
3.813611706899466824e-01 1.652069781028551176e+00
3.824017195866120655e-01 1.486207824224077712e+00
3.834422684832774486e-01 1.329912060598609003e+00
3.844828173799428317e-01 1.280231361182330829e+00
3.855233662766082148e-01 1.540095620222931672e+00
3.865639151732735979e-01 1.621269952825610261e+00
3.876044640699389809e-01 1.662597194081111951e+00
3.886450129666043640e-01 1.685820512064481136e+00
3.896855618632697471e-01 1.524768035524466825e+00
3.907261107599351302e-01 1.362918779758071963e+00
3.917666596566005133e-01 1.384617231047840846e+00
3.928072085532658964e-01 1.420247567712173975e+00
3.938477574499312794e-01 1.285805564342524576e+00
3.948883063465966625e-01 1.305031331344409296e+00
3.959288552432620456e-01 1.317827787976522558e+00
3.969694041399274287e-01 1.312246018414732873e+00
3.980099530365928118e-01 1.232880664309064400e+00
3.990505019332581949e-01 1.293113034298990272e+00
4.000910508299235779e-01 1.122840651823096891e+00
4.011315997265889610e-01 1.250773844599997631e+00
4.021721486232543441e-01 1.426640484204050097e+00
4.032126975199197272e-01 1.378005799860865466e+00
4.042532464165851103e-01 1.400019020532393910e+00
4.052937953132504934e-01 1.373890911556411965e+00
4.063343442099158764e-01 1.190891541930216846e+00
4.073748931065812595e-01 1.328848746563103589e+00
4.084154420032466426e-01 1.335300826182457712e+00
4.094559908999120257e-01 1.112792611729837233e+00
4.104965397965774088e-01 1.062201042113432692e+00
4.115370886932427918e-01 1.189021942608952997e+00
4.125776375899081749e-01 1.171488336037128875e+00
4.136181864865735580e-01 1.360072693782711895e+00
4.146587353832389411e-01 1.253683103285425204e+00
4.156992842799043242e-01 1.016358502517295648e+00
4.167398331765697073e-01 8.421352377865574113e-01
4.177803820732350903e-01 9.449757227454114172e-01
4.188209309699004734e-01 1.174921152951597492e+00
4.198614798665658565e-01 1.360368401724635135e+00
4.209020287632312396e-01 1.098008139314359255e+00
4.219425776598966227e-01 9.788930324412064010e-01
4.229831265565620058e-01 1.056864181399543412e+00
4.240236754532273888e-01 1.016185008252996624e+00
4.250642243498927719e-01 1.137681050975441366e+00
4.261047732465581550e-01 1.324841099632333652e+00
4.271453221432235381e-01 1.285373150884900895e+00
4.281858710398889212e-01 1.019033727753885898e+00
4.292264199365543043e-01 1.048851243620767093e+00
4.302669688332196873e-01 1.017558506202632884e+00
4.313075177298850704e-01 1.182603320972724248e+00
4.323480666265504535e-01 1.043866338350731837e+00
4.333886155232158366e-01 9.182146585464323607e-01
4.344291644198812197e-01 1.076167618058381237e+00
