# q (1/Angstrom), Intensity (arb)
2.029070354705860696e-02 9.467404326185537684e+02
2.133125244372399004e-02 8.393400660086940661e+02
2.237180134038937659e-02 7.560082368827272603e+02
2.341235023705475968e-02 6.825247202242164803e+02
2.445289913372014276e-02 6.265304137778193763e+02
2.549344803038552584e-02 5.862876509189479748e+02
2.653399692705091240e-02 5.449106314180477284e+02
2.757454582371629548e-02 5.152004372736589630e+02
2.861509472038167856e-02 4.944339029587187611e+02
2.965564361704706164e-02 4.718296760812837647e+02
3.069619251371244473e-02 4.560417082067564252e+02
3.173674141037782781e-02 4.453641036870961898e+02
3.277729030704321089e-02 4.350477177725369415e+02
3.381783920370859398e-02 4.269892212217914107e+02
3.485838810037397706e-02 4.218555233288051340e+02
3.589893699703936014e-02 4.204080368618829198e+02
3.693948589370474322e-02 4.219034456307068695e+02
3.798003479037012631e-02 4.267849208939846903e+02
3.902058368703550939e-02 4.353993730683131957e+02
4.006113258370089247e-02 4.456909624374025043e+02
4.110168148036627556e-02 4.600977879092378657e+02
4.214223037703165864e-02 4.818701672204422266e+02
4.318277927369704866e-02 5.099824850632350035e+02
4.422332817036243174e-02 5.462835878746673188e+02
4.526387706702781483e-02 6.021079860010195262e+02
4.630442596369319791e-02 6.941461971725681224e+02
4.734497486035858099e-02 8.726072343589631828e+02
4.838552375702396408e-02 1.241039310952764481e+03
4.942607265368934716e-02 1.876588223554310616e+03
5.046662155035473024e-02 2.885502521165019971e+03
5.150717044702011332e-02 4.429237255034636291e+03
5.254771934368549641e-02 5.275207161236027787e+03
5.358826824035087949e-02 4.437852828528916689e+03
5.462881713701626257e-02 3.496475375675950090e+03
5.566936603368164566e-02 3.261352807637235401e+03
5.670991493034702874e-02 3.338028780905327494e+03
5.775046382701241182e-02 3.486085270277329073e+03
5.879101272367779490e-02 3.624278151504225661e+03
5.983156162034317799e-02 3.662514661064828942e+03
6.087211051700856107e-02 3.528663288784955057e+03
6.191265941367394415e-02 3.258080697060363946e+03
6.295320831033933417e-02 2.966542540457686300e+03
6.399375720700471726e-02 2.672570742715663073e+03
6.503430610367010034e-02 2.378884386946081122e+03
6.607485500033548342e-02 2.083564010523813522e+03
6.711540389700086651e-02 1.795825328548920879e+03
6.815595279366624959e-02 1.526644418016361442e+03
6.919650169033163267e-02 1.283572395778414830e+03
7.023705058699701576e-02 1.068986919713101997e+03
7.127759948366239884e-02 8.852062131273195291e+02
7.231814838032778192e-02 7.323609629552132674e+02
7.335869727699316500e-02 6.051060857853112793e+02
7.439924617365854809e-02 5.021152183458118543e+02
7.543979507032393117e-02 4.184796276305206106e+02
7.648034396698931425e-02 3.518356461360574485e+02
7.752089286365469734e-02 2.987694240019303606e+02
7.856144176032008042e-02 2.573031514946131324e+02
7.960199065698546350e-02 2.250830242953518052e+02
8.064253955365084658e-02 2.041003719988697185e+02
8.168308845031622967e-02 1.935790326786682556e+02
8.272363734698161275e-02 2.039687970709653086e+02
8.376418624364699583e-02 2.550613723388184440e+02
8.480473514031239279e-02 3.394381207041692505e+02
8.584528403697777588e-02 3.663424334088082333e+02
8.688583293364315896e-02 2.929007849013881355e+02
8.792638183030854204e-02 2.159834966334518640e+02
8.896693072697392513e-02 1.804387353675183761e+02
9.000747962363930821e-02 1.687109779899036823e+02
9.104802852030469129e-02 1.670527331660973118e+02
9.208857741697007437e-02 1.691544527655604782e+02
9.312912631363545746e-02 1.732967975593736014e+02
9.416967521030084054e-02 1.807848273424161221e+02
9.521022410696622362e-02 1.892719320358055768e+02
9.625077300363160671e-02 2.037428212059832049e+02
9.729132190029698979e-02 2.330450671966258369e+02
9.833187079696237287e-02 2.914299493141559196e+02
9.937241969362775595e-02 3.724031436726589845e+02
1.004129685902931390e-01 4.059841565420413190e+02
1.014535174869585221e-01 3.503128767708487317e+02
1.024940663836239052e-01 2.805455642334839013e+02
1.035346152802892883e-01 2.476743759862763454e+02
1.045751641769546714e-01 2.350721834834862420e+02
1.056157130736200545e-01 2.184688179248433926e+02
1.066562619702854375e-01 2.001071035744352855e+02
1.076968108669508206e-01 1.899350762369483334e+02
1.087373597636162037e-01 1.877550934103560962e+02
1.097779086602815868e-01 1.885024785525323523e+02
1.108184575569469699e-01 1.901669912630172519e+02
1.118590064536123529e-01 1.902734380492281332e+02
1.128995553502777360e-01 1.878443194848087217e+02
1.139401042469431191e-01 1.840305969483053445e+02
1.149806531436085022e-01 1.800905823773110228e+02
1.160212020402738853e-01 1.750697753351740573e+02
1.170617509369392684e-01 1.669870762795234214e+02
1.181022998336046514e-01 1.580456175252911066e+02
1.191428487302700345e-01 1.484262711442713112e+02
1.201833976269354176e-01 1.387853377471845988e+02
1.212239465236008007e-01 1.293263326222572118e+02
1.222644954202661838e-01 1.191181989374191659e+02
1.233050443169315669e-01 1.096926632785343543e+02
1.243455932135969499e-01 1.007532205186148673e+02
1.253861421102623330e-01 9.294894452736440371e+01
1.264266910069277161e-01 8.543150389878800866e+01
1.274672399035930992e-01 7.921297694571504167e+01
1.285077888002584823e-01 7.502884603359181881e+01
1.295483376969238654e-01 7.464904555798962349e+01
1.305888865935892484e-01 7.800770320557583659e+01
1.316294354902546315e-01 8.271936841783458760e+01
1.326699843869200146e-01 8.454139432355401595e+01
1.337105332835853977e-01 8.509793283694092736e+01
1.347510821802507808e-01 8.444729895920086449e+01
1.357916310769161639e-01 7.653342728843412601e+01
1.368321799735815469e-01 6.090977938714931383e+01
1.378727288702469300e-01 4.769362431885870279e+01
1.389132777669123131e-01 4.088785068388799004e+01
1.399538266635776962e-01 3.701033019119793721e+01
1.409943755602430793e-01 3.516989834837059448e+01
1.420349244569084624e-01 3.458411118348833213e+01
1.430754733535738454e-01 3.395288318948338002e+01
1.441160222502392285e-01 3.473132349844885880e+01
1.451565711469046116e-01 3.685169137095638803e+01
1.461971200435699947e-01 3.966650075528053065e+01
1.472376689402353778e-01 4.376296208910160601e+01
1.482782178369007609e-01 4.548408073079753677e+01
1.493187667335661439e-01 4.310512412180366937e+01
1.503593156302315270e-01 3.869391965283529800e+01
1.513998645268969101e-01 3.571993497114964100e+01
1.524404134235622932e-01 3.403978286564931466e+01
1.534809623202276763e-01 3.339297115599781307e+01
1.545215112168930593e-01 3.357022622291511027e+01
1.555620601135584424e-01 3.450873303584961604e+01
1.566026090102238255e-01 3.469328511108862045e+01
1.576431579068892086e-01 3.390287593020087087e+01
1.586837068035545917e-01 3.144829900295654568e+01
1.597242557002199748e-01 2.938681191408714355e+01
1.607648045968853578e-01 2.776648111909566552e+01
1.618053534935507409e-01 2.657570045849629281e+01
1.628459023902161240e-01 2.571652532211962594e+01
1.638864512868815071e-01 2.534857163967948068e+01
1.649270001835468902e-01 2.485371744963950036e+01
1.659675490802122733e-01 2.403988411957611149e+01
1.670080979768776563e-01 2.354423913724912509e+01
1.680486468735430672e-01 2.363652152720388600e+01
1.690891957702084503e-01 2.348178373020063958e+01
1.701297446668738333e-01 2.301037405331878816e+01
1.711702935635392164e-01 2.248125710615216022e+01
1.722108424602045995e-01 2.190866492269202226e+01
1.732513913568699826e-01 2.159656500792888778e+01
1.742919402535353657e-01 2.098413762783170355e+01
1.753324891502007488e-01 2.140008913853011663e+01
1.763730380468661318e-01 2.208805775615748956e+01
1.774135869435315149e-01 2.331202498952735880e+01
1.784541358401968980e-01 2.477710628167624307e+01
1.794946847368622811e-01 2.570388229338754016e+01
1.805352336335276642e-01 2.530562924740639019e+01
1.815757825301930473e-01 2.352586834348003109e+01
1.826163314268584303e-01 2.101118788568573237e+01
1.836568803235238134e-01 1.871131942672956328e+01
1.846974292201891965e-01 1.723998261031087509e+01
1.857379781168545796e-01 1.613097351521626521e+01
1.867785270135199627e-01 1.547748711064370042e+01
1.878190759101853458e-01 1.497353447411444805e+01
1.888596248068507288e-01 1.483058232825259282e+01
1.899001737035161119e-01 1.516030609205754232e+01
1.909407226001814950e-01 1.497944173720986072e+01
1.919812714968468781e-01 1.442961467462922442e+01
1.930218203935122612e-01 1.360364676955503782e+01
1.940623692901776443e-01 1.328391702574741728e+01
1.951029181868430273e-01 1.286766336630378404e+01
1.961434670835084104e-01 1.273972290844445254e+01
1.971840159801737935e-01 1.286495143660934559e+01
1.982245648768391766e-01 1.277224669250543343e+01
1.992651137735045597e-01 1.218784539995130345e+01
2.003056626701699428e-01 1.195189571926307437e+01
2.013462115668353813e-01 1.138256898657947147e+01
2.023867604635007644e-01 1.056710707958717421e+01
2.034273093601661475e-01 9.746391137693919404e+00
2.044678582568315306e-01 9.330588322277936442e+00
2.055084071534969137e-01 9.023686051234420802e+00
2.065489560501622968e-01 8.202943651645703937e+00
2.075895049468276798e-01 8.171181985460016506e+00
2.086300538434930629e-01 8.293348847168818594e+00
2.096706027401584460e-01 8.129436571825117142e+00
2.107111516368238291e-01 8.023840966337285607e+00
2.117517005334892122e-01 7.653157045195737140e+00
2.127922494301545953e-01 7.503099899674968043e+00
2.138327983268199783e-01 7.434707346178722531e+00
2.148733472234853614e-01 7.265131215726665204e+00
2.159138961201507445e-01 7.340114431894832592e+00
2.169544450168161276e-01 7.286889954276649206e+00
2.179949939134815107e-01 7.203119238635309785e+00
2.190355428101468938e-01 7.033709653337822942e+00
2.200760917068122768e-01 7.164870044176954167e+00
2.211166406034776599e-01 7.240479144900408670e+00
2.221571895001430430e-01 7.338194913242077178e+00
2.231977383968084261e-01 7.121324621961342416e+00
2.242382872934738092e-01 7.310643115383630430e+00
2.252788361901391923e-01 7.542050147081887701e+00
2.263193850868045753e-01 7.482495015446993136e+00
2.273599339834699584e-01 7.542892679355198027e+00
2.284004828801353415e-01 7.823623698635408630e+00
2.294410317768007246e-01 7.907662988918257696e+00
2.304815806734661077e-01 7.689440616211385304e+00
2.315221295701314908e-01 7.949615404582040412e+00
2.325626784667968738e-01 8.024262163546939775e+00
2.336032273634622569e-01 7.495464723139594554e+00
2.346437762601276400e-01 6.981842549116390018e+00
2.356843251567930231e-01 6.398539901445555955e+00
2.367248740534584062e-01 5.987130624199028972e+00
2.377654229501237892e-01 5.955015083298100365e+00
2.388059718467891723e-01 5.794580538595074160e+00
2.398465207434545554e-01 5.329488252924544867e+00
2.408870696401199385e-01 5.130009051007785814e+00
2.419276185367853216e-01 4.823279392148073441e+00
2.429681674334507047e-01 4.522941614186475334e+00
2.440087163301160877e-01 4.869250756628044741e+00
2.450492652267814708e-01 5.135215490391281890e+00
2.460898141234468539e-01 5.329778457812491155e+00
2.471303630201122370e-01 5.501862219476468141e+00
2.481709119167776201e-01 5.584596485129697641e+00
2.492114608134430032e-01 5.281711020257901623e+00
2.502520097101083585e-01 5.006686358515427315e+00
2.512925586067737416e-01 4.713288567626943149e+00
2.523331075034391247e-01 4.282451991951983672e+00
2.533736564001045077e-01 4.255531041824845317e+00
2.544142052967698908e-01 4.327134353817090329e+00
2.554547541934352739e-01 3.563162777392985703e+00
2.564953030901006570e-01 3.938633723330791980e+00
2.575358519867660401e-01 4.259567798914030590e+00
2.585764008834314231e-01 4.162390059482625304e+00
2.596169497800968062e-01 4.023024587104320204e+00
2.606574986767621893e-01 3.843520352346509128e+00
2.616980475734275724e-01 4.031521281324295103e+00
2.627385964700929555e-01 3.948895531164467343e+00
2.637791453667583386e-01 3.537654971310178809e+00
2.648196942634237216e-01 3.554835342678050125e+00
2.658602431600891047e-01 3.888134156821319465e+00
2.669007920567544878e-01 3.569766908054141652e+00
2.679413409534198709e-01 3.244751826680790430e+00
2.689818898500852540e-01 3.154857488143299804e+00
2.700224387467506371e-01 3.464333442238821448e+00
2.710629876434160201e-01 3.668972164834439553e+00
2.721035365400814032e-01 3.721201021522290375e+00
2.731440854367467863e-01 3.832500408248350254e+00
2.741846343334121694e-01 3.749974314462196645e+00
2.752251832300775525e-01 3.818962193584951592e+00
2.762657321267429356e-01 3.808540067639370363e+00
2.773062810234083186e-01 3.823470110545940770e+00
2.783468299200737017e-01 3.813949100348736465e+00
2.793873788167390848e-01 3.658799934793311337e+00
2.804279277134044679e-01 3.443591948985815776e+00
2.814684766100698510e-01 3.400130234208759816e+00
2.825090255067352341e-01 3.380868829234287887e+00
2.835495744034006171e-01 3.421772032812480546e+00
2.845901233000660002e-01 3.488755275186790072e+00
2.856306721967313833e-01 3.357183210573985832e+00
2.866712210933967664e-01 3.230516327175653402e+00
2.877117699900621495e-01 3.385933284687496325e+00
2.887523188867275326e-01 3.196831491968001870e+00
2.897928677833929156e-01 3.184294762233385256e+00
2.908334166800582987e-01 3.381970535115662813e+00
2.918739655767236818e-01 3.149902424788859179e+00
2.929145144733890649e-01 2.950417452960294895e+00
2.939550633700544480e-01 2.843702246237320708e+00
2.949956122667198311e-01 3.086339628135217339e+00
2.960361611633852141e-01 3.291823491015367864e+00
2.970767100600505972e-01 3.020939688941489010e+00
2.981172589567159803e-01 2.953845733265705320e+00
2.991578078533813634e-01 2.866571254467370267e+00
3.001983567500468020e-01 2.826064695531961490e+00
3.012389056467121851e-01 2.681345752853736997e+00
3.022794545433775681e-01 2.581051292815438103e+00
3.033200034400429512e-01 2.541387209243044509e+00
3.043605523367083343e-01 2.529840428398799190e+00
3.054011012333737174e-01 2.491803080032870099e+00
3.064416501300391005e-01 2.496799691884032057e+00
3.074821990267044836e-01 2.544860134613518454e+00
3.085227479233698666e-01 2.351801403764046228e+00
3.095632968200352497e-01 2.574772465554577394e+00
3.106038457167006328e-01 2.585465974375452447e+00
3.116443946133660159e-01 2.351331878156866395e+00
3.126849435100313990e-01 2.173319151333842569e+00
3.137254924066967821e-01 2.019336936048635067e+00
3.147660413033621651e-01 2.139792101974130389e+00
3.158065902000275482e-01 2.174402360983776816e+00
3.168471390966929313e-01 2.025855318653235315e+00
3.178876879933583144e-01 2.036517371940252730e+00
3.189282368900236975e-01 2.224898893812262912e+00
3.199687857866890806e-01 2.274871550980254398e+00
3.210093346833544636e-01 2.428964795916783714e+00
3.220498835800198467e-01 2.066881629523653174e+00
3.230904324766852298e-01 2.351706470065320076e+00
3.241309813733506129e-01 2.386792238407032585e+00
3.251715302700159960e-01 2.370499160364214930e+00
3.262120791666813790e-01 2.435428855884566701e+00
3.272526280633467621e-01 2.208448639259927404e+00
3.282931769600121452e-01 2.219057190387644596e+00
3.293337258566775283e-01 2.262840737448016171e+00
3.303742747533429114e-01 2.350019016798221116e+00
3.314148236500082945e-01 2.274698264058820030e+00
3.324553725466736775e-01 2.198272766151820434e+00
3.334959214433390606e-01 2.061767781244274289e+00
3.345364703400044437e-01 2.042899876467433984e+00
3.355770192366698268e-01 2.223948787581036868e+00
3.366175681333352099e-01 2.200715311743163483e+00
3.376581170300005930e-01 1.997794999769720192e+00
3.386986659266659760e-01 2.030090584395544795e+00
3.397392148233313591e-01 2.254020606269058646e+00
3.407797637199967422e-01 2.185923860267802610e+00
3.418203126166621253e-01 2.336900188105850873e+00
3.428608615133275084e-01 2.100854603180227542e+00
3.439014104099928915e-01 2.025191806948956952e+00
3.449419593066582745e-01 2.125173758167974825e+00
3.459825082033236576e-01 2.294708960929483510e+00
3.470230570999890407e-01 2.264466341479934641e+00
3.480636059966544238e-01 2.057590600041571349e+00
3.491041548933198069e-01 1.934143834642636506e+00
3.501447037899851900e-01 2.018636714738359927e+00
3.511852526866505730e-01 2.002631471384212603e+00
3.522258015833159561e-01 1.825751626878684419e+00
3.532663504799813392e-01 2.017646625371824598e+00
3.543068993766467223e-01 1.863457637895301389e+00
3.553474482733121054e-01 1.781978970539540796e+00
3.563879971699774885e-01 1.861102956943675224e+00
3.574285460666428715e-01 1.911163417532844022e+00
3.584690949633082546e-01 1.786781734238516606e+00
3.595096438599736377e-01 1.763044663736167195e+00
3.605501927566390208e-01 1.630501069284122195e+00
3.615907416533044039e-01 1.640801587722396704e+00
3.626312905499697870e-01 1.678613866048699776e+00
3.636718394466351700e-01 1.567204749884293591e+00
3.647123883433005531e-01 1.558265267356116368e+00
3.657529372399659362e-01 1.373023491964346476e+00
3.667934861366313193e-01 1.541071673015910193e+00
3.678340350332967024e-01 1.802918844853046210e+00
3.688745839299620854e-01 1.652813003930464930e+00
3.699151328266274685e-01 1.567206305459791338e+00
3.709556817232928516e-01 1.777533590934304186e+00
3.719962306199582347e-01 1.754199769140942777e+00
3.730367795166236178e-01 1.735916476165510147e+00
3.740773284132890009e-01 1.643052181524556232e+00
3.751178773099543839e-01 1.697668992371774266e+00
3.761584262066197670e-01 1.988793140448322561e+00
3.771989751032851501e-01 1.711607327044703197e+00
3.782395239999505332e-01 1.377409647215284139e+00
3.792800728966159163e-01 1.596510717215888775e+00
3.803206217932812994e-01 1.572997090934137532e+00
3.813611706899466824e-01 1.660128132733152739e+00
3.824017195866120655e-01 1.865131660434048655e+00
3.834422684832774486e-01 1.797376487648744359e+00
3.844828173799428317e-01 1.602275716018702667e+00
3.855233662766082148e-01 1.547893095557999033e+00
3.865639151732735979e-01 1.671498581098727954e+00
3.876044640699389809e-01 1.530929477263750726e+00
3.886450129666043640e-01 1.624762914789549484e+00
3.896855618632697471e-01 1.655109930531335038e+00
3.907261107599351302e-01 1.683275559030608548e+00
3.917666596566005133e-01 1.461673760782954190e+00
3.928072085532658964e-01 1.459220436957309630e+00
3.938477574499312794e-01 1.560934859411961639e+00
3.948883063465966625e-01 1.558455692769658896e+00
3.959288552432620456e-01 1.771188893173793133e+00
3.969694041399274287e-01 1.640083037001193844e+00
3.980099530365928118e-01 1.438604809950746244e+00
3.990505019332581949e-01 1.375192162249483374e+00
4.000910508299235779e-01 1.266842660537822240e+00
4.011315997265889610e-01 1.248285548909201736e+00
4.021721486232543441e-01 1.262129621981607386e+00
4.032126975199197272e-01 1.306049103152098212e+00
4.042532464165851103e-01 1.181679843063527358e+00
4.052937953132504934e-01 1.300064657379142119e+00
4.063343442099158764e-01 1.354424141200205156e+00
4.073748931065812595e-01 1.188683113184787032e+00
4.084154420032466426e-01 1.224115984866521956e+00
4.094559908999120257e-01 1.237466728278221240e+00
4.104965397965774088e-01 1.170876230456872946e+00
4.115370886932427918e-01 1.235062897452756658e+00
4.125776375899081749e-01 1.226048291965351922e+00
4.136181864865735580e-01 1.159279153250967198e+00
4.146587353832389411e-01 1.289326112829449755e+00
4.156992842799043242e-01 1.169617817641583457e+00
4.167398331765697073e-01 1.167780390022439718e+00
4.177803820732350903e-01 1.076836502597977585e+00
4.188209309699004734e-01 9.952234042719183549e-01
4.198614798665658565e-01 1.144347765276773288e+00
4.209020287632312396e-01 1.345026992061384874e+00
4.219425776598966227e-01 1.264969644454946973e+00
4.229831265565620058e-01 1.146403051379131455e+00
4.240236754532273888e-01 1.119651073922511841e+00
4.250642243498927719e-01 1.047194134601586057e+00
4.261047732465581550e-01 1.121783549745249076e+00
4.271453221432235381e-01 1.104630577824401882e+00
4.281858710398889212e-01 1.081984631218592341e+00
4.292264199365543043e-01 9.962181758036763313e-01
4.302669688332196873e-01 9.344325371256303470e-01
4.313075177298850704e-01 1.108595133131139221e+00
4.323480666265504535e-01 1.241713782678385058e+00
4.333886155232158366e-01 1.353610186199507126e+00
4.344291644198812197e-01 1.455635873729839602e+00
