# q (1/Angstrom), Intensity (arb)
2.029070354705860696e-02 9.427437075277573513e+02
2.133125244372399004e-02 8.347451263466172122e+02
2.237180134038937659e-02 7.534584212891867310e+02
2.341235023705475968e-02 6.864467851459082794e+02
2.445289913372014276e-02 6.308013298999944709e+02
2.549344803038552584e-02 5.827918100070620540e+02
2.653399692705091240e-02 5.451861047247974739e+02
2.757454582371629548e-02 5.167682447384431725e+02
2.861509472038167856e-02 4.948888521214149705e+02
2.965564361704706164e-02 4.747827523852732270e+02
3.069619251371244473e-02 4.576536397867828327e+02
3.173674141037782781e-02 4.449629087895916655e+02
3.277729030704321089e-02 4.341966209555976093e+02
3.381783920370859398e-02 4.251580294382724219e+02
3.485838810037397706e-02 4.228798962563536179e+02
3.589893699703936014e-02 4.228564018825434800e+02
3.693948589370474322e-02 4.225599076490684638e+02
3.798003479037012631e-02 4.254378359622589301e+02
3.902058368703550939e-02 4.339251643119597475e+02
4.006113258370089247e-02 4.456395219636782485e+02
4.110168148036627556e-02 4.598090151006756514e+02
4.214223037703165864e-02 4.796937860894049095e+02
4.318277927369704866e-02 5.109188418316280149e+02
4.422332817036243174e-02 5.490489139026087742e+02
4.526387706702781483e-02 6.047717205859263458e+02
4.630442596369319791e-02 6.929960112440485318e+02
4.734497486035858099e-02 8.653896759736254580e+02
4.838552375702396408e-02 1.227499707285083787e+03
4.942607265368934716e-02 1.857195942586111869e+03
5.046662155035473024e-02 2.857257719806675595e+03
5.150717044702011332e-02 4.397913367874706637e+03
5.254771934368549641e-02 5.260614126521147227e+03
5.358826824035087949e-02 4.443267575299027158e+03
5.462881713701626257e-02 3.499927742614151157e+03
5.566936603368164566e-02 3.250345650954064695e+03
5.670991493034702874e-02 3.322342771696236468e+03
5.775046382701241182e-02 3.469550583642924721e+03
5.879101272367779490e-02 3.606029032742926574e+03
5.983156162034317799e-02 3.645847341126637275e+03
6.087211051700856107e-02 3.514366399869845282e+03
6.191265941367394415e-02 3.255097210825895672e+03
6.295320831033933417e-02 2.960476913486903868e+03
6.399375720700471726e-02 2.668351776496770071e+03
6.503430610367010034e-02 2.377614605832253346e+03
6.607485500033548342e-02 2.081666748590932912e+03
6.711540389700086651e-02 1.792208279346755944e+03
6.815595279366624959e-02 1.528357081944448737e+03
6.919650169033163267e-02 1.284604840473664353e+03
7.023705058699701576e-02 1.067812849564217686e+03
7.127759948366239884e-02 8.841366938983335331e+02
7.231814838032778192e-02 7.303064084681324175e+02
7.335869727699316500e-02 6.044307756376031193e+02
7.439924617365854809e-02 5.035249014704924662e+02
7.543979507032393117e-02 4.186036937234198376e+02
7.648034396698931425e-02 3.512471410043836499e+02
7.752089286365469734e-02 2.982376700164383010e+02
7.856144176032008042e-02 2.578100773653591204e+02
7.960199065698546350e-02 2.246717989493351411e+02
8.064253955365084658e-02 2.038545112385589277e+02
8.168308845031622967e-02 1.947992076993582202e+02
8.272363734698161275e-02 2.049615346731823422e+02
8.376418624364699583e-02 2.548779306118541683e+02
8.480473514031239279e-02 3.398558434415966190e+02
8.584528403697777588e-02 3.671467519637884038e+02
8.688583293364315896e-02 2.944801714362726557e+02
8.792638183030854204e-02 2.165521890869603112e+02
8.896693072697392513e-02 1.812952903994273015e+02
9.000747962363930821e-02 1.691222692222723367e+02
9.104802852030469129e-02 1.661835103075615052e+02
9.208857741697007437e-02 1.687442043863991046e+02
9.312912631363545746e-02 1.728368329842083995e+02
9.416967521030084054e-02 1.792209164257183431e+02
9.521022410696622362e-02 1.888121249447877403e+02
9.625077300363160671e-02 2.038315042769766023e+02
9.729132190029698979e-02 2.311043811533579344e+02
9.833187079696237287e-02 2.882020595166790713e+02
9.937241969362775595e-02 3.683662678248065276e+02
1.004129685902931390e-01 4.047125205484580306e+02
1.014535174869585221e-01 3.518118839564335190e+02
1.024940663836239052e-01 2.800319991589101960e+02
1.035346152802892883e-01 2.485862274711158193e+02
1.045751641769546714e-01 2.358981237295448921e+02
1.056157130736200545e-01 2.173050318061831092e+02
1.066562619702854375e-01 1.989298522220996119e+02
1.076968108669508206e-01 1.908830581727531239e+02
1.087373597636162037e-01 1.881423230383728082e+02
1.097779086602815868e-01 1.879353273875574075e+02
1.108184575569469699e-01 1.883684679456916342e+02
1.118590064536123529e-01 1.895197194146057029e+02
1.128995553502777360e-01 1.883725718566624607e+02
1.139401042469431191e-01 1.853851029694581030e+02
1.149806531436085022e-01 1.806435659908850653e+02
1.160212020402738853e-01 1.748919518915301978e+02
1.170617509369392684e-01 1.671203425767676833e+02
1.181022998336046514e-01 1.580902895176118932e+02
1.191428487302700345e-01 1.489237850088236996e+02
1.201833976269354176e-01 1.394709878457414902e+02
1.212239465236008007e-01 1.293319230852955855e+02
1.222644954202661838e-01 1.193272952219493561e+02
1.233050443169315669e-01 1.099494239290696669e+02
1.243455932135969499e-01 1.008508886946161738e+02
1.253861421102623330e-01 9.290317258143039680e+01
1.264266910069277161e-01 8.648164885018037751e+01
1.274672399035930992e-01 8.027709485390191446e+01
1.285077888002584823e-01 7.590255107143002533e+01
1.295483376969238654e-01 7.463850376562996303e+01
1.305888865935892484e-01 7.797322504736432336e+01
1.316294354902546315e-01 8.210911039241031517e+01
1.326699843869200146e-01 8.345224486992960067e+01
1.337105332835853977e-01 8.420178869292425361e+01
1.347510821802507808e-01 8.384786494176833571e+01
1.357916310769161639e-01 7.568594676200237359e+01
1.368321799735815469e-01 6.054925778111834234e+01
1.378727288702469300e-01 4.795076799725831052e+01
1.389132777669123131e-01 4.083228425040702803e+01
1.399538266635776962e-01 3.708844256199047607e+01
1.409943755602430793e-01 3.521589713131346855e+01
1.420349244569084624e-01 3.453274985009353770e+01
1.430754733535738454e-01 3.413341249027008217e+01
1.441160222502392285e-01 3.492614271104302759e+01
1.451565711469046116e-01 3.658816089489765488e+01
1.461971200435699947e-01 3.942921970623516614e+01
1.472376689402353778e-01 4.366039342288303260e+01
1.482782178369007609e-01 4.575434402679134394e+01
1.493187667335661439e-01 4.345384535028065898e+01
1.503593156302315270e-01 3.927049180924249328e+01
1.513998645268969101e-01 3.537275567648269003e+01
1.524404134235622932e-01 3.419977071686464853e+01
1.534809623202276763e-01 3.377748672988305145e+01
1.545215112168930593e-01 3.395376335852627392e+01
1.555620601135584424e-01 3.436176751622221559e+01
1.566026090102238255e-01 3.479740268186485252e+01
1.576431579068892086e-01 3.389933367999804403e+01
1.586837068035545917e-01 3.139940844518791963e+01
1.597242557002199748e-01 2.959902090062650615e+01
1.607648045968853578e-01 2.747832472720433472e+01
1.618053534935507409e-01 2.646668948691775114e+01
1.628459023902161240e-01 2.631337684989847858e+01
1.638864512868815071e-01 2.522267003353961101e+01
1.649270001835468902e-01 2.489586129686964355e+01
1.659675490802122733e-01 2.458518667757322262e+01
1.670080979768776563e-01 2.444932852593571226e+01
1.680486468735430672e-01 2.401480278397567858e+01
1.690891957702084503e-01 2.350675186506245495e+01
1.701297446668738333e-01 2.305677231613524825e+01
1.711702935635392164e-01 2.277591405026649696e+01
1.722108424602045995e-01 2.218881163456602934e+01
1.732513913568699826e-01 2.181232034303432243e+01
1.742919402535353657e-01 2.152211176691592343e+01
1.753324891502007488e-01 2.145636635528291691e+01
1.763730380468661318e-01 2.205585422632294623e+01
1.774135869435315149e-01 2.360027526791953889e+01
1.784541358401968980e-01 2.588927748155085595e+01
1.794946847368622811e-01 2.629759308257075645e+01
1.805352336335276642e-01 2.509408840626885961e+01
1.815757825301930473e-01 2.283503723231588367e+01
1.826163314268584303e-01 2.092711079258771889e+01
1.836568803235238134e-01 1.889008110995113654e+01
1.846974292201891965e-01 1.730556300653880086e+01
1.857379781168545796e-01 1.606592261518447629e+01
1.867785270135199627e-01 1.565918017753921632e+01
1.878190759101853458e-01 1.555023178064958600e+01
1.888596248068507288e-01 1.536603578031195028e+01
1.899001737035161119e-01 1.538685890879935059e+01
1.909407226001814950e-01 1.506159701874546286e+01
1.919812714968468781e-01 1.442730298527165544e+01
1.930218203935122612e-01 1.359618548264493398e+01
1.940623692901776443e-01 1.340236259849120870e+01
1.951029181868430273e-01 1.276231003192994251e+01
1.961434670835084104e-01 1.256720068833882209e+01
1.971840159801737935e-01 1.255616510962609311e+01
1.982245648768391766e-01 1.249393563501631377e+01
1.992651137735045597e-01 1.215417140342613678e+01
2.003056626701699428e-01 1.215204477586912191e+01
2.013462115668353813e-01 1.204456454042242797e+01
2.023867604635007644e-01 1.066815284433436517e+01
2.034273093601661475e-01 9.709975189353947655e+00
2.044678582568315306e-01 9.137938073937114325e+00
2.055084071534969137e-01 8.985130878916045560e+00
2.065489560501622968e-01 9.014849672751697796e+00
2.075895049468276798e-01 8.548864536809222869e+00
2.086300538434930629e-01 8.139865047418027189e+00
2.096706027401584460e-01 7.860688738485904992e+00
2.107111516368238291e-01 7.561479613457372295e+00
2.117517005334892122e-01 7.845406395574990199e+00
2.127922494301545953e-01 7.847279582427336919e+00
2.138327983268199783e-01 7.533527422881178381e+00
2.148733472234853614e-01 7.373417315224497059e+00
2.159138961201507445e-01 7.345455124775153166e+00
2.169544450168161276e-01 7.538714285927738956e+00
2.179949939134815107e-01 7.105506114852250477e+00
2.190355428101468938e-01 7.232649899338543520e+00
2.200760917068122768e-01 7.473490566292923631e+00
2.211166406034776599e-01 7.339744642757437987e+00
2.221571895001430430e-01 7.184299691130828336e+00
2.231977383968084261e-01 7.269317250403151576e+00
2.242382872934738092e-01 7.729371041257277142e+00
2.252788361901391923e-01 8.031947593558584231e+00
2.263193850868045753e-01 8.005168344863449192e+00
2.273599339834699584e-01 7.645534262393777425e+00
2.284004828801353415e-01 7.810955735805869438e+00
2.294410317768007246e-01 7.799448873604447385e+00
2.304815806734661077e-01 8.056427713844083627e+00
2.315221295701314908e-01 8.155045510498812433e+00
2.325626784667968738e-01 8.082879818537470840e+00
2.336032273634622569e-01 7.446809037010847732e+00
2.346437762601276400e-01 6.613572290477311100e+00
2.356843251567930231e-01 6.109744027158612312e+00
2.367248740534584062e-01 5.918971749630305368e+00
2.377654229501237892e-01 5.985266529917183220e+00
2.388059718467891723e-01 5.727935608360276376e+00
2.398465207434545554e-01 5.712135575346028560e+00
2.408870696401199385e-01 5.105783835475211418e+00
2.419276185367853216e-01 5.211730670767810381e+00
2.429681674334507047e-01 5.375015015893890080e+00
2.440087163301160877e-01 5.025745668865322813e+00
2.450492652267814708e-01 4.966987447281599799e+00
2.460898141234468539e-01 5.093490900209435068e+00
2.471303630201122370e-01 5.043680652630651906e+00
2.481709119167776201e-01 5.339809860993373292e+00
2.492114608134430032e-01 5.424809336081956701e+00
2.502520097101083585e-01 5.040531397048887641e+00
2.512925586067737416e-01 4.839652749711572000e+00
2.523331075034391247e-01 4.664263090974547055e+00
2.533736564001045077e-01 4.763183623521321408e+00
2.544142052967698908e-01 4.413815664412780393e+00
2.554547541934352739e-01 3.930996588279711546e+00
2.564953030901006570e-01 3.838071229098225956e+00
2.575358519867660401e-01 3.819017081607668729e+00
2.585764008834314231e-01 3.910828010914702446e+00
2.596169497800968062e-01 3.934662924267897210e+00
2.606574986767621893e-01 3.413267197519026297e+00
2.616980475734275724e-01 3.302053943440679262e+00
2.627385964700929555e-01 3.334626212644820953e+00
2.637791453667583386e-01 3.298565199422956340e+00
2.648196942634237216e-01 3.146274048861442907e+00
2.658602431600891047e-01 3.311747057568055652e+00
2.669007920567544878e-01 3.652779164808496404e+00
2.679413409534198709e-01 3.698976724697981666e+00
2.689818898500852540e-01 3.480091663586769357e+00
2.700224387467506371e-01 3.520060497697301116e+00
2.710629876434160201e-01 3.685399214336591456e+00
2.721035365400814032e-01 4.007662688005556362e+00
2.731440854367467863e-01 4.024373339224109003e+00
2.741846343334121694e-01 4.038461943302923629e+00
2.752251832300775525e-01 3.992538972890240956e+00
2.762657321267429356e-01 3.927143810278849401e+00
2.773062810234083186e-01 3.786972908978938790e+00
2.783468299200737017e-01 3.639093068758018745e+00
2.793873788167390848e-01 3.448115255042473848e+00
2.804279277134044679e-01 3.523247717876817120e+00
2.814684766100698510e-01 3.665249454347680569e+00
2.825090255067352341e-01 3.581182639880925223e+00
2.835495744034006171e-01 3.524812901965248102e+00
2.845901233000660002e-01 3.521475520280091587e+00
2.856306721967313833e-01 3.580082183807245855e+00
2.866712210933967664e-01 3.382161154265759251e+00
2.877117699900621495e-01 3.107257072737247938e+00
2.887523188867275326e-01 3.194589186611235476e+00
2.897928677833929156e-01 3.190260630079070125e+00
2.908334166800582987e-01 3.071305247308487196e+00
2.918739655767236818e-01 2.662172418956785691e+00
2.929145144733890649e-01 3.060325700336811394e+00
2.939550633700544480e-01 3.130443405384880862e+00
2.949956122667198311e-01 2.882234487111904997e+00
2.960361611633852141e-01 2.894979053630766686e+00
2.970767100600505972e-01 2.908650346843202783e+00
2.981172589567159803e-01 2.829112464081838141e+00
2.991578078533813634e-01 2.994223492031558465e+00
3.001983567500468020e-01 2.771017281109017460e+00
3.012389056467121851e-01 2.809560522404439098e+00
3.022794545433775681e-01 3.025622365438128014e+00
3.033200034400429512e-01 2.949986021250868617e+00
3.043605523367083343e-01 2.729871906428016359e+00
3.054011012333737174e-01 2.441339644388957453e+00
3.064416501300391005e-01 2.617664056408180784e+00
3.074821990267044836e-01 2.606458068555919994e+00
3.085227479233698666e-01 2.407552812384540886e+00
3.095632968200352497e-01 2.289890321100109816e+00
3.106038457167006328e-01 2.409830806011839854e+00
3.116443946133660159e-01 2.443715432940340548e+00
3.126849435100313990e-01 2.531833056678241434e+00
3.137254924066967821e-01 2.571667053892880972e+00
3.147660413033621651e-01 2.578709126540761787e+00
3.158065902000275482e-01 2.474360151331978841e+00
3.168471390966929313e-01 2.363739492445684931e+00
3.178876879933583144e-01 2.153761679136799501e+00
3.189282368900236975e-01 2.141461437490978170e+00
3.199687857866890806e-01 2.162119897856005224e+00
3.210093346833544636e-01 2.067113960928178784e+00
3.220498835800198467e-01 2.184893223488000302e+00
3.230904324766852298e-01 2.401911036112263531e+00
3.241309813733506129e-01 2.612663784126358024e+00
3.251715302700159960e-01 2.719189428807297304e+00
3.262120791666813790e-01 2.716456422431797080e+00
3.272526280633467621e-01 2.683444029330701142e+00
3.282931769600121452e-01 2.665345594121706796e+00
3.293337258566775283e-01 2.521898586578881662e+00
3.303742747533429114e-01 2.292771716320970654e+00
3.314148236500082945e-01 2.162200973114675406e+00
3.324553725466736775e-01 2.202791205923148254e+00
3.334959214433390606e-01 2.399672875038532993e+00
3.345364703400044437e-01 2.476942373708865830e+00
3.355770192366698268e-01 2.320384956442683944e+00
3.366175681333352099e-01 2.486929158100846138e+00
3.376581170300005930e-01 2.074324994273645473e+00
3.386986659266659760e-01 2.126423843187811968e+00
3.397392148233313591e-01 2.233952224972245659e+00
3.407797637199967422e-01 2.352738304587681739e+00
3.418203126166621253e-01 2.309590453849182268e+00
3.428608615133275084e-01 2.103071884050486062e+00
3.439014104099928915e-01 2.021527269949519479e+00
3.449419593066582745e-01 2.133823882524939819e+00
3.459825082033236576e-01 2.460309987057303971e+00
3.470230570999890407e-01 2.384601945520685717e+00
3.480636059966544238e-01 2.264495963898657038e+00
3.491041548933198069e-01 2.270683713801581405e+00
3.501447037899851900e-01 1.963954212340858874e+00
3.511852526866505730e-01 1.972993991214956111e+00
3.522258015833159561e-01 2.115445048123195448e+00
3.532663504799813392e-01 2.030699460848605753e+00
3.543068993766467223e-01 1.846141335454337451e+00
3.553474482733121054e-01 1.685759549770057930e+00
3.563879971699774885e-01 1.838960921446883390e+00
3.574285460666428715e-01 1.606083880793573115e+00
3.584690949633082546e-01 1.565166834290607767e+00
3.595096438599736377e-01 1.678333120750036045e+00
3.605501927566390208e-01 1.530354393911970590e+00
3.615907416533044039e-01 1.876842065806179960e+00
3.626312905499697870e-01 1.615835470330221568e+00
3.636718394466351700e-01 1.384496152192717489e+00
3.647123883433005531e-01 1.475083319372277657e+00
3.657529372399659362e-01 1.666373216082902786e+00
3.667934861366313193e-01 1.584981070235102152e+00
3.678340350332967024e-01 1.699444667488297256e+00
3.688745839299620854e-01 1.710723668725869118e+00
3.699151328266274685e-01 1.660510608919000930e+00
3.709556817232928516e-01 1.592734035727112030e+00
3.719962306199582347e-01 1.729770212696731591e+00
3.730367795166236178e-01 1.766249332142919570e+00
3.740773284132890009e-01 1.817456891465806024e+00
3.751178773099543839e-01 1.825159615000391256e+00
3.761584262066197670e-01 2.003996639593410123e+00
3.771989751032851501e-01 2.017084534968869747e+00
3.782395239999505332e-01 1.816023340321645918e+00
3.792800728966159163e-01 1.731027131634373717e+00
3.803206217932812994e-01 1.762204189028725665e+00
3.813611706899466824e-01 1.828726758950413256e+00
3.824017195866120655e-01 1.836514969759917904e+00
3.834422684832774486e-01 1.624096606219190164e+00
3.844828173799428317e-01 1.655511026259784302e+00
3.855233662766082148e-01 1.782166995790515074e+00
3.865639151732735979e-01 1.780947002773466181e+00
3.876044640699389809e-01 1.482464099764936094e+00
3.886450129666043640e-01 1.505032670253825700e+00
3.896855618632697471e-01 1.549912627350082062e+00
3.907261107599351302e-01 1.379313295939862627e+00
3.917666596566005133e-01 1.468982808562600439e+00
3.928072085532658964e-01 1.615873973059517965e+00
3.938477574499312794e-01 1.605238301140690993e+00
3.948883063465966625e-01 1.569706295962120635e+00
3.959288552432620456e-01 1.487899315844625647e+00
3.969694041399274287e-01 1.498050280828337577e+00
3.980099530365928118e-01 1.594917015433296115e+00
3.990505019332581949e-01 1.442444145414121692e+00
4.000910508299235779e-01 1.400214022743806908e+00
4.011315997265889610e-01 1.456569541191939265e+00
4.021721486232543441e-01 1.329164365045905072e+00
4.032126975199197272e-01 1.519409674592125725e+00
4.042532464165851103e-01 1.472547299130603449e+00
4.052937953132504934e-01 1.503187186939413778e+00
4.063343442099158764e-01 1.626857299311087246e+00
4.073748931065812595e-01 1.631410605172870731e+00
4.084154420032466426e-01 1.476129138572865429e+00
4.094559908999120257e-01 1.194973084443407885e+00
4.104965397965774088e-01 1.263005085924529425e+00
4.115370886932427918e-01 1.409619795252368135e+00
4.125776375899081749e-01 1.337301483853384099e+00
4.136181864865735580e-01 1.346612591957086380e+00
4.146587353832389411e-01 1.480113446857188819e+00
4.156992842799043242e-01 1.346443134387808271e+00
4.167398331765697073e-01 1.121403124263370188e+00
4.177803820732350903e-01 1.167635189420785480e+00
4.188209309699004734e-01 1.246326354036810358e+00
4.198614798665658565e-01 1.102263756719821686e+00
4.209020287632312396e-01 1.070806476354913883e+00
4.219425776598966227e-01 9.528453878562928026e-01
4.229831265565620058e-01 1.021484538915359508e+00
4.240236754532273888e-01 1.234422881269193084e+00
4.250642243498927719e-01 1.168443522247006428e+00
4.261047732465581550e-01 1.217687505751069210e+00
4.271453221432235381e-01 1.396734579963229805e+00
4.281858710398889212e-01 1.316416472316419117e+00
4.292264199365543043e-01 1.178146706961996415e+00
4.302669688332196873e-01 1.137156914707322386e+00
4.313075177298850704e-01 1.095509268963603233e+00
4.323480666265504535e-01 1.038673427155305973e+00
4.333886155232158366e-01 1.073764249782488633e+00
4.344291644198812197e-01 1.238660240077827268e+00
