# q (1/Angstrom), Intensity (arb)
2.029070354705860696e-02 9.254734622840423981e+02
2.133125244372399004e-02 8.235051371605845816e+02
2.237180134038937659e-02 7.376384985747143901e+02
2.341235023705475968e-02 6.658363977509600318e+02
2.445289913372014276e-02 6.145301469131414933e+02
2.549344803038552584e-02 5.780702320349377032e+02
2.653399692705091240e-02 5.420148810203536414e+02
2.757454582371629548e-02 5.097331354666762309e+02
2.861509472038167856e-02 4.827039739165250012e+02
2.965564361704706164e-02 4.611182827778278011e+02
3.069619251371244473e-02 4.462072821383456471e+02
3.173674141037782781e-02 4.347585258594191373e+02
3.277729030704321089e-02 4.263848590996817052e+02
3.381783920370859398e-02 4.170410379171792670e+02
3.485838810037397706e-02 4.123160116770071681e+02
3.589893699703936014e-02 4.170686096744237261e+02
3.693948589370474322e-02 4.198690692597977545e+02
3.798003479037012631e-02 4.224804838897353534e+02
3.902058368703550939e-02 4.323977840167173099e+02
4.006113258370089247e-02 4.446406163907011546e+02
4.110168148036627556e-02 4.592799701491493920e+02
4.214223037703165864e-02 4.824109012605494513e+02
4.318277927369704866e-02 5.111288655588055576e+02
4.422332817036243174e-02 5.488790286921472443e+02
4.526387706702781483e-02 6.102747715142196512e+02
4.630442596369319791e-02 7.094750457748033341e+02
4.734497486035858099e-02 9.103293148290446197e+02
4.838552375702396408e-02 1.318318062399085193e+03
4.942607265368934716e-02 2.008951760120731478e+03
5.046662155035473024e-02 3.118159835975754049e+03
5.150717044702011332e-02 4.701443775679126702e+03
5.254771934368549641e-02 5.311012165409634690e+03
5.358826824035087949e-02 4.336100162606627237e+03
5.462881713701626257e-02 3.492427499105926927e+03
5.566936603368164566e-02 3.322537938755098367e+03
5.670991493034702874e-02 3.413017407380962595e+03
5.775046382701241182e-02 3.564198759074273312e+03
5.879101272367779490e-02 3.697101977699136114e+03
5.983156162034317799e-02 3.711326815108941901e+03
6.087211051700856107e-02 3.547354509754228275e+03
6.191265941367394415e-02 3.269610729588280719e+03
6.295320831033933417e-02 2.968834278057242955e+03
6.399375720700471726e-02 2.664868618876821984e+03
6.503430610367010034e-02 2.357423560723461378e+03
6.607485500033548342e-02 2.055703321776855319e+03
6.711540389700086651e-02 1.771739999955241728e+03
6.815595279366624959e-02 1.499891411204887618e+03
6.919650169033163267e-02 1.255142492980741281e+03
7.023705058699701576e-02 1.042361728398585683e+03
7.127759948366239884e-02 8.616979396321020204e+02
7.231814838032778192e-02 7.135261364284843921e+02
7.335869727699316500e-02 5.896300793726511529e+02
7.439924617365854809e-02 4.885927175970687699e+02
7.543979507032393117e-02 4.072499333295861561e+02
7.648034396698931425e-02 3.448931598721259206e+02
7.752089286365469734e-02 2.913376423992083346e+02
7.856144176032008042e-02 2.509532723588368697e+02
7.960199065698546350e-02 2.205114074663281656e+02
8.064253955365084658e-02 2.003976722234494900e+02
8.168308845031622967e-02 1.938500994026571789e+02
8.272363734698161275e-02 2.101933841714524931e+02
8.376418624364699583e-02 2.704974975002477890e+02
8.480473514031239279e-02 3.493932440408963771e+02
8.584528403697777588e-02 3.492477319354462679e+02
8.688583293364315896e-02 2.676728613965748309e+02
8.792638183030854204e-02 2.020499735532822854e+02
8.896693072697392513e-02 1.740954649065311060e+02
9.000747962363930821e-02 1.658150500280431459e+02
9.104802852030469129e-02 1.652224476527243837e+02
9.208857741697007437e-02 1.681603474275109420e+02
9.312912631363545746e-02 1.723076298424569188e+02
9.416967521030084054e-02 1.784717025643254260e+02
9.521022410696622362e-02 1.897224754186693190e+02
9.625077300363160671e-02 2.070846656920683699e+02
9.729132190029698979e-02 2.436621925490920830e+02
9.833187079696237287e-02 3.137843760684077665e+02
9.937241969362775595e-02 3.925471924887721684e+02
1.004129685902931390e-01 4.017185918562493043e+02
1.014535174869585221e-01 3.321255919365304408e+02
1.024940663836239052e-01 2.698523323186379343e+02
1.035346152802892883e-01 2.454565507213946489e+02
1.045751641769546714e-01 2.321463744022131550e+02
1.056157130736200545e-01 2.126351549545502451e+02
1.066562619702854375e-01 1.957999855909534119e+02
1.076968108669508206e-01 1.894341540259567012e+02
1.087373597636162037e-01 1.895721962967409411e+02
1.097779086602815868e-01 1.915489077895437333e+02
1.108184575569469699e-01 1.913384594347570271e+02
1.118590064536123529e-01 1.902278241127908700e+02
1.128995553502777360e-01 1.891056519280852797e+02
1.139401042469431191e-01 1.853721749102030003e+02
1.149806531436085022e-01 1.805708464568742500e+02
1.160212020402738853e-01 1.744105865337489547e+02
1.170617509369392684e-01 1.664563916787735991e+02
1.181022998336046514e-01 1.575188595976854060e+02
1.191428487302700345e-01 1.476807091562430685e+02
1.201833976269354176e-01 1.376166661586262876e+02
1.212239465236008007e-01 1.273884788327041235e+02
1.222644954202661838e-01 1.168400082311881363e+02
1.233050443169315669e-01 1.069590407215860353e+02
1.243455932135969499e-01 9.922529446479913418e+01
1.253861421102623330e-01 9.117920701861933708e+01
1.264266910069277161e-01 8.360010777770160928e+01
1.274672399035930992e-01 7.814376543089861116e+01
1.285077888002584823e-01 7.422957758643008219e+01
1.295483376969238654e-01 7.510303727303666221e+01
1.305888865935892484e-01 7.852833468858690935e+01
1.316294354902546315e-01 8.127928900724185723e+01
1.326699843869200146e-01 8.258185638699782771e+01
1.337105332835853977e-01 8.340448169530088762e+01
1.347510821802507808e-01 8.128114931343873195e+01
1.357916310769161639e-01 7.030239709979754537e+01
1.368321799735815469e-01 5.503972022496716932e+01
1.378727288702469300e-01 4.407998415278132143e+01
1.389132777669123131e-01 3.886337844950824660e+01
1.399538266635776962e-01 3.628765222585937522e+01
1.409943755602430793e-01 3.438132315620283208e+01
1.420349244569084624e-01 3.352408641403469858e+01
1.430754733535738454e-01 3.361416644985165192e+01
1.441160222502392285e-01 3.465234566422499540e+01
1.451565711469046116e-01 3.713113710985324900e+01
1.461971200435699947e-01 4.087676310047353923e+01
1.472376689402353778e-01 4.400101800820379339e+01
1.482782178369007609e-01 4.433002598643156489e+01
1.493187667335661439e-01 4.020520090735249852e+01
1.503593156302315270e-01 3.653548679485956541e+01
1.513998645268969101e-01 3.450974433306089395e+01
1.524404134235622932e-01 3.381050143229471416e+01
1.534809623202276763e-01 3.357126034827873440e+01
1.545215112168930593e-01 3.379295172941726122e+01
1.555620601135584424e-01 3.441207541361623612e+01
1.566026090102238255e-01 3.429771108778719224e+01
1.576431579068892086e-01 3.214153505042612835e+01
1.586837068035545917e-01 2.946631767784236899e+01
1.597242557002199748e-01 2.782619092655676951e+01
1.607648045968853578e-01 2.664061904920127333e+01
1.618053534935507409e-01 2.577339721410366025e+01
1.628459023902161240e-01 2.506554379561863399e+01
1.638864512868815071e-01 2.472019390847555798e+01
1.649270001835468902e-01 2.422773504281280665e+01
1.659675490802122733e-01 2.379548597508688701e+01
1.670080979768776563e-01 2.359905964106068410e+01
1.680486468735430672e-01 2.320692220713954868e+01
1.690891957702084503e-01 2.255113919106202403e+01
1.701297446668738333e-01 2.228265529939633893e+01
1.711702935635392164e-01 2.172308215810118526e+01
1.722108424602045995e-01 2.141295134723609550e+01
1.732513913568699826e-01 2.107890097300471055e+01
1.742919402535353657e-01 2.094052033677822422e+01
1.753324891502007488e-01 2.111570942602244827e+01
1.763730380468661318e-01 2.218186820565197337e+01
1.774135869435315149e-01 2.360626489189349186e+01
1.784541358401968980e-01 2.492935371238709052e+01
1.794946847368622811e-01 2.503228272582504843e+01
1.805352336335276642e-01 2.366585507748897399e+01
1.815757825301930473e-01 2.166467291041947618e+01
1.826163314268584303e-01 1.937506002082261247e+01
1.836568803235238134e-01 1.765549843490710558e+01
1.846974292201891965e-01 1.635423678318251106e+01
1.857379781168545796e-01 1.567252449165539829e+01
1.867785270135199627e-01 1.545535968148977801e+01
1.878190759101853458e-01 1.503438182775861520e+01
1.888596248068507288e-01 1.499884941532468829e+01
1.899001737035161119e-01 1.496041452509392755e+01
1.909407226001814950e-01 1.475408171426867554e+01
1.919812714968468781e-01 1.398143888877960705e+01
1.930218203935122612e-01 1.343746039508526735e+01
1.940623692901776443e-01 1.253432971973414567e+01
1.951029181868430273e-01 1.212948839514760024e+01
1.961434670835084104e-01 1.290946844465536003e+01
1.971840159801737935e-01 1.318380266476530238e+01
1.982245648768391766e-01 1.289276920531247939e+01
1.992651137735045597e-01 1.215512455681979631e+01
2.003056626701699428e-01 1.175749538691438190e+01
2.013462115668353813e-01 1.082460797056789659e+01
2.023867604635007644e-01 9.723766712786662936e+00
2.034273093601661475e-01 8.957188128531736737e+00
2.044678582568315306e-01 8.589035378891068717e+00
2.055084071534969137e-01 8.293978767684606623e+00
2.065489560501622968e-01 8.048804227171192593e+00
2.075895049468276798e-01 8.053685466689202599e+00
2.086300538434930629e-01 7.653341846954013761e+00
2.096706027401584460e-01 7.601213335391602044e+00
2.107111516368238291e-01 7.552428474072012676e+00
2.117517005334892122e-01 7.393383523808363833e+00
2.127922494301545953e-01 7.192415963984160499e+00
2.138327983268199783e-01 7.244672235707955821e+00
2.148733472234853614e-01 6.863820117614626071e+00
2.159138961201507445e-01 6.735576075598050494e+00
2.169544450168161276e-01 6.905209420399327058e+00
2.179949939134815107e-01 6.965721031987275325e+00
2.190355428101468938e-01 7.021917765919766907e+00
2.200760917068122768e-01 6.739268806991216110e+00
2.211166406034776599e-01 6.593887000523693587e+00
2.221571895001430430e-01 6.706001189672200269e+00
2.231977383968084261e-01 6.954236647891033130e+00
2.242382872934738092e-01 7.488996204468513440e+00
2.252788361901391923e-01 7.708150292842901763e+00
2.263193850868045753e-01 7.414023972161963627e+00
2.273599339834699584e-01 7.629219232642505233e+00
2.284004828801353415e-01 7.888284722581570207e+00
2.294410317768007246e-01 7.841202514895815767e+00
2.304815806734661077e-01 8.172077253709566946e+00
2.315221295701314908e-01 8.057593513197286228e+00
2.325626784667968738e-01 7.678514877442417230e+00
2.336032273634622569e-01 6.996693416065511428e+00
2.346437762601276400e-01 6.272825790025873260e+00
2.356843251567930231e-01 5.995095098319758620e+00
2.367248740534584062e-01 6.037646697451982902e+00
2.377654229501237892e-01 5.801931971422728651e+00
2.388059718467891723e-01 5.526257102841082514e+00
2.398465207434545554e-01 5.487774518085327458e+00
2.408870696401199385e-01 5.366131913084757343e+00
2.419276185367853216e-01 5.185808766887223697e+00
2.429681674334507047e-01 5.013117720235687358e+00
2.440087163301160877e-01 5.121276623928114446e+00
2.450492652267814708e-01 5.311921708048693347e+00
2.460898141234468539e-01 5.306541185481741252e+00
2.471303630201122370e-01 5.493731367556474510e+00
2.481709119167776201e-01 5.438909290324993151e+00
2.492114608134430032e-01 5.165688265221110242e+00
2.502520097101083585e-01 4.793640582344099954e+00
2.512925586067737416e-01 4.400332324513044568e+00
2.523331075034391247e-01 4.557358934158902031e+00
2.533736564001045077e-01 4.316990198490071151e+00
2.544142052967698908e-01 4.032123377619097226e+00
2.554547541934352739e-01 3.870570619125849987e+00
2.564953030901006570e-01 3.770898800966598685e+00
2.575358519867660401e-01 3.880151249210133102e+00
2.585764008834314231e-01 3.698795145373093618e+00
2.596169497800968062e-01 3.708737280449881268e+00
2.606574986767621893e-01 3.554879018977800342e+00
2.616980475734275724e-01 3.309146768104689329e+00
2.627385964700929555e-01 3.288770085947685828e+00
2.637791453667583386e-01 3.465854863385509077e+00
2.648196942634237216e-01 3.548350191434078482e+00
2.658602431600891047e-01 3.516989980781293212e+00
2.669007920567544878e-01 3.616842267837679259e+00
2.679413409534198709e-01 3.190426021238952359e+00
2.689818898500852540e-01 3.140253160662744847e+00
2.700224387467506371e-01 3.423640841587545225e+00
2.710629876434160201e-01 3.448366679764507836e+00
2.721035365400814032e-01 3.484869859502737199e+00
2.731440854367467863e-01 3.445606803880497893e+00
2.741846343334121694e-01 3.447383427642254361e+00
2.752251832300775525e-01 3.626651163244638099e+00
2.762657321267429356e-01 3.757839421693901727e+00
2.773062810234083186e-01 3.760312471873401563e+00
2.783468299200737017e-01 3.513088141292556088e+00
2.793873788167390848e-01 3.403221455736172629e+00
2.804279277134044679e-01 3.121962682534345390e+00
2.814684766100698510e-01 3.238892915055455290e+00
2.825090255067352341e-01 3.578736062026290909e+00
2.835495744034006171e-01 3.499949994941758291e+00
2.845901233000660002e-01 3.284703727425053899e+00
2.856306721967313833e-01 3.345183988497360872e+00
2.866712210933967664e-01 3.376688145883097292e+00
2.877117699900621495e-01 3.347023978746374695e+00
2.887523188867275326e-01 3.134231277427534934e+00
2.897928677833929156e-01 2.796254485884468011e+00
2.908334166800582987e-01 2.941304559187134515e+00
2.918739655767236818e-01 3.168180042207893621e+00
2.929145144733890649e-01 3.139381152073838166e+00
2.939550633700544480e-01 3.047485685381932541e+00
2.949956122667198311e-01 3.122616947665161291e+00
2.960361611633852141e-01 3.020677203549329448e+00
2.970767100600505972e-01 2.927923581105012829e+00
2.981172589567159803e-01 3.222216268484089596e+00
2.991578078533813634e-01 3.026924081332929006e+00
3.001983567500468020e-01 2.819989013572875791e+00
3.012389056467121851e-01 2.814540784928468042e+00
3.022794545433775681e-01 2.870192377167381181e+00
3.033200034400429512e-01 2.770918542107072113e+00
3.043605523367083343e-01 2.564553894781528953e+00
3.054011012333737174e-01 2.432899408978787648e+00
3.064416501300391005e-01 2.511058333494911921e+00
3.074821990267044836e-01 2.450694474120385991e+00
3.085227479233698666e-01 2.435272716268588766e+00
3.095632968200352497e-01 2.423421857755300834e+00
3.106038457167006328e-01 2.561056534059673595e+00
3.116443946133660159e-01 2.516166187294210488e+00
3.126849435100313990e-01 2.409634783205586217e+00
3.137254924066967821e-01 2.539987008232746035e+00
3.147660413033621651e-01 2.290322035158474989e+00
3.158065902000275482e-01 2.189125403170550044e+00
3.168471390966929313e-01 2.163886225940004238e+00
3.178876879933583144e-01 2.179613470974757661e+00
3.189282368900236975e-01 2.059494734158583640e+00
3.199687857866890806e-01 2.170824503227628099e+00
3.210093346833544636e-01 2.276972094800836288e+00
3.220498835800198467e-01 2.219498244170239332e+00
3.230904324766852298e-01 2.472590636476095227e+00
3.241309813733506129e-01 2.538351578709818313e+00
3.251715302700159960e-01 2.245077181608177597e+00
3.262120791666813790e-01 2.253056882058491084e+00
3.272526280633467621e-01 2.458233316717546302e+00
3.282931769600121452e-01 2.550948865504995666e+00
3.293337258566775283e-01 2.425175522981263043e+00
3.303742747533429114e-01 2.221208317829908907e+00
3.314148236500082945e-01 2.284253211707532927e+00
3.324553725466736775e-01 2.258951829191385485e+00
3.334959214433390606e-01 2.180306792362614488e+00
3.345364703400044437e-01 2.161339976103395344e+00
3.355770192366698268e-01 2.123731836408477847e+00
3.366175681333352099e-01 1.851596212823164223e+00
3.376581170300005930e-01 1.808029044755784298e+00
3.386986659266659760e-01 2.025750969599567242e+00
3.397392148233313591e-01 2.067603944770283420e+00
3.407797637199967422e-01 2.162613101390608250e+00
3.418203126166621253e-01 2.251486360637731110e+00
3.428608615133275084e-01 2.207631607622367653e+00
3.439014104099928915e-01 1.922989365326021272e+00
3.449419593066582745e-01 2.016997748971157023e+00
3.459825082033236576e-01 2.089945640079648115e+00
3.470230570999890407e-01 2.130070562461650496e+00
3.480636059966544238e-01 2.051528074048412975e+00
3.491041548933198069e-01 2.033155175093217082e+00
3.501447037899851900e-01 2.031761253389600341e+00
3.511852526866505730e-01 2.081607397059176634e+00
3.522258015833159561e-01 1.966331616381815195e+00
3.532663504799813392e-01 1.801753788015879820e+00
3.543068993766467223e-01 1.727580671732656725e+00
3.553474482733121054e-01 1.721435466832662797e+00
3.563879971699774885e-01 1.893938308588285935e+00
3.574285460666428715e-01 1.896204839118748708e+00
3.584690949633082546e-01 1.782806164267480398e+00
3.595096438599736377e-01 1.652367606980444492e+00
3.605501927566390208e-01 1.720739737364052502e+00
3.615907416533044039e-01 1.722869801904639786e+00
3.626312905499697870e-01 1.752451550796934043e+00
3.636718394466351700e-01 1.606899355591124845e+00
3.647123883433005531e-01 1.537126994098361621e+00
3.657529372399659362e-01 1.420453043055537989e+00
3.667934861366313193e-01 1.460080835087559592e+00
3.678340350332967024e-01 1.476793447538469195e+00
3.688745839299620854e-01 1.685518731971338724e+00
3.699151328266274685e-01 1.770146032148982584e+00
3.709556817232928516e-01 1.782830904105829006e+00
3.719962306199582347e-01 1.875074221602410773e+00
3.730367795166236178e-01 1.854020808228924011e+00
3.740773284132890009e-01 1.738917782603163431e+00
3.751178773099543839e-01 1.617563673430748139e+00
3.761584262066197670e-01 1.732988851026927790e+00
3.771989751032851501e-01 1.533695903834530583e+00
3.782395239999505332e-01 1.596328904345682531e+00
3.792800728966159163e-01 1.622108995347126381e+00
3.803206217932812994e-01 1.531510710653659402e+00
3.813611706899466824e-01 1.565633316034912070e+00
3.824017195866120655e-01 1.653300822059261321e+00
3.834422684832774486e-01 1.595356994694444808e+00
3.844828173799428317e-01 1.621180793639783957e+00
3.855233662766082148e-01 1.691693655421481424e+00
3.865639151732735979e-01 1.526591786850730159e+00
3.876044640699389809e-01 1.517075860446446711e+00
3.886450129666043640e-01 1.588128936593630414e+00
3.896855618632697471e-01 1.560103566434751343e+00
3.907261107599351302e-01 1.671480089801416824e+00
3.917666596566005133e-01 1.646245788287714618e+00
3.928072085532658964e-01 1.761974630759297611e+00
3.938477574499312794e-01 1.665379818957649860e+00
3.948883063465966625e-01 1.443007420572669730e+00
3.959288552432620456e-01 1.484617375899183855e+00
3.969694041399274287e-01 1.402662124613687666e+00
3.980099530365928118e-01 1.397236794147392658e+00
3.990505019332581949e-01 1.381938964472748665e+00
4.000910508299235779e-01 1.299920206628982555e+00
4.011315997265889610e-01 1.391997520354205875e+00
4.021721486232543441e-01 1.314667270787907682e+00
4.032126975199197272e-01 1.164313741861594309e+00
4.042532464165851103e-01 1.255259611513068307e+00
4.052937953132504934e-01 1.268925225868969164e+00
4.063343442099158764e-01 1.314159625536785114e+00
4.073748931065812595e-01 1.187908520248864619e+00
4.084154420032466426e-01 1.245186362190306539e+00
4.094559908999120257e-01 1.282339925280826520e+00
4.104965397965774088e-01 1.296775557782634536e+00
4.115370886932427918e-01 1.143105718799009907e+00
4.125776375899081749e-01 1.160455085605086367e+00
4.136181864865735580e-01 1.180521468432765175e+00
4.146587353832389411e-01 1.163660605618680677e+00
4.156992842799043242e-01 1.375503041314509289e+00
4.167398331765697073e-01 1.135456677625018784e+00
4.177803820732350903e-01 1.306969786070478534e+00
4.188209309699004734e-01 1.283036650172725501e+00
4.198614798665658565e-01 1.344037480237528115e+00
4.209020287632312396e-01 1.336570662907199392e+00
4.219425776598966227e-01 1.346667182219675851e+00
4.229831265565620058e-01 1.047834147922301895e+00
4.240236754532273888e-01 9.024551772069990818e-01
4.250642243498927719e-01 1.046094790756203707e+00
4.261047732465581550e-01 9.907807798233712049e-01
4.271453221432235381e-01 1.148178989878314127e+00
4.281858710398889212e-01 9.717019954070984511e-01
4.292264199365543043e-01 9.282857162943933815e-01
4.302669688332196873e-01 1.243937086677274095e+00
4.313075177298850704e-01 1.014438131750768690e+00
4.323480666265504535e-01 1.038660023233159535e+00
4.333886155232158366e-01 1.054881065502982551e+00
4.344291644198812197e-01 1.111804554245260590e+00
