# q (1/Angstrom), Intensity (arb)
2.029070354705860696e-02 9.245250156019034193e+02
2.133125244372399004e-02 8.212047334391728555e+02
2.237180134038937659e-02 7.409622204225518090e+02
2.341235023705475968e-02 6.751007830837397705e+02
2.445289913372014276e-02 6.171770693719163319e+02
2.549344803038552584e-02 5.738874188573348647e+02
2.653399692705091240e-02 5.412505393156073978e+02
2.757454582371629548e-02 5.135445612714669323e+02
2.861509472038167856e-02 4.893598368987962886e+02
2.965564361704706164e-02 4.696152600032611417e+02
3.069619251371244473e-02 4.496277584320145593e+02
3.173674141037782781e-02 4.347341590040121559e+02
3.277729030704321089e-02 4.285066229736053174e+02
3.381783920370859398e-02 4.230933178585015639e+02
3.485838810037397706e-02 4.170141274836913681e+02
3.589893699703936014e-02 4.167610987046176092e+02
3.693948589370474322e-02 4.216913192344258050e+02
3.798003479037012631e-02 4.240855837688075098e+02
3.902058368703550939e-02 4.315005074714966327e+02
4.006113258370089247e-02 4.439634612828773470e+02
4.110168148036627556e-02 4.601067996183467130e+02
4.214223037703165864e-02 4.834008396780022849e+02
4.318277927369704866e-02 5.109086892076082904e+02
4.422332817036243174e-02 5.512812840931364917e+02
4.526387706702781483e-02 6.132054926664736740e+02
4.630442596369319791e-02 7.086207542309446126e+02
4.734497486035858099e-02 9.059709432270369689e+02
4.838552375702396408e-02 1.308774138211439777e+03
4.942607265368934716e-02 1.986171839074174841e+03
5.046662155035473024e-02 3.079448766222609265e+03
5.150717044702011332e-02 4.674235314239531363e+03
5.254771934368549641e-02 5.333226599351439290e+03
5.358826824035087949e-02 4.379037200032228611e+03
5.462881713701626257e-02 3.505615891466964968e+03
5.566936603368164566e-02 3.318029461083816386e+03
5.670991493034702874e-02 3.411328516367570955e+03
5.775046382701241182e-02 3.568371327447490785e+03
5.879101272367779490e-02 3.701001877172638160e+03
5.983156162034317799e-02 3.718618923465657190e+03
6.087211051700856107e-02 3.554120307187741219e+03
6.191265941367394415e-02 3.275546337024876721e+03
6.295320831033933417e-02 2.977584072115653271e+03
6.399375720700471726e-02 2.673810863033333135e+03
6.503430610367010034e-02 2.369361443186616725e+03
6.607485500033548342e-02 2.068141592730394223e+03
6.711540389700086651e-02 1.782438801679082417e+03
6.815595279366624959e-02 1.511724392968158782e+03
6.919650169033163267e-02 1.266728163121939360e+03
7.023705058699701576e-02 1.052974167323143774e+03
7.127759948366239884e-02 8.701251496536621062e+02
7.231814838032778192e-02 7.188263685155226312e+02
7.335869727699316500e-02 5.936471571040992785e+02
7.439924617365854809e-02 4.939423055466120900e+02
7.543979507032393117e-02 4.129192918173280304e+02
7.648034396698931425e-02 3.467738481667284987e+02
7.752089286365469734e-02 2.942984615142395910e+02
7.856144176032008042e-02 2.541735729160941446e+02
7.960199065698546350e-02 2.240276155762700512e+02
8.064253955365084658e-02 2.022256204248468237e+02
8.168308845031622967e-02 1.944275276438751803e+02
8.272363734698161275e-02 2.100885493994385342e+02
8.376418624364699583e-02 2.694800280456123573e+02
8.480473514031239279e-02 3.500096553625236311e+02
8.584528403697777588e-02 3.554301479034205613e+02
8.688583293364315896e-02 2.744126131746597252e+02
8.792638183030854204e-02 2.051652775842695178e+02
8.896693072697392513e-02 1.768251153310776260e+02
9.000747962363930821e-02 1.669250657391591517e+02
9.104802852030469129e-02 1.645568918191709145e+02
9.208857741697007437e-02 1.673406732454259611e+02
9.312912631363545746e-02 1.739077290655101535e+02
9.416967521030084054e-02 1.810580627252496129e+02
9.521022410696622362e-02 1.913171360283179183e+02
9.625077300363160671e-02 2.072746530771444213e+02
9.729132190029698979e-02 2.421777919428324992e+02
9.833187079696237287e-02 3.107432426526423797e+02
9.937241969362775595e-02 3.903887622948014950e+02
1.004129685902931390e-01 4.041255100135989551e+02
1.014535174869585221e-01 3.358025962192750740e+02
1.024940663836239052e-01 2.725098241665842806e+02
1.035346152802892883e-01 2.477794973775326355e+02
1.045751641769546714e-01 2.356952108348387753e+02
1.056157130736200545e-01 2.162050848645119459e+02
1.066562619702854375e-01 1.977863867655128161e+02
1.076968108669508206e-01 1.910156199593010626e+02
1.087373597636162037e-01 1.900187959461575531e+02
1.097779086602815868e-01 1.905560003541388880e+02
1.108184575569469699e-01 1.909836905567471490e+02
1.118590064536123529e-01 1.905607853228856357e+02
1.128995553502777360e-01 1.896208086769086094e+02
1.139401042469431191e-01 1.870990152531215927e+02
1.149806531436085022e-01 1.810447510072596913e+02
1.160212020402738853e-01 1.743996630600402113e+02
1.170617509369392684e-01 1.661602905071414398e+02
1.181022998336046514e-01 1.568195273078590048e+02
1.191428487302700345e-01 1.476519817990535728e+02
1.201833976269354176e-01 1.377486029446512248e+02
1.212239465236008007e-01 1.279387543895147701e+02
1.222644954202661838e-01 1.184899299253072940e+02
1.233050443169315669e-01 1.099089316863386898e+02
1.243455932135969499e-01 1.006160008766759546e+02
1.253861421102623330e-01 9.225337927876509525e+01
1.264266910069277161e-01 8.477636602989980474e+01
1.274672399035930992e-01 7.898384291974532800e+01
1.285077888002584823e-01 7.469501890867053362e+01
1.295483376969238654e-01 7.496025148292997642e+01
1.305888865935892484e-01 7.887656361220967938e+01
1.316294354902546315e-01 8.192226847747355123e+01
1.326699843869200146e-01 8.324929876659737715e+01
1.337105332835853977e-01 8.436606337111962262e+01
1.347510821802507808e-01 8.302053620598272232e+01
1.357916310769161639e-01 7.114051178472998060e+01
1.368321799735815469e-01 5.540048476357473106e+01
1.378727288702469300e-01 4.526180685530584213e+01
1.389132777669123131e-01 3.983090650609203465e+01
1.399538266635776962e-01 3.625710420714676729e+01
1.409943755602430793e-01 3.462468187221971050e+01
1.420349244569084624e-01 3.370634471423662148e+01
1.430754733535738454e-01 3.352700734458377951e+01
1.441160222502392285e-01 3.508798725907886507e+01
1.451565711469046116e-01 3.756775916065200960e+01
1.461971200435699947e-01 4.106884569915817451e+01
1.472376689402353778e-01 4.458714647935755693e+01
1.482782178369007609e-01 4.439539098559545494e+01
1.493187667335661439e-01 4.111188896862861952e+01
1.503593156302315270e-01 3.690724641680834850e+01
1.513998645268969101e-01 3.437130052978082517e+01
1.524404134235622932e-01 3.313552547357532774e+01
1.534809623202276763e-01 3.318481266551033571e+01
1.545215112168930593e-01 3.374133592620398758e+01
1.555620601135584424e-01 3.464663350105902850e+01
1.566026090102238255e-01 3.456994715451260447e+01
1.576431579068892086e-01 3.272636435533992483e+01
1.586837068035545917e-01 3.023046626483808197e+01
1.597242557002199748e-01 2.824928481222849896e+01
1.607648045968853578e-01 2.661346366063372670e+01
1.618053534935507409e-01 2.600327698041987290e+01
1.628459023902161240e-01 2.535293806726218335e+01
1.638864512868815071e-01 2.454727570740358900e+01
1.649270001835468902e-01 2.400806297229916453e+01
1.659675490802122733e-01 2.395752751525459701e+01
1.670080979768776563e-01 2.413526273815800849e+01
1.680486468735430672e-01 2.359183710699621273e+01
1.690891957702084503e-01 2.308407281997993010e+01
1.701297446668738333e-01 2.257416704900456850e+01
1.711702935635392164e-01 2.196349033669438811e+01
1.722108424602045995e-01 2.133622029183468882e+01
1.732513913568699826e-01 2.126985930205772846e+01
1.742919402535353657e-01 2.132906582525811601e+01
1.753324891502007488e-01 2.127508534213682267e+01
1.763730380468661318e-01 2.210520867595569783e+01
1.774135869435315149e-01 2.397719182763789902e+01
1.784541358401968980e-01 2.532895342543120876e+01
1.794946847368622811e-01 2.543080234814326346e+01
1.805352336335276642e-01 2.386581715274292037e+01
1.815757825301930473e-01 2.229383097505686351e+01
1.826163314268584303e-01 2.027317592667010970e+01
1.836568803235238134e-01 1.759833051075223054e+01
1.846974292201891965e-01 1.620095090176605979e+01
1.857379781168545796e-01 1.591947770180466648e+01
1.867785270135199627e-01 1.530691100704780183e+01
1.878190759101853458e-01 1.493691000084452369e+01
1.888596248068507288e-01 1.508524019469943411e+01
1.899001737035161119e-01 1.505966414612442605e+01
1.909407226001814950e-01 1.512996931242529186e+01
1.919812714968468781e-01 1.405944620866727135e+01
1.930218203935122612e-01 1.315542995475713184e+01
1.940623692901776443e-01 1.243303180148717502e+01
1.951029181868430273e-01 1.221215603873245215e+01
1.961434670835084104e-01 1.251912169234013206e+01
1.971840159801737935e-01 1.253396965231609883e+01
1.982245648768391766e-01 1.256337274206547150e+01
1.992651137735045597e-01 1.237128437523096380e+01
2.003056626701699428e-01 1.164132716510428267e+01
2.013462115668353813e-01 1.049027454322646946e+01
2.023867604635007644e-01 9.619804425665829939e+00
2.034273093601661475e-01 8.948553008522228680e+00
2.044678582568315306e-01 8.533560116822872743e+00
2.055084071534969137e-01 8.396120647729258479e+00
2.065489560501622968e-01 8.136251075991456361e+00
2.075895049468276798e-01 7.645578888230510017e+00
2.086300538434930629e-01 7.620882633086676350e+00
2.096706027401584460e-01 7.400555756679334962e+00
2.107111516368238291e-01 7.402378157533799907e+00
2.117517005334892122e-01 7.445815239398630325e+00
2.127922494301545953e-01 7.322173408822727936e+00
2.138327983268199783e-01 7.259117419477430388e+00
2.148733472234853614e-01 7.081697050003402438e+00
2.159138961201507445e-01 7.255402006274483284e+00
2.169544450168161276e-01 6.968102548517855155e+00
2.179949939134815107e-01 6.882065807642007371e+00
2.190355428101468938e-01 7.091684226559262783e+00
2.200760917068122768e-01 6.921383998146556138e+00
2.211166406034776599e-01 6.686980797254719278e+00
2.221571895001430430e-01 6.822829521665628505e+00
2.231977383968084261e-01 7.252077888695161789e+00
2.242382872934738092e-01 7.393478313217858755e+00
2.252788361901391923e-01 7.525303890973262355e+00
2.263193850868045753e-01 7.427281648229570266e+00
2.273599339834699584e-01 7.221585675253262337e+00
2.284004828801353415e-01 7.156946227953323358e+00
2.294410317768007246e-01 7.454692935243965479e+00
2.304815806734661077e-01 7.637105099290725008e+00
2.315221295701314908e-01 7.490715083281251907e+00
2.325626784667968738e-01 7.413311002896627144e+00
2.336032273634622569e-01 6.882426494657408966e+00
2.346437762601276400e-01 6.336987056952608555e+00
2.356843251567930231e-01 6.062080447721729826e+00
2.367248740534584062e-01 5.711265009615907218e+00
2.377654229501237892e-01 5.513738947607077279e+00
2.388059718467891723e-01 5.331232866883741650e+00
2.398465207434545554e-01 5.245607761229802435e+00
2.408870696401199385e-01 5.054205999188681631e+00
2.419276185367853216e-01 4.981601885479182812e+00
2.429681674334507047e-01 4.960940846616200162e+00
2.440087163301160877e-01 5.003444313990456749e+00
2.450492652267814708e-01 4.942957294190946982e+00
2.460898141234468539e-01 5.278094502665378940e+00
2.471303630201122370e-01 5.347107028077775936e+00
2.481709119167776201e-01 5.371956448038460508e+00
2.492114608134430032e-01 5.145912062951275345e+00
2.502520097101083585e-01 4.943154211367442485e+00
2.512925586067737416e-01 4.789977338522021455e+00
2.523331075034391247e-01 4.556106025791265779e+00
2.533736564001045077e-01 4.327656119743910068e+00
2.544142052967698908e-01 4.135787631235725570e+00
2.554547541934352739e-01 3.938445812771696808e+00
2.564953030901006570e-01 3.921535787896971215e+00
2.575358519867660401e-01 4.022185344289439968e+00
2.585764008834314231e-01 4.115177709109765658e+00
2.596169497800968062e-01 3.944743231810619477e+00
2.606574986767621893e-01 3.785664745792981734e+00
2.616980475734275724e-01 3.670656408928504533e+00
2.627385964700929555e-01 3.616678690367425730e+00
2.637791453667583386e-01 3.206799880727185581e+00
2.648196942634237216e-01 3.178142357953287700e+00
2.658602431600891047e-01 3.113138733610675501e+00
2.669007920567544878e-01 3.235133410887964800e+00
2.679413409534198709e-01 3.201839543252265941e+00
2.689818898500852540e-01 3.346811677067879742e+00
2.700224387467506371e-01 3.406083570480387124e+00
2.710629876434160201e-01 3.576713770314707830e+00
2.721035365400814032e-01 3.583331405517384383e+00
2.731440854367467863e-01 3.572324274834560498e+00
2.741846343334121694e-01 3.671737021593326489e+00
2.752251832300775525e-01 3.634675613864661869e+00
2.762657321267429356e-01 3.679368314492993619e+00
2.773062810234083186e-01 3.715550179773288164e+00
2.783468299200737017e-01 3.600213660468565280e+00
2.793873788167390848e-01 3.445773153904902131e+00
2.804279277134044679e-01 3.414331543762649801e+00
2.814684766100698510e-01 3.571612283985643899e+00
2.825090255067352341e-01 3.426078656207401707e+00
2.835495744034006171e-01 3.329794000905657470e+00
2.845901233000660002e-01 3.378907765824862963e+00
2.856306721967313833e-01 3.542166310648969585e+00
2.866712210933967664e-01 3.449837875429210499e+00
2.877117699900621495e-01 3.201822672008681536e+00
2.887523188867275326e-01 2.962629655960125064e+00
2.897928677833929156e-01 2.820293666372986507e+00
2.908334166800582987e-01 2.899159926970568790e+00
2.918739655767236818e-01 3.099642808038733932e+00
2.929145144733890649e-01 2.789771400925570077e+00
2.939550633700544480e-01 2.978598382270714495e+00
2.949956122667198311e-01 2.941948547382853718e+00
2.960361611633852141e-01 2.988651058750434686e+00
2.970767100600505972e-01 3.076638630077653147e+00
2.981172589567159803e-01 3.195104540285772288e+00
2.991578078533813634e-01 3.004033414352438314e+00
3.001983567500468020e-01 2.907909778762611808e+00
3.012389056467121851e-01 2.756135034372373838e+00
3.022794545433775681e-01 2.814571876364947656e+00
3.033200034400429512e-01 2.727046951065894120e+00
3.043605523367083343e-01 2.298420206249019770e+00
3.054011012333737174e-01 2.403444975748747936e+00
3.064416501300391005e-01 2.376787398008506358e+00
3.074821990267044836e-01 2.361140596025830263e+00
3.085227479233698666e-01 2.486243254619807885e+00
3.095632968200352497e-01 2.537862621898437254e+00
3.106038457167006328e-01 2.254484954013982190e+00
3.116443946133660159e-01 2.208020732461587698e+00
3.126849435100313990e-01 2.344805556112429912e+00
3.137254924066967821e-01 2.342872334798780543e+00
3.147660413033621651e-01 2.373681784015854390e+00
3.158065902000275482e-01 2.175459620896511126e+00
3.168471390966929313e-01 2.230883341580707224e+00
3.178876879933583144e-01 2.013047082015443578e+00
3.189282368900236975e-01 2.086672093475552714e+00
3.199687857866890806e-01 2.019864694399068128e+00
3.210093346833544636e-01 2.076196009810537646e+00
3.220498835800198467e-01 2.453961655547800547e+00
3.230904324766852298e-01 2.535309632571021154e+00
3.241309813733506129e-01 2.252082365709615175e+00
3.251715302700159960e-01 2.240357778895749163e+00
3.262120791666813790e-01 2.315124426613810016e+00
3.272526280633467621e-01 2.226900893791725622e+00
3.282931769600121452e-01 1.916412314217645019e+00
3.293337258566775283e-01 2.331909484761983009e+00
3.303742747533429114e-01 2.379212628672416230e+00
3.314148236500082945e-01 2.425439161437719093e+00
3.324553725466736775e-01 2.461435801380829957e+00
3.334959214433390606e-01 2.140069343540847768e+00
3.345364703400044437e-01 2.077405799055934921e+00
3.355770192366698268e-01 1.911467759597826443e+00
3.366175681333352099e-01 2.032082365531302059e+00
3.376581170300005930e-01 2.076910463702549947e+00
3.386986659266659760e-01 2.198261183588172685e+00
3.397392148233313591e-01 2.101057828645021885e+00
3.407797637199967422e-01 1.968536021888564136e+00
3.418203126166621253e-01 2.048412085063365140e+00
3.428608615133275084e-01 2.029761878430047517e+00
3.439014104099928915e-01 2.008717689700759479e+00
3.449419593066582745e-01 1.987567302326453955e+00
3.459825082033236576e-01 1.971823504102108160e+00
3.470230570999890407e-01 2.025863150656430633e+00
3.480636059966544238e-01 1.917213191247242321e+00
3.491041548933198069e-01 1.939800996749546869e+00
3.501447037899851900e-01 1.617300187852741544e+00
3.511852526866505730e-01 1.779188169105136552e+00
3.522258015833159561e-01 1.951127215839925100e+00
3.532663504799813392e-01 1.976310768876039958e+00
3.543068993766467223e-01 1.531070211042436569e+00
3.553474482733121054e-01 1.589426924251508666e+00
3.563879971699774885e-01 1.622290495026255996e+00
3.574285460666428715e-01 1.620676795198033204e+00
3.584690949633082546e-01 1.805077546488220719e+00
3.595096438599736377e-01 1.723119998078750825e+00
3.605501927566390208e-01 1.749542007737662885e+00
3.615907416533044039e-01 1.832039341080641037e+00
3.626312905499697870e-01 1.802216424910259462e+00
3.636718394466351700e-01 1.476991624505011202e+00
3.647123883433005531e-01 1.622643395057508542e+00
3.657529372399659362e-01 1.590390260840880643e+00
3.667934861366313193e-01 1.623229121294130550e+00
3.678340350332967024e-01 1.631475500192795636e+00
3.688745839299620854e-01 1.564221780408171725e+00
3.699151328266274685e-01 1.659650360955446047e+00
3.709556817232928516e-01 1.600948545134325940e+00
3.719962306199582347e-01 1.314986510374314577e+00
3.730367795166236178e-01 1.305958595489329355e+00
3.740773284132890009e-01 1.546539502438555758e+00
3.751178773099543839e-01 1.757621417014885168e+00
3.761584262066197670e-01 1.672372930323589912e+00
3.771989751032851501e-01 1.522490426462393742e+00
3.782395239999505332e-01 1.610701423866704118e+00
3.792800728966159163e-01 1.613806155855115776e+00
3.803206217932812994e-01 1.614488332416911476e+00
3.813611706899466824e-01 1.609522129879184860e+00
3.824017195866120655e-01 1.731154799275635980e+00
3.834422684832774486e-01 1.624068105125026307e+00
3.844828173799428317e-01 1.365992939259591310e+00
3.855233662766082148e-01 1.218341299979574188e+00
3.865639151732735979e-01 1.557670610420863966e+00
3.876044640699389809e-01 1.505906440309939143e+00
3.886450129666043640e-01 1.536874441392857449e+00
3.896855618632697471e-01 1.576421333785081202e+00
3.907261107599351302e-01 1.547522799024861229e+00
3.917666596566005133e-01 1.777136771025720208e+00
3.928072085532658964e-01 1.587490305575762761e+00
3.938477574499312794e-01 1.241889564814250946e+00
3.948883063465966625e-01 1.372244578263469350e+00
3.959288552432620456e-01 1.301600353521937592e+00
3.969694041399274287e-01 1.240539474004137332e+00
3.980099530365928118e-01 1.406372518803941318e+00
3.990505019332581949e-01 1.400337209204451483e+00
4.000910508299235779e-01 1.240267872712013997e+00
4.011315997265889610e-01 1.344829419765545708e+00
4.021721486232543441e-01 1.235150555831118879e+00
4.032126975199197272e-01 1.113236691978300996e+00
4.042532464165851103e-01 1.158002027228924646e+00
4.052937953132504934e-01 1.181207149296362502e+00
4.063343442099158764e-01 1.097796282807607327e+00
4.073748931065812595e-01 1.189310418628583221e+00
4.084154420032466426e-01 1.175053330845063471e+00
4.094559908999120257e-01 1.214010083599994516e+00
4.104965397965774088e-01 1.245736294353626761e+00
4.115370886932427918e-01 1.276323810122491409e+00
4.125776375899081749e-01 1.240777993024945403e+00
4.136181864865735580e-01 1.190124795491726672e+00
4.146587353832389411e-01 1.057263263325683766e+00
4.156992842799043242e-01 1.104945530937794018e+00
4.167398331765697073e-01 1.175392869002010343e+00
4.177803820732350903e-01 9.353824028539641233e-01
4.188209309699004734e-01 9.245965157776971921e-01
4.198614798665658565e-01 1.034987502268339910e+00
4.209020287632312396e-01 1.222666220437371720e+00
4.219425776598966227e-01 1.279080137091757052e+00
4.229831265565620058e-01 1.099115193754922615e+00
4.240236754532273888e-01 1.165162130419677311e+00
4.250642243498927719e-01 1.094684797246699759e+00
4.261047732465581550e-01 1.042840890243578400e+00
4.271453221432235381e-01 1.105202842545587316e+00
4.281858710398889212e-01 1.275722864758794373e+00
4.292264199365543043e-01 1.244516749628193253e+00
4.302669688332196873e-01 1.129024724462599494e+00
4.313075177298850704e-01 1.175210088096285688e+00
4.323480666265504535e-01 1.149035839160685413e+00
4.333886155232158366e-01 1.110842562396289424e+00
4.344291644198812197e-01 1.069323095734315388e+00
