# q (1/Angstrom), Intensity (arb)
2.029070354705860696e-02 9.300367573219655242e+02
2.133125244372399004e-02 8.233183362962505498e+02
2.237180134038937659e-02 7.357240706619518278e+02
2.341235023705475968e-02 6.723293401573682786e+02
2.445289913372014276e-02 6.224544306175138217e+02
2.549344803038552584e-02 5.786324842650226401e+02
2.653399692705091240e-02 5.389631937540796116e+02
2.757454582371629548e-02 5.101808257305875145e+02
2.861509472038167856e-02 4.890392702362271962e+02
2.965564361704706164e-02 4.684828844217052506e+02
3.069619251371244473e-02 4.523984902556443330e+02
3.173674141037782781e-02 4.384865328844783789e+02
3.277729030704321089e-02 4.286415212181543666e+02
3.381783920370859398e-02 4.219638610576620863e+02
3.485838810037397706e-02 4.194234307919159619e+02
3.589893699703936014e-02 4.206639203063759851e+02
3.693948589370474322e-02 4.223251356920558237e+02
3.798003479037012631e-02 4.251534590684848922e+02
3.902058368703550939e-02 4.343677456842441984e+02
4.006113258370089247e-02 4.418489190166785647e+02
4.110168148036627556e-02 4.591643992200375237e+02
4.214223037703165864e-02 4.832475950564182767e+02
4.318277927369704866e-02 5.096339072268870609e+02
4.422332817036243174e-02 5.508874792171748140e+02
4.526387706702781483e-02 6.117141604469104550e+02
4.630442596369319791e-02 7.098791915025236676e+02
4.734497486035858099e-02 9.068997119954857453e+02
4.838552375702396408e-02 1.314267013190855550e+03
4.942607265368934716e-02 1.998255252434684280e+03
5.046662155035473024e-02 3.096629760942011671e+03
5.150717044702011332e-02 4.685996598667416947e+03
5.254771934368549641e-02 5.331105200324271209e+03
5.358826824035087949e-02 4.361855806603331985e+03
5.462881713701626257e-02 3.500891036756796893e+03
5.566936603368164566e-02 3.326709072682742317e+03
5.670991493034702874e-02 3.425913597032852977e+03
5.775046382701241182e-02 3.582713878626397673e+03
5.879101272367779490e-02 3.710399107035777888e+03
5.983156162034317799e-02 3.726861952303423095e+03
6.087211051700856107e-02 3.564189738480891265e+03
6.191265941367394415e-02 3.283268436640556047e+03
6.295320831033933417e-02 2.977047611021278954e+03
6.399375720700471726e-02 2.673113669666517126e+03
6.503430610367010034e-02 2.367247122234856761e+03
6.607485500033548342e-02 2.065141670703024829e+03
6.711540389700086651e-02 1.782383349570584642e+03
6.815595279366624959e-02 1.512950638069660272e+03
6.919650169033163267e-02 1.270141577549676867e+03
7.023705058699701576e-02 1.051906807314795287e+03
7.127759948366239884e-02 8.683766614060778011e+02
7.231814838032778192e-02 7.161808867265150411e+02
7.335869727699316500e-02 5.919760463417243272e+02
7.439924617365854809e-02 4.932489678403834432e+02
7.543979507032393117e-02 4.104198614147449007e+02
7.648034396698931425e-02 3.461910128581262143e+02
7.752089286365469734e-02 2.935061837051207476e+02
7.856144176032008042e-02 2.525991817584387604e+02
7.960199065698546350e-02 2.232925738491155414e+02
8.064253955365084658e-02 2.026463440921628489e+02
8.168308845031622967e-02 1.956338471874592813e+02
8.272363734698161275e-02 2.118936036333658706e+02
8.376418624364699583e-02 2.714254811497889932e+02
8.480473514031239279e-02 3.500815549124679364e+02
8.584528403697777588e-02 3.532285410858320347e+02
8.688583293364315896e-02 2.709966408298374176e+02
8.792638183030854204e-02 2.037641043982841893e+02
8.896693072697392513e-02 1.768732617556998719e+02
9.000747962363930821e-02 1.680265002579410805e+02
9.104802852030469129e-02 1.674293319290417230e+02
9.208857741697007437e-02 1.697998879087909927e+02
9.312912631363545746e-02 1.733886169259916699e+02
9.416967521030084054e-02 1.798027767062310716e+02
9.521022410696622362e-02 1.899298197373264259e+02
9.625077300363160671e-02 2.077734869124117552e+02
9.729132190029698979e-02 2.451650419505413652e+02
9.833187079696237287e-02 3.124880298024187368e+02
9.937241969362775595e-02 3.911582106949819035e+02
1.004129685902931390e-01 4.031842360877041642e+02
1.014535174869585221e-01 3.351853366683687341e+02
1.024940663836239052e-01 2.715712777619004328e+02
1.035346152802892883e-01 2.476806224851430613e+02
1.045751641769546714e-01 2.340318262095015882e+02
1.056157130736200545e-01 2.137188220523150903e+02
1.066562619702854375e-01 1.978273849248143961e+02
1.076968108669508206e-01 1.906325527315744637e+02
1.087373597636162037e-01 1.901567679727376969e+02
1.097779086602815868e-01 1.917226755933396589e+02
1.108184575569469699e-01 1.921128092050141731e+02
1.118590064536123529e-01 1.911411938415059524e+02
1.128995553502777360e-01 1.892661097332746465e+02
1.139401042469431191e-01 1.864440116577150945e+02
1.149806531436085022e-01 1.809913596273781309e+02
1.160212020402738853e-01 1.742346431303041356e+02
1.170617509369392684e-01 1.659883947687092700e+02
1.181022998336046514e-01 1.564174209658992254e+02
1.191428487302700345e-01 1.477607360703736390e+02
1.201833976269354176e-01 1.381398229164806537e+02
1.212239465236008007e-01 1.280887655959676863e+02
1.222644954202661838e-01 1.179674839159367252e+02
1.233050443169315669e-01 1.087360253409906079e+02
1.243455932135969499e-01 9.936429405062460773e+01
1.253861421102623330e-01 9.123672359784248442e+01
1.264266910069277161e-01 8.416746466442208430e+01
1.274672399035930992e-01 7.810973575526742252e+01
1.285077888002584823e-01 7.497720311225813816e+01
1.295483376969238654e-01 7.584589196343699768e+01
1.305888865935892484e-01 7.911455165252769461e+01
1.316294354902546315e-01 8.204791863588465617e+01
1.326699843869200146e-01 8.293248651726993614e+01
1.337105332835853977e-01 8.282339366928890456e+01
1.347510821802507808e-01 8.130515146526674641e+01
1.357916310769161639e-01 7.084203596362178246e+01
1.368321799735815469e-01 5.524854590019066336e+01
1.378727288702469300e-01 4.432482928385402943e+01
1.389132777669123131e-01 3.900778369406289414e+01
1.399538266635776962e-01 3.623818984623986239e+01
1.409943755602430793e-01 3.423644992468131676e+01
1.420349244569084624e-01 3.372859072572411776e+01
1.430754733535738454e-01 3.416873460043323263e+01
1.441160222502392285e-01 3.515972720991265987e+01
1.451565711469046116e-01 3.761290331523629504e+01
1.461971200435699947e-01 4.191491142551121385e+01
1.472376689402353778e-01 4.517160030437615603e+01
1.482782178369007609e-01 4.521539543897263513e+01
1.493187667335661439e-01 4.115329492292453040e+01
1.503593156302315270e-01 3.662515536019701301e+01
1.513998645268969101e-01 3.432826696526724675e+01
1.524404134235622932e-01 3.326364078033910232e+01
1.534809623202276763e-01 3.336829633189948652e+01
1.545215112168930593e-01 3.359435200353466655e+01
1.555620601135584424e-01 3.460308633235652565e+01
1.566026090102238255e-01 3.511850675493093377e+01
1.576431579068892086e-01 3.316609386205921339e+01
1.586837068035545917e-01 3.001932537068822526e+01
1.597242557002199748e-01 2.789827449502307388e+01
1.607648045968853578e-01 2.666801399058623190e+01
1.618053534935507409e-01 2.589149795859229286e+01
1.628459023902161240e-01 2.533910314487857462e+01
1.638864512868815071e-01 2.415865771274144436e+01
1.649270001835468902e-01 2.376077273468208517e+01
1.659675490802122733e-01 2.356512788463093955e+01
1.670080979768776563e-01 2.334840795753664011e+01
1.680486468735430672e-01 2.284669659182581114e+01
1.690891957702084503e-01 2.223476045709179871e+01
1.701297446668738333e-01 2.254253786112255753e+01
1.711702935635392164e-01 2.219112843340649022e+01
1.722108424602045995e-01 2.158568171768431299e+01
1.732513913568699826e-01 2.139527874760933202e+01
1.742919402535353657e-01 2.129720724891371475e+01
1.753324891502007488e-01 2.130513626785787196e+01
1.763730380468661318e-01 2.213244198219564041e+01
1.774135869435315149e-01 2.401161531690242512e+01
1.784541358401968980e-01 2.547566961674751340e+01
1.794946847368622811e-01 2.527416632705658728e+01
1.805352336335276642e-01 2.403429102614927970e+01
1.815757825301930473e-01 2.171090023988669415e+01
1.826163314268584303e-01 1.906766205839844375e+01
1.836568803235238134e-01 1.766130889035091656e+01
1.846974292201891965e-01 1.658211572055526517e+01
1.857379781168545796e-01 1.561621853858172670e+01
1.867785270135199627e-01 1.474034044027893842e+01
1.878190759101853458e-01 1.482080901520416916e+01
1.888596248068507288e-01 1.484552187247757971e+01
1.899001737035161119e-01 1.499712328429457386e+01
1.909407226001814950e-01 1.466040318355590344e+01
1.919812714968468781e-01 1.388398478270200798e+01
1.930218203935122612e-01 1.356335292749745847e+01
1.940623692901776443e-01 1.313886828369692950e+01
1.951029181868430273e-01 1.264780199515696424e+01
1.961434670835084104e-01 1.271429269726115407e+01
1.971840159801737935e-01 1.295185195720961602e+01
1.982245648768391766e-01 1.272218275636883433e+01
1.992651137735045597e-01 1.238246367246505386e+01
2.003056626701699428e-01 1.183637029672353336e+01
2.013462115668353813e-01 1.055539762957957350e+01
2.023867604635007644e-01 9.686501393125798387e+00
2.034273093601661475e-01 9.031537338275697380e+00
2.044678582568315306e-01 8.833189728268472152e+00
2.055084071534969137e-01 7.984043120370547086e+00
2.065489560501622968e-01 7.685296339468287385e+00
2.075895049468276798e-01 7.625791876501782696e+00
2.086300538434930629e-01 7.442041505897570630e+00
2.096706027401584460e-01 7.548827533018744873e+00
2.107111516368238291e-01 7.440425698034065505e+00
2.117517005334892122e-01 7.377972702563507568e+00
2.127922494301545953e-01 6.981309180724821317e+00
2.138327983268199783e-01 6.918171068742207552e+00
2.148733472234853614e-01 7.113041140720582689e+00
2.159138961201507445e-01 7.086293386634523017e+00
2.169544450168161276e-01 6.809125306757970009e+00
2.179949939134815107e-01 6.860712968397539413e+00
2.190355428101468938e-01 6.778063697046192715e+00
2.200760917068122768e-01 6.834508294326695932e+00
2.211166406034776599e-01 6.643545386303230771e+00
2.221571895001430430e-01 6.754539883020328261e+00
2.231977383968084261e-01 6.887589320142481597e+00
2.242382872934738092e-01 6.982012283429813948e+00
2.252788361901391923e-01 7.194170022812414800e+00
2.263193850868045753e-01 7.421142800453591093e+00
2.273599339834699584e-01 7.664966982939745321e+00
2.284004828801353415e-01 7.520122450621908428e+00
2.294410317768007246e-01 7.432345017258583653e+00
2.304815806734661077e-01 7.602730612984231584e+00
2.315221295701314908e-01 7.758464258714123929e+00
2.325626784667968738e-01 7.462956267929936160e+00
2.336032273634622569e-01 7.022401941713201978e+00
2.346437762601276400e-01 6.312458568556291283e+00
2.356843251567930231e-01 5.883776486850539555e+00
2.367248740534584062e-01 5.626881107496899403e+00
2.377654229501237892e-01 5.180785720463610744e+00
2.388059718467891723e-01 5.237480232427405014e+00
2.398465207434545554e-01 5.355773865966170888e+00
2.408870696401199385e-01 5.066207094254931320e+00
2.419276185367853216e-01 5.178991805981198127e+00
2.429681674334507047e-01 5.029200967289760626e+00
2.440087163301160877e-01 4.947416742175338555e+00
2.450492652267814708e-01 4.898160752183695621e+00
2.460898141234468539e-01 5.051371786819736087e+00
2.471303630201122370e-01 5.233089893551174043e+00
2.481709119167776201e-01 5.177991818184427331e+00
2.492114608134430032e-01 5.126732177860404249e+00
2.502520097101083585e-01 4.897523192128847569e+00
2.512925586067737416e-01 4.473393527582814500e+00
2.523331075034391247e-01 4.264300095812014746e+00
2.533736564001045077e-01 4.205957940032767794e+00
2.544142052967698908e-01 4.283368751239468253e+00
2.554547541934352739e-01 3.958112547479643695e+00
2.564953030901006570e-01 3.976374499485043401e+00
2.575358519867660401e-01 3.810427244782481182e+00
2.585764008834314231e-01 3.622358239513509659e+00
2.596169497800968062e-01 3.556848018493521835e+00
2.606574986767621893e-01 3.518467408713512157e+00
2.616980475734275724e-01 3.502629490583498040e+00
2.627385964700929555e-01 3.537075331071235951e+00
2.637791453667583386e-01 3.590126227131641201e+00
2.648196942634237216e-01 3.360639991018043560e+00
2.658602431600891047e-01 3.313760327369632108e+00
2.669007920567544878e-01 3.323581166331791792e+00
2.679413409534198709e-01 3.365626018355261095e+00
2.689818898500852540e-01 3.276519290302751131e+00
2.700224387467506371e-01 3.441347353249348373e+00
2.710629876434160201e-01 3.495339684850591766e+00
2.721035365400814032e-01 3.436966520556122617e+00
2.731440854367467863e-01 3.578765228910160801e+00
2.741846343334121694e-01 3.579437327466759911e+00
2.752251832300775525e-01 3.696479771801744363e+00
2.762657321267429356e-01 3.475283297885081168e+00
2.773062810234083186e-01 3.492974749255125744e+00
2.783468299200737017e-01 3.562905024292298606e+00
2.793873788167390848e-01 3.247990935225441689e+00
2.804279277134044679e-01 2.997981963999770016e+00
2.814684766100698510e-01 3.177785944828059428e+00
2.825090255067352341e-01 3.101714617502953075e+00
2.835495744034006171e-01 3.228807766908342813e+00
2.845901233000660002e-01 3.286988859023633580e+00
2.856306721967313833e-01 3.251279615249295318e+00
2.866712210933967664e-01 3.193584666417788043e+00
2.877117699900621495e-01 3.284007782485350191e+00
2.887523188867275326e-01 3.170726543227015526e+00
2.897928677833929156e-01 2.854873008863147987e+00
2.908334166800582987e-01 2.918118013441173275e+00
2.918739655767236818e-01 3.024530114151513516e+00
2.929145144733890649e-01 2.909231882025899552e+00
2.939550633700544480e-01 2.809932835046751620e+00
2.949956122667198311e-01 2.925758017831459057e+00
2.960361611633852141e-01 2.820486264587479752e+00
2.970767100600505972e-01 2.749903628313301596e+00
2.981172589567159803e-01 2.744037068258592171e+00
2.991578078533813634e-01 2.760001884855206811e+00
3.001983567500468020e-01 2.926551025843977527e+00
3.012389056467121851e-01 2.784566572550431829e+00
3.022794545433775681e-01 2.698190993075275657e+00
3.033200034400429512e-01 2.535585502098982147e+00
3.043605523367083343e-01 2.440109940639118236e+00
3.054011012333737174e-01 2.512794573308038792e+00
3.064416501300391005e-01 2.362458585308853998e+00
3.074821990267044836e-01 2.328717888557466864e+00
3.085227479233698666e-01 2.427527204994824217e+00
3.095632968200352497e-01 2.397657463779768960e+00
3.106038457167006328e-01 2.223032558545057213e+00
3.116443946133660159e-01 2.280609528700477284e+00
3.126849435100313990e-01 2.304115613955580955e+00
3.137254924066967821e-01 2.137021384355836773e+00
3.147660413033621651e-01 2.279111857409848341e+00
3.158065902000275482e-01 2.159545130953706149e+00
3.168471390966929313e-01 1.921472099257055532e+00
3.178876879933583144e-01 2.132766000772306825e+00
3.189282368900236975e-01 2.151238856236290076e+00
3.199687857866890806e-01 2.253763160648087904e+00
3.210093346833544636e-01 2.232862456060026091e+00
3.220498835800198467e-01 2.428081609567886545e+00
3.230904324766852298e-01 2.358774602341039639e+00
3.241309813733506129e-01 2.400615804093444439e+00
3.251715302700159960e-01 2.217744156367842834e+00
3.262120791666813790e-01 2.229421927500737866e+00
3.272526280633467621e-01 2.196047338130185267e+00
3.282931769600121452e-01 2.317059843828268129e+00
3.293337258566775283e-01 2.515803591500873182e+00
3.303742747533429114e-01 2.311201374613858661e+00
3.314148236500082945e-01 2.196023641431409601e+00
3.324553725466736775e-01 2.205387391967718713e+00
3.334959214433390606e-01 2.300251585422333989e+00
3.345364703400044437e-01 2.293118617152554606e+00
3.355770192366698268e-01 2.128064584316888386e+00
3.366175681333352099e-01 1.991848629866630915e+00
3.376581170300005930e-01 2.091292559830506548e+00
3.386986659266659760e-01 2.024262167627163933e+00
3.397392148233313591e-01 2.035257100152112031e+00
3.407797637199967422e-01 1.927790124720232257e+00
3.418203126166621253e-01 1.787527143962691412e+00
3.428608615133275084e-01 2.050972266816884826e+00
3.439014104099928915e-01 2.277894321877592887e+00
3.449419593066582745e-01 2.208821802140594315e+00
3.459825082033236576e-01 2.098386621841903832e+00
3.470230570999890407e-01 2.067910090862302042e+00
3.480636059966544238e-01 2.077514312177211053e+00
3.491041548933198069e-01 1.816441660088358390e+00
3.501447037899851900e-01 1.823988153342956053e+00
3.511852526866505730e-01 1.974472774483217563e+00
3.522258015833159561e-01 1.809678813878427661e+00
3.532663504799813392e-01 1.686515797064625843e+00
3.543068993766467223e-01 1.597137024117504467e+00
3.553474482733121054e-01 1.802677362200498123e+00
3.563879971699774885e-01 1.797096221602600963e+00
3.574285460666428715e-01 1.475257953767080465e+00
3.584690949633082546e-01 1.386247569249203337e+00
3.595096438599736377e-01 1.557254366395259382e+00
3.605501927566390208e-01 1.681143999531705902e+00
3.615907416533044039e-01 1.653141384314711360e+00
3.626312905499697870e-01 1.733515953479052740e+00
3.636718394466351700e-01 1.760552104474701451e+00
3.647123883433005531e-01 1.585706203518572721e+00
3.657529372399659362e-01 1.662819371049959472e+00
3.667934861366313193e-01 1.653338273365459798e+00
3.678340350332967024e-01 1.500938269825873306e+00
3.688745839299620854e-01 1.550928380890077563e+00
3.699151328266274685e-01 1.524984612359528313e+00
3.709556817232928516e-01 1.570230749912369106e+00
3.719962306199582347e-01 1.533135316113099833e+00
3.730367795166236178e-01 1.546718919310087870e+00
3.740773284132890009e-01 1.371475474113548643e+00
3.751178773099543839e-01 1.442727516964307455e+00
3.761584262066197670e-01 1.554180053847765919e+00
3.771989751032851501e-01 1.609250215714371990e+00
3.782395239999505332e-01 1.678438519477566615e+00
3.792800728966159163e-01 1.583011794912373205e+00
3.803206217932812994e-01 1.756093786686925284e+00
3.813611706899466824e-01 1.751971048373757611e+00
3.824017195866120655e-01 1.614982230502825189e+00
3.834422684832774486e-01 1.501760694075834124e+00
3.844828173799428317e-01 1.350462800945681607e+00
3.855233662766082148e-01 1.532184043536464202e+00
3.865639151732735979e-01 1.653584020619984329e+00
3.876044640699389809e-01 1.454975175946696453e+00
3.886450129666043640e-01 1.570551220073138410e+00
3.896855618632697471e-01 1.508049847275895416e+00
3.907261107599351302e-01 1.227483305871682973e+00
3.917666596566005133e-01 1.195945181420022152e+00
3.928072085532658964e-01 1.216690299319203916e+00
3.938477574499312794e-01 1.292042298626238761e+00
3.948883063465966625e-01 1.224926028736479822e+00
3.959288552432620456e-01 1.376956940004067320e+00
3.969694041399274287e-01 1.498653103062451919e+00
3.980099530365928118e-01 1.283787542036566975e+00
3.990505019332581949e-01 1.244105995527004183e+00
4.000910508299235779e-01 1.161960589080425876e+00
4.011315997265889610e-01 1.268436974402504802e+00
4.021721486232543441e-01 1.533047931377105044e+00
4.032126975199197272e-01 1.408233666774002302e+00
4.042532464165851103e-01 1.367584860363233901e+00
4.052937953132504934e-01 1.382489817682724720e+00
4.063343442099158764e-01 1.201149968677693636e+00
4.073748931065812595e-01 1.194094744820610288e+00
4.084154420032466426e-01 1.285813811964569453e+00
4.094559908999120257e-01 1.118817019694983372e+00
4.104965397965774088e-01 1.190291806496478699e+00
4.115370886932427918e-01 1.221011950626717635e+00
4.125776375899081749e-01 1.180802881552821759e+00
4.136181864865735580e-01 1.314657822081560568e+00
4.146587353832389411e-01 1.271417340195235113e+00
4.156992842799043242e-01 1.053284153122451272e+00
4.167398331765697073e-01 9.720087646876152121e-01
4.177803820732350903e-01 1.023094058203735557e+00
4.188209309699004734e-01 1.018382217386708533e+00
4.198614798665658565e-01 9.753203456289014639e-01
4.209020287632312396e-01 9.035101362224047250e-01
4.219425776598966227e-01 9.944942502849336563e-01
4.229831265565620058e-01 1.087722866763208174e+00
4.240236754532273888e-01 1.024845793655160264e+00
4.250642243498927719e-01 1.217452680350049832e+00
4.261047732465581550e-01 1.402034457262487877e+00
4.271453221432235381e-01 1.165596089666649959e+00
4.281858710398889212e-01 1.078986579030267734e+00
4.292264199365543043e-01 1.083834155784103359e+00
4.302669688332196873e-01 1.104198466055340333e+00
4.313075177298850704e-01 1.123272055178109241e+00
4.323480666265504535e-01 9.597874163783330914e-01
4.333886155232158366e-01 9.709678094312259589e-01
4.344291644198812197e-01 1.055526443085444299e+00
