# q (1/Angstrom), Intensity (arb)
2.029070354705860696e-02 9.471955779572906522e+02
2.133125244372399004e-02 8.422823607016869119e+02
2.237180134038937659e-02 7.572907381683187396e+02
2.341235023705475968e-02 6.868424504004357232e+02
2.445289913372014276e-02 6.331307905488945380e+02
2.549344803038552584e-02 5.852611800672191293e+02
2.653399692705091240e-02 5.481712991706451703e+02
2.757454582371629548e-02 5.188940852371599703e+02
2.861509472038167856e-02 4.929886987324541678e+02
2.965564361704706164e-02 4.760613161088377865e+02
3.069619251371244473e-02 4.561093257852696752e+02
3.173674141037782781e-02 4.433988738627099337e+02
3.277729030704321089e-02 4.377341371169305262e+02
3.381783920370859398e-02 4.297758157476741872e+02
3.485838810037397706e-02 4.240476510363719171e+02
3.589893699703936014e-02 4.230787599432359798e+02
3.693948589370474322e-02 4.245716167058163819e+02
3.798003479037012631e-02 4.269516118028677170e+02
3.902058368703550939e-02 4.337496291030561224e+02
4.006113258370089247e-02 4.456694979641342798e+02
4.110168148036627556e-02 4.594420866276119000e+02
4.214223037703165864e-02 4.790193353107977146e+02
4.318277927369704866e-02 5.052500851345837987e+02
4.422332817036243174e-02 5.411889203253736014e+02
4.526387706702781483e-02 5.955085196702877965e+02
4.630442596369319791e-02 6.838850171783647056e+02
4.734497486035858099e-02 8.538730808295592851e+02
4.838552375702396408e-02 1.205118203875014387e+03
4.942607265368934716e-02 1.822346168762441266e+03
5.046662155035473024e-02 2.797892898084985063e+03
5.150717044702011332e-02 4.300589395819430138e+03
5.254771934368549641e-02 5.193912858317267819e+03
5.358826824035087949e-02 4.427534317166676374e+03
5.462881713701626257e-02 3.473573915668976042e+03
5.566936603368164566e-02 3.205546890904279280e+03
5.670991493034702874e-02 3.271411905471512455e+03
5.775046382701241182e-02 3.419478055104745181e+03
5.879101272367779490e-02 3.551260381541526840e+03
5.983156162034317799e-02 3.597194185966548503e+03
6.087211051700856107e-02 3.482293962975147224e+03
6.191265941367394415e-02 3.226810157526016155e+03
6.295320831033933417e-02 2.937941048562487595e+03
6.399375720700471726e-02 2.649116505349445106e+03
6.503430610367010034e-02 2.358901705944864716e+03
6.607485500033548342e-02 2.068494196023691075e+03
6.711540389700086651e-02 1.785932524900788621e+03
6.815595279366624959e-02 1.519613289001018529e+03
6.919650169033163267e-02 1.279888374051105984e+03
7.023705058699701576e-02 1.064162040917698050e+03
7.127759948366239884e-02 8.818256705964387265e+02
7.231814838032778192e-02 7.295990689078236073e+02
7.335869727699316500e-02 6.049054521481053825e+02
7.439924617365854809e-02 5.022491370833753308e+02
7.543979507032393117e-02 4.184594298282335672e+02
7.648034396698931425e-02 3.513060534106103887e+02
7.752089286365469734e-02 2.984403596252428201e+02
7.856144176032008042e-02 2.563930425562209052e+02
7.960199065698546350e-02 2.236036487829784107e+02
8.064253955365084658e-02 2.021775739053762493e+02
8.168308845031622967e-02 1.925778745040450701e+02
8.272363734698161275e-02 2.020155166445849204e+02
8.376418624364699583e-02 2.493945239834195604e+02
8.480473514031239279e-02 3.324795017868257219e+02
8.584528403697777588e-02 3.647317551801168065e+02
8.688583293364315896e-02 2.970007500241981120e+02
8.792638183030854204e-02 2.176537542471290010e+02
8.896693072697392513e-02 1.798081657557925439e+02
9.000747962363930821e-02 1.667497922304549434e+02
9.104802852030469129e-02 1.646012465912907032e+02
9.208857741697007437e-02 1.668148298185546423e+02
9.312912631363545746e-02 1.706600065196011826e+02
9.416967521030084054e-02 1.785400500007218341e+02
9.521022410696622362e-02 1.863767848657008983e+02
9.625077300363160671e-02 1.998085279027706065e+02
9.729132190029698979e-02 2.276510953604612268e+02
9.833187079696237287e-02 2.819315115537697807e+02
9.937241969362775595e-02 3.610767360146687679e+02
1.004129685902931390e-01 4.016217577872714628e+02
1.014535174869585221e-01 3.534039759195015336e+02
1.024940663836239052e-01 2.816044189118868530e+02
1.035346152802892883e-01 2.464255670253771484e+02
1.045751641769546714e-01 2.328768057362779018e+02
1.056157130736200545e-01 2.169432197496507797e+02
1.066562619702854375e-01 1.993415251126586440e+02
1.076968108669508206e-01 1.886625796538738200e+02
1.087373597636162037e-01 1.862458042860728824e+02
1.097779086602815868e-01 1.871295060017228025e+02
1.108184575569469699e-01 1.871481334146151880e+02
1.118590064536123529e-01 1.868980978700327853e+02
1.128995553502777360e-01 1.852381119643508782e+02
1.139401042469431191e-01 1.827839910415195845e+02
1.149806531436085022e-01 1.791756219742590588e+02
1.160212020402738853e-01 1.729953878191967931e+02
1.170617509369392684e-01 1.659309467225193089e+02
1.181022998336046514e-01 1.572886594965379459e+02
1.191428487302700345e-01 1.479632307744636819e+02
1.201833976269354176e-01 1.386708497428256521e+02
1.212239465236008007e-01 1.285610508495367128e+02
1.222644954202661838e-01 1.193278113361621422e+02
1.233050443169315669e-01 1.098683756676329182e+02
1.243455932135969499e-01 1.001943785402582847e+02
1.253861421102623330e-01 9.290438433105278193e+01
1.264266910069277161e-01 8.590916948736740721e+01
1.274672399035930992e-01 7.998925429357483097e+01
1.285077888002584823e-01 7.571164005459257851e+01
1.295483376969238654e-01 7.433950278984984550e+01
1.305888865935892484e-01 7.743735082701027750e+01
1.316294354902546315e-01 8.214270459102237965e+01
1.326699843869200146e-01 8.392453468001038175e+01
1.337105332835853977e-01 8.415678826948852986e+01
1.347510821802507808e-01 8.450614434345295933e+01
1.357916310769161639e-01 7.758091165593324945e+01
1.368321799735815469e-01 6.262255936510040755e+01
1.378727288702469300e-01 4.902188326566371757e+01
1.389132777669123131e-01 4.156444802607239808e+01
1.399538266635776962e-01 3.730440472153777876e+01
1.409943755602430793e-01 3.510935170387303117e+01
1.420349244569084624e-01 3.441947004930715082e+01
1.430754733535738454e-01 3.397787368797561669e+01
1.441160222502392285e-01 3.453041303639608373e+01
1.451565711469046116e-01 3.644365816276047809e+01
1.461971200435699947e-01 3.959887152612390082e+01
1.472376689402353778e-01 4.291835367629735032e+01
1.482782178369007609e-01 4.480057065220975687e+01
1.493187667335661439e-01 4.302150372280082280e+01
1.503593156302315270e-01 3.878444751741565000e+01
1.513998645268969101e-01 3.550437061386687532e+01
1.524404134235622932e-01 3.443368413503693404e+01
1.534809623202276763e-01 3.399228753312114293e+01
1.545215112168930593e-01 3.382831115639493191e+01
1.555620601135584424e-01 3.384589343576244858e+01
1.566026090102238255e-01 3.400388546271680923e+01
1.576431579068892086e-01 3.345614190694550416e+01
1.586837068035545917e-01 3.166302671481753706e+01
1.597242557002199748e-01 2.920997341332530794e+01
1.607648045968853578e-01 2.745223830320850666e+01
1.618053534935507409e-01 2.640134949264732001e+01
1.628459023902161240e-01 2.563927988870813479e+01
1.638864512868815071e-01 2.508358434322511954e+01
1.649270001835468902e-01 2.450436279850141830e+01
1.659675490802122733e-01 2.430890924008147991e+01
1.670080979768776563e-01 2.410046053096493424e+01
1.680486468735430672e-01 2.355259396977699282e+01
1.690891957702084503e-01 2.307821744642964745e+01
1.701297446668738333e-01 2.256461871413169007e+01
1.711702935635392164e-01 2.202494097633618608e+01
1.722108424602045995e-01 2.215069291570766552e+01
1.732513913568699826e-01 2.161198113713859570e+01
1.742919402535353657e-01 2.131704554471989965e+01
1.753324891502007488e-01 2.139191701777948751e+01
1.763730380468661318e-01 2.183303667907392054e+01
1.774135869435315149e-01 2.310215858153296864e+01
1.784541358401968980e-01 2.472698119723740717e+01
1.794946847368622811e-01 2.570335099602732143e+01
1.805352336335276642e-01 2.505019249737038223e+01
1.815757825301930473e-01 2.349172183237891431e+01
1.826163314268584303e-01 2.142585994469359889e+01
1.836568803235238134e-01 1.920087489086023069e+01
1.846974292201891965e-01 1.742984386364113547e+01
1.857379781168545796e-01 1.649461522497740518e+01
1.867785270135199627e-01 1.554265448487008072e+01
1.878190759101853458e-01 1.513327937618315033e+01
1.888596248068507288e-01 1.519812068161678198e+01
1.899001737035161119e-01 1.468389985432845535e+01
1.909407226001814950e-01 1.452076294695004677e+01
1.919812714968468781e-01 1.398520368906427080e+01
1.930218203935122612e-01 1.382360966734446706e+01
1.940623692901776443e-01 1.308133606677513683e+01
1.951029181868430273e-01 1.253872760350786919e+01
1.961434670835084104e-01 1.244733499991713543e+01
1.971840159801737935e-01 1.237453768768913065e+01
1.982245648768391766e-01 1.256709658960232545e+01
1.992651137735045597e-01 1.258258086504287832e+01
2.003056626701699428e-01 1.196973356617272444e+01
2.013462115668353813e-01 1.131844315335770546e+01
2.023867604635007644e-01 1.022999230994027542e+01
2.034273093601661475e-01 9.469102523329393506e+00
2.044678582568315306e-01 9.038187734935036133e+00
2.055084071534969137e-01 8.957427445036177716e+00
2.065489560501622968e-01 8.591886706350042147e+00
2.075895049468276798e-01 8.657348209225695257e+00
2.086300538434930629e-01 8.421158852769892178e+00
2.096706027401584460e-01 8.046444816473648842e+00
2.107111516368238291e-01 8.066878893780053517e+00
2.117517005334892122e-01 7.742823175050396856e+00
2.127922494301545953e-01 7.302702083972235414e+00
2.138327983268199783e-01 7.240965101615476129e+00
2.148733472234853614e-01 7.337856834613191381e+00
2.159138961201507445e-01 7.060210776029403945e+00
2.169544450168161276e-01 7.083296132557936886e+00
2.179949939134815107e-01 7.077403497644368713e+00
2.190355428101468938e-01 6.833781617522973306e+00
2.200760917068122768e-01 6.667699050379745529e+00
2.211166406034776599e-01 6.720395425814224666e+00
2.221571895001430430e-01 6.734180331491071314e+00
2.231977383968084261e-01 7.069599203325260817e+00
2.242382872934738092e-01 7.496056939799490948e+00
2.252788361901391923e-01 7.682802318607432568e+00
2.263193850868045753e-01 7.804532922247069848e+00
2.273599339834699584e-01 7.716304775510838709e+00
2.284004828801353415e-01 7.599287681720596765e+00
2.294410317768007246e-01 7.464963471220478652e+00
2.304815806734661077e-01 7.400660597399706830e+00
2.315221295701314908e-01 7.782748750627078493e+00
2.325626784667968738e-01 7.815184679833183878e+00
2.336032273634622569e-01 7.306983185049777063e+00
2.346437762601276400e-01 6.794201019638364869e+00
2.356843251567930231e-01 6.360268384012030651e+00
2.367248740534584062e-01 5.986168542121145464e+00
2.377654229501237892e-01 5.696218451222438972e+00
2.388059718467891723e-01 5.687267458762832462e+00
2.398465207434545554e-01 5.511008324910154244e+00
2.408870696401199385e-01 5.417548620643785284e+00
2.419276185367853216e-01 5.128051058538392937e+00
2.429681674334507047e-01 5.261673747181003336e+00
2.440087163301160877e-01 5.056220310934751438e+00
2.450492652267814708e-01 5.203930791845913006e+00
2.460898141234468539e-01 4.986289268562671850e+00
2.471303630201122370e-01 4.761909922022788066e+00
2.481709119167776201e-01 4.879351067182128077e+00
2.492114608134430032e-01 4.981456207157549443e+00
2.502520097101083585e-01 5.012117289348282156e+00
2.512925586067737416e-01 4.614032206489575572e+00
2.523331075034391247e-01 4.251983184307555064e+00
2.533736564001045077e-01 4.209192473906785636e+00
2.544142052967698908e-01 4.165899454321952078e+00
2.554547541934352739e-01 4.102475617716308420e+00
2.564953030901006570e-01 3.703320240280799425e+00
2.575358519867660401e-01 3.857663030928662806e+00
2.585764008834314231e-01 3.560984922847715950e+00
2.596169497800968062e-01 3.361485005773296564e+00
2.606574986767621893e-01 3.340578405663311656e+00
2.616980475734275724e-01 3.135675810687047260e+00
2.627385964700929555e-01 2.897643679074036527e+00
2.637791453667583386e-01 3.012435055112685944e+00
2.648196942634237216e-01 3.175928974288268591e+00
2.658602431600891047e-01 3.376210624664320648e+00
2.669007920567544878e-01 3.301512569435640643e+00
2.679413409534198709e-01 3.365067008964516049e+00
2.689818898500852540e-01 3.171865984005385997e+00
2.700224387467506371e-01 3.265329917522851844e+00
2.710629876434160201e-01 3.324814175529173355e+00
2.721035365400814032e-01 3.330645254556291235e+00
2.731440854367467863e-01 3.389784076856987127e+00
2.741846343334121694e-01 3.601109602492051920e+00
2.752251832300775525e-01 3.648940563380971724e+00
2.762657321267429356e-01 3.714374487410786685e+00
2.773062810234083186e-01 3.594325761981810530e+00
2.783468299200737017e-01 3.516443888464813483e+00
2.793873788167390848e-01 3.456599213399833559e+00
2.804279277134044679e-01 3.408846766544776585e+00
2.814684766100698510e-01 3.457965555370723365e+00
2.825090255067352341e-01 3.260986698253134364e+00
2.835495744034006171e-01 3.315140195709670223e+00
2.845901233000660002e-01 3.218510337015544565e+00
2.856306721967313833e-01 3.125385758845229844e+00
2.866712210933967664e-01 3.230975759414551618e+00
2.877117699900621495e-01 3.325032016074363383e+00
2.887523188867275326e-01 3.425476817582211453e+00
2.897928677833929156e-01 3.047953885033216181e+00
2.908334166800582987e-01 2.762955837071807252e+00
2.918739655767236818e-01 2.715643957219242566e+00
2.929145144733890649e-01 2.865925020302185544e+00
2.939550633700544480e-01 2.872993206285872958e+00
2.949956122667198311e-01 2.772235438308825906e+00
2.960361611633852141e-01 2.912478905702965193e+00
2.970767100600505972e-01 2.813304693657407540e+00
2.981172589567159803e-01 2.492532489004638308e+00
2.991578078533813634e-01 2.528778667903424093e+00
3.001983567500468020e-01 2.711301458726762093e+00
3.012389056467121851e-01 2.708277467823407392e+00
3.022794545433775681e-01 2.814939164094354851e+00
3.033200034400429512e-01 2.615618518577814910e+00
3.043605523367083343e-01 2.566629345346314039e+00
3.054011012333737174e-01 2.538544129520932557e+00
3.064416501300391005e-01 2.383022501343344146e+00
3.074821990267044836e-01 2.336079926371066762e+00
3.085227479233698666e-01 2.389737584763423683e+00
3.095632968200352497e-01 2.260824167697172982e+00
3.106038457167006328e-01 2.129480927362010334e+00
3.116443946133660159e-01 2.210854523879078215e+00
3.126849435100313990e-01 2.133103832783849185e+00
3.137254924066967821e-01 2.421339796327700356e+00
3.147660413033621651e-01 2.394163505863016184e+00
3.158065902000275482e-01 2.201161761691800223e+00
3.168471390966929313e-01 2.183027495987914790e+00
3.178876879933583144e-01 2.223184092844583404e+00
3.189282368900236975e-01 2.328135380197878135e+00
3.199687857866890806e-01 2.239383367845768191e+00
3.210093346833544636e-01 2.399481956179080555e+00
3.220498835800198467e-01 2.389519331821770010e+00
3.230904324766852298e-01 2.232319462307977176e+00
3.241309813733506129e-01 2.270060855932179322e+00
3.251715302700159960e-01 2.323239664582324338e+00
3.262120791666813790e-01 2.324056733742160930e+00
3.272526280633467621e-01 2.136284079971609629e+00
3.282931769600121452e-01 2.148046326493179947e+00
3.293337258566775283e-01 2.277602569520830400e+00
3.303742747533429114e-01 2.232172155141736170e+00
3.314148236500082945e-01 2.150737048651219396e+00
3.324553725466736775e-01 2.167540583287948408e+00
3.334959214433390606e-01 1.993346747028361676e+00
3.345364703400044437e-01 2.098904904971913510e+00
3.355770192366698268e-01 2.149492882180471298e+00
3.366175681333352099e-01 2.138682580934119670e+00
3.376581170300005930e-01 2.054007351444735008e+00
3.386986659266659760e-01 1.885749446963533416e+00
3.397392148233313591e-01 1.944260759439000452e+00
3.407797637199967422e-01 2.063135392844380078e+00
3.418203126166621253e-01 1.905658924215963168e+00
3.428608615133275084e-01 1.914205879197091065e+00
3.439014104099928915e-01 1.925950102026273925e+00
3.449419593066582745e-01 1.998359229873436504e+00
3.459825082033236576e-01 2.082872135486425691e+00
3.470230570999890407e-01 2.130169478245402814e+00
3.480636059966544238e-01 2.039280391140430027e+00
3.491041548933198069e-01 1.586707996277468169e+00
3.501447037899851900e-01 1.563436869102805105e+00
3.511852526866505730e-01 1.675984107717681582e+00
3.522258015833159561e-01 1.726610462568668680e+00
3.532663504799813392e-01 2.053008594928925845e+00
3.543068993766467223e-01 1.813178950223356622e+00
3.553474482733121054e-01 1.550542990899497653e+00
3.563879971699774885e-01 1.520439028616078048e+00
3.574285460666428715e-01 1.568816495577351589e+00
3.584690949633082546e-01 1.694295610126790308e+00
3.595096438599736377e-01 1.680240450453293732e+00
3.605501927566390208e-01 1.628684714681416068e+00
3.615907416533044039e-01 1.476491071967121371e+00
3.626312905499697870e-01 1.660234876016680516e+00
3.636718394466351700e-01 1.545438385759474897e+00
3.647123883433005531e-01 1.583197685903595442e+00
3.657529372399659362e-01 1.511279419383591005e+00
3.667934861366313193e-01 1.374278988352493514e+00
3.678340350332967024e-01 1.471088136968155879e+00
3.688745839299620854e-01 1.651174108669366092e+00
3.699151328266274685e-01 1.545895114926569391e+00
3.709556817232928516e-01 1.739599740231447811e+00
3.719962306199582347e-01 1.613516090632312938e+00
3.730367795166236178e-01 1.499503836987216232e+00
3.740773284132890009e-01 1.812121062139240735e+00
3.751178773099543839e-01 1.727255389108893979e+00
3.761584262066197670e-01 1.625050261219264769e+00
3.771989751032851501e-01 1.631533059653765605e+00
3.782395239999505332e-01 1.536394237856388401e+00
3.792800728966159163e-01 1.636045133111533545e+00
3.803206217932812994e-01 1.528673101815183344e+00
3.813611706899466824e-01 1.591444916695031964e+00
3.824017195866120655e-01 1.451360283044326849e+00
3.834422684832774486e-01 1.545810915186049073e+00
3.844828173799428317e-01 1.535348211537922225e+00
3.855233662766082148e-01 1.708700027043889236e+00
3.865639151732735979e-01 1.781216230556079694e+00
3.876044640699389809e-01 1.662298193443874084e+00
3.886450129666043640e-01 1.456245481359243144e+00
3.896855618632697471e-01 1.437216174312442973e+00
3.907261107599351302e-01 1.734088226995126547e+00
3.917666596566005133e-01 1.527697205339581643e+00
3.928072085532658964e-01 1.341273405685896591e+00
3.938477574499312794e-01 1.249166920279193960e+00
3.948883063465966625e-01 1.293400048942164204e+00
3.959288552432620456e-01 1.350797953608577018e+00
3.969694041399274287e-01 1.474519166548535765e+00
3.980099530365928118e-01 1.467105828653529898e+00
3.990505019332581949e-01 1.409225757345762275e+00
4.000910508299235779e-01 1.271851719913421164e+00
4.011315997265889610e-01 1.292424548014963648e+00
4.021721486232543441e-01 1.168264069957139384e+00
4.032126975199197272e-01 1.118729239184933277e+00
4.042532464165851103e-01 1.228224436010897591e+00
4.052937953132504934e-01 1.171037381247760578e+00
4.063343442099158764e-01 1.122312637624034437e+00
4.073748931065812595e-01 1.231038583555577048e+00
4.084154420032466426e-01 1.202141045132410824e+00
4.094559908999120257e-01 1.284912919314578517e+00
4.104965397965774088e-01 1.244760217963431614e+00
4.115370886932427918e-01 1.096107674160673895e+00
4.125776375899081749e-01 1.174339534537239160e+00
4.136181864865735580e-01 1.279688117097101951e+00
4.146587353832389411e-01 1.230043606271610912e+00
4.156992842799043242e-01 1.102692777800093893e+00
4.167398331765697073e-01 1.476256638287928524e+00
4.177803820732350903e-01 1.157480861032166075e+00
4.188209309699004734e-01 1.002282449867990977e+00
4.198614798665658565e-01 8.545547185222375219e-01
4.209020287632312396e-01 8.818820786030201475e-01
4.219425776598966227e-01 1.025681285310124480e+00
4.229831265565620058e-01 1.112024872446880863e+00
4.240236754532273888e-01 8.847309945116421659e-01
4.250642243498927719e-01 8.871691320477808063e-01
4.261047732465581550e-01 8.903696549488380185e-01
4.271453221432235381e-01 9.554347034144967665e-01
4.281858710398889212e-01 9.911505070705182163e-01
4.292264199365543043e-01 7.738982268496279460e-01
4.302669688332196873e-01 7.983990446036131061e-01
4.313075177298850704e-01 9.382126744643350946e-01
4.323480666265504535e-01 8.386206479477351650e-01
4.333886155232158366e-01 8.307521463156035679e-01
4.344291644198812197e-01 9.117203897187593498e-01
