# q (1/Angstrom), Intensity (arb)
2.029070354705860696e-02 1.013762715756904072e+03
2.133125244372399004e-02 8.967646010554292388e+02
2.237180134038937659e-02 8.100984489015435202e+02
2.341235023705475968e-02 7.317437159060294789e+02
2.445289913372014276e-02 6.693826006026997675e+02
2.549344803038552584e-02 6.223375162997003827e+02
2.653399692705091240e-02 5.821896391331076757e+02
2.757454582371629548e-02 5.486598860609016128e+02
2.861509472038167856e-02 5.215130371254326747e+02
2.965564361704706164e-02 4.983810912665116462e+02
3.069619251371244473e-02 4.796843415053282342e+02
3.173674141037782781e-02 4.660665481297753558e+02
3.277729030704321089e-02 4.550149034015686311e+02
3.381783920370859398e-02 4.450690827361370907e+02
3.485838810037397706e-02 4.390274551548528166e+02
3.589893699703936014e-02 4.392324549115903096e+02
3.693948589370474322e-02 4.408414428379834931e+02
3.798003479037012631e-02 4.393343369699645109e+02
3.902058368703550939e-02 4.442665557891285744e+02
4.006113258370089247e-02 4.510648115498170796e+02
4.110168148036627556e-02 4.644358873860933841e+02
4.214223037703165864e-02 4.840762547938778084e+02
4.318277927369704866e-02 5.044363711380010500e+02
4.422332817036243174e-02 5.360439299819319103e+02
4.526387706702781483e-02 5.822527745776959591e+02
4.630442596369319791e-02 6.553566334958331936e+02
4.734497486035858099e-02 7.812752442095987817e+02
4.838552375702396408e-02 1.032858578552215704e+03
4.942607265368934716e-02 1.526091632565886584e+03
5.046662155035473024e-02 2.298038344493339991e+03
5.150717044702011332e-02 3.576393057769222651e+03
5.254771934368549641e-02 4.998637182275084342e+03
5.358826824035087949e-02 4.983561707189231129e+03
5.462881713701626257e-02 3.870271860296410523e+03
5.566936603368164566e-02 3.254455559761146105e+03
5.670991493034702874e-02 3.186237208667354480e+03
5.775046382701241182e-02 3.299848562145912183e+03
5.879101272367779490e-02 3.442096769755575679e+03
5.983156162034317799e-02 3.548638563281346251e+03
6.087211051700856107e-02 3.537201058026633291e+03
6.191265941367394415e-02 3.365803763842797252e+03
6.295320831033933417e-02 3.099349012097785817e+03
6.399375720700471726e-02 2.818421496645771185e+03
6.503430610367010034e-02 2.543542240124258569e+03
6.607485500033548342e-02 2.260894874041095136e+03
6.711540389700086651e-02 1.981330293505809095e+03
6.815595279366624959e-02 1.709847055436059918e+03
6.919650169033163267e-02 1.462511080937735187e+03
7.023705058699701576e-02 1.232839017278345636e+03
7.127759948366239884e-02 1.026890131998914057e+03
7.231814838032778192e-02 8.541968310615237669e+02
7.335869727699316500e-02 7.089267193083976508e+02
7.439924617365854809e-02 5.877115091886234950e+02
7.543979507032393117e-02 4.883622721652695873e+02
7.648034396698931425e-02 4.096658460107811948e+02
7.752089286365469734e-02 3.447424624699413584e+02
7.856144176032008042e-02 2.925317041420481132e+02
7.960199065698546350e-02 2.523277992602304494e+02
8.064253955365084658e-02 2.224254517374352531e+02
8.168308845031622967e-02 2.014871390243135352e+02
8.272363734698161275e-02 1.949892916291998404e+02
8.376418624364699583e-02 2.105887228793298220e+02
8.480473514031239279e-02 2.709516257217395037e+02
8.584528403697777588e-02 3.528898898914819142e+02
8.688583293364315896e-02 3.623412639072431602e+02
8.792638183030854204e-02 2.827606308253641032e+02
8.896693072697392513e-02 2.091633858521367983e+02
9.000747962363930821e-02 1.766169100394433826e+02
9.104802852030469129e-02 1.659142367248698520e+02
9.208857741697007437e-02 1.644546800675888392e+02
9.312912631363545746e-02 1.671367675477871160e+02
9.416967521030084054e-02 1.714677338919742056e+02
9.521022410696622362e-02 1.777818675054641346e+02
9.625077300363160671e-02 1.866933609342713112e+02
9.729132190029698979e-02 2.008041584074731816e+02
9.833187079696237287e-02 2.301351456794633918e+02
9.937241969362775595e-02 2.882596282632791826e+02
1.004129685902931390e-01 3.660035791520622297e+02
1.014535174869585221e-01 3.974424603339542159e+02
1.024940663836239052e-01 3.463387003888003619e+02
1.035346152802892883e-01 2.780112819637447501e+02
1.045751641769546714e-01 2.443364799578753264e+02
1.056157130736200545e-01 2.314360889886964685e+02
1.066562619702854375e-01 2.152902201993436222e+02
1.076968108669508206e-01 1.971906666906581620e+02
1.087373597636162037e-01 1.878077228452222016e+02
1.097779086602815868e-01 1.858190877638690495e+02
1.108184575569469699e-01 1.848984351622420093e+02
1.118590064536123529e-01 1.861258656455015910e+02
1.128995553502777360e-01 1.859208471980372792e+02
1.139401042469431191e-01 1.846563315443444253e+02
1.149806531436085022e-01 1.816069421458091711e+02
1.160212020402738853e-01 1.770279530849772414e+02
1.170617509369392684e-01 1.713726847786945768e+02
1.181022998336046514e-01 1.648036945692700783e+02
1.191428487302700345e-01 1.560525600484497772e+02
1.201833976269354176e-01 1.476830618753977831e+02
1.212239465236008007e-01 1.381790156816328192e+02
1.222644954202661838e-01 1.299081131684926049e+02
1.233050443169315669e-01 1.202621254308256056e+02
1.243455932135969499e-01 1.113059774071820272e+02
1.253861421102623330e-01 1.031123137665485103e+02
1.264266910069277161e-01 9.495089092208399961e+01
1.274672399035930992e-01 8.737997057317683414e+01
1.285077888002584823e-01 8.167481781451377287e+01
1.295483376969238654e-01 7.673800751378689711e+01
1.305888865935892484e-01 7.573928015826712112e+01
1.316294354902546315e-01 7.863375754666168405e+01
1.326699843869200146e-01 8.270984825180440225e+01
1.337105332835853977e-01 8.568327480499768001e+01
1.347510821802507808e-01 8.625251236184172399e+01
1.357916310769161639e-01 8.666249847274532669e+01
1.368321799735815469e-01 8.318256513764576709e+01
1.378727288702469300e-01 6.880877283374630338e+01
1.389132777669123131e-01 5.301981411618458395e+01
1.399538266635776962e-01 4.378590198148297929e+01
1.409943755602430793e-01 3.896143273997419954e+01
1.420349244569084624e-01 3.660356406584048727e+01
1.430754733535738454e-01 3.521491490662612023e+01
1.441160222502392285e-01 3.451539497700740355e+01
1.451565711469046116e-01 3.469878528355125979e+01
1.461971200435699947e-01 3.599254797228293512e+01
1.472376689402353778e-01 3.789057803564755034e+01
1.482782178369007609e-01 4.129707142891776073e+01
1.493187667335661439e-01 4.480936758080120086e+01
1.503593156302315270e-01 4.420429045382925892e+01
1.513998645268969101e-01 4.010609717430453713e+01
1.524404134235622932e-01 3.697335542733688385e+01
1.534809623202276763e-01 3.432021683732438078e+01
1.545215112168930593e-01 3.338005668233788725e+01
1.555620601135584424e-01 3.353746151532651254e+01
1.566026090102238255e-01 3.373709334416486172e+01
1.576431579068892086e-01 3.436956217945822800e+01
1.586837068035545917e-01 3.404326945028846296e+01
1.597242557002199748e-01 3.286865030394536547e+01
1.607648045968853578e-01 2.965810166658621938e+01
1.618053534935507409e-01 2.782454967873443508e+01
1.628459023902161240e-01 2.664299771816506279e+01
1.638864512868815071e-01 2.586539574782884188e+01
1.649270001835468902e-01 2.566059914489540716e+01
1.659675490802122733e-01 2.534566589079325638e+01
1.670080979768776563e-01 2.483444438130285192e+01
1.680486468735430672e-01 2.437203598736849841e+01
1.690891957702084503e-01 2.383131995295576644e+01
1.701297446668738333e-01 2.314407510091782427e+01
1.711702935635392164e-01 2.274615749214466831e+01
1.722108424602045995e-01 2.238836374599656409e+01
1.732513913568699826e-01 2.193638280352329417e+01
1.742919402535353657e-01 2.142281839239911534e+01
1.753324891502007488e-01 2.081760450444127741e+01
1.763730380468661318e-01 2.088570301220806158e+01
1.774135869435315149e-01 2.125959977426485636e+01
1.784541358401968980e-01 2.253468586686391006e+01
1.794946847368622811e-01 2.422990503152190911e+01
1.805352336335276642e-01 2.536439640044512345e+01
1.815757825301930473e-01 2.562740210171217115e+01
1.826163314268584303e-01 2.408634754710752901e+01
1.836568803235238134e-01 2.216957691234757277e+01
1.846974292201891965e-01 2.017466963405464497e+01
1.857379781168545796e-01 1.806844154048889095e+01
1.867785270135199627e-01 1.654046191853602465e+01
1.878190759101853458e-01 1.565901826999360935e+01
1.888596248068507288e-01 1.458078689560983321e+01
1.899001737035161119e-01 1.451697988388852423e+01
1.909407226001814950e-01 1.434879403205752624e+01
1.919812714968468781e-01 1.383761916478515985e+01
1.930218203935122612e-01 1.347887927591717983e+01
1.940623692901776443e-01 1.357564805309874600e+01
1.951029181868430273e-01 1.298864482122205288e+01
1.961434670835084104e-01 1.199437941368029215e+01
1.971840159801737935e-01 1.205002886256514216e+01
1.982245648768391766e-01 1.188823454947964819e+01
1.992651137735045597e-01 1.210298947443460094e+01
2.003056626701699428e-01 1.212619291087622742e+01
2.013462115668353813e-01 1.166899288687447012e+01
2.023867604635007644e-01 1.137949049572651461e+01
2.034273093601661475e-01 1.056275988982577019e+01
2.044678582568315306e-01 9.561225387420279276e+00
2.055084071534969137e-01 8.742811914302869525e+00
2.065489560501622968e-01 8.329800784578146988e+00
2.075895049468276798e-01 8.235449235865104356e+00
2.086300538434930629e-01 7.928976965286452128e+00
2.096706027401584460e-01 7.412064317169729577e+00
2.107111516368238291e-01 7.465724031326526955e+00
2.117517005334892122e-01 7.472062126654197556e+00
2.127922494301545953e-01 7.308289016799875526e+00
2.138327983268199783e-01 7.189802481800739997e+00
2.148733472234853614e-01 6.787355342685373216e+00
2.159138961201507445e-01 6.705763074550652902e+00
2.169544450168161276e-01 6.623629695041586274e+00
2.179949939134815107e-01 6.977272160160651993e+00
2.190355428101468938e-01 6.760685701149093063e+00
2.200760917068122768e-01 6.268780440340805171e+00
2.211166406034776599e-01 6.469495430368784383e+00
2.221571895001430430e-01 6.666398764896651841e+00
2.231977383968084261e-01 6.621102032694412998e+00
2.242382872934738092e-01 6.506864210885911604e+00
2.252788361901391923e-01 6.363622790044193067e+00
2.263193850868045753e-01 6.868679107134916251e+00
2.273599339834699584e-01 6.831877029032121129e+00
2.284004828801353415e-01 6.761556096988080355e+00
2.294410317768007246e-01 7.037507973670514616e+00
2.304815806734661077e-01 6.888788399724113276e+00
2.315221295701314908e-01 7.096888305782936612e+00
2.325626784667968738e-01 7.362783362811629928e+00
2.336032273634622569e-01 7.153670528558436104e+00
2.346437762601276400e-01 7.157225531887061010e+00
2.356843251567930231e-01 6.854201324796257211e+00
2.367248740534584062e-01 6.497799734857888865e+00
2.377654229501237892e-01 5.887200085785785575e+00
2.388059718467891723e-01 5.441494903241405723e+00
2.398465207434545554e-01 5.156153919291469379e+00
2.408870696401199385e-01 5.088575223320283669e+00
2.419276185367853216e-01 5.056465596254817285e+00
2.429681674334507047e-01 4.620969370474512061e+00
2.440087163301160877e-01 4.469479318647277211e+00
2.450492652267814708e-01 4.857148218912431759e+00
2.460898141234468539e-01 4.722015103999911645e+00
2.471303630201122370e-01 4.251046593620682046e+00
2.481709119167776201e-01 4.348230187687448733e+00
2.492114608134430032e-01 4.494043464235787155e+00
2.502520097101083585e-01 4.518815688682476406e+00
2.512925586067737416e-01 4.524345191179872216e+00
2.523331075034391247e-01 4.382343340819929267e+00
2.533736564001045077e-01 4.132785331552454977e+00
2.544142052967698908e-01 3.775976302752560798e+00
2.554547541934352739e-01 3.502143288929286058e+00
2.564953030901006570e-01 3.702322836259646976e+00
2.575358519867660401e-01 3.578750988872208438e+00
2.585764008834314231e-01 3.321399281397109604e+00
2.596169497800968062e-01 3.329690829330505863e+00
2.606574986767621893e-01 3.380039603989306585e+00
2.616980475734275724e-01 3.297284978902222718e+00
2.627385964700929555e-01 3.084806264027623257e+00
2.637791453667583386e-01 2.612881526139801736e+00
2.648196942634237216e-01 2.700457860089606754e+00
2.658602431600891047e-01 2.767432618214368034e+00
2.669007920567544878e-01 2.915580420280090124e+00
2.679413409534198709e-01 2.866475800134910656e+00
2.689818898500852540e-01 3.004628456541851733e+00
2.700224387467506371e-01 3.125941622257471408e+00
2.710629876434160201e-01 2.814057838445872761e+00
2.721035365400814032e-01 2.705606144769003407e+00
2.731440854367467863e-01 2.742139898346390936e+00
2.741846343334121694e-01 2.937593009723407533e+00
2.752251832300775525e-01 2.951472773128362093e+00
2.762657321267429356e-01 3.155161703308468901e+00
2.773062810234083186e-01 3.152743533867294445e+00
2.783468299200737017e-01 3.209725484745266755e+00
2.793873788167390848e-01 3.276855673037381678e+00
2.804279277134044679e-01 3.357076264443453084e+00
2.814684766100698510e-01 2.950596161258527417e+00
2.825090255067352341e-01 2.884080905348511692e+00
2.835495744034006171e-01 2.872635070282651526e+00
2.845901233000660002e-01 2.546355701240671010e+00
2.856306721967313833e-01 2.514320919791131814e+00
2.866712210933967664e-01 2.556863025776777931e+00
2.877117699900621495e-01 2.666863781266819444e+00
2.887523188867275326e-01 2.607338522010969939e+00
2.897928677833929156e-01 2.576636626536330965e+00
2.908334166800582987e-01 2.426448725409041884e+00
2.918739655767236818e-01 2.645865949670362482e+00
2.929145144733890649e-01 2.612645605980951302e+00
2.939550633700544480e-01 2.465098273653921979e+00
2.949956122667198311e-01 2.394131206926765287e+00
2.960361611633852141e-01 2.231941501446559784e+00
2.970767100600505972e-01 2.275539029950451209e+00
2.981172589567159803e-01 2.150473410145295361e+00
2.991578078533813634e-01 2.306262658705030333e+00
3.001983567500468020e-01 2.396019963140741282e+00
3.012389056467121851e-01 2.286607548927875655e+00
3.022794545433775681e-01 1.917871051814035610e+00
3.033200034400429512e-01 2.066548681096186613e+00
3.043605523367083343e-01 2.304415658928228083e+00
3.054011012333737174e-01 2.403210514272686282e+00
3.064416501300391005e-01 2.398987386467368310e+00
3.074821990267044836e-01 2.288335928819623888e+00
3.085227479233698666e-01 2.057531337357524137e+00
3.095632968200352497e-01 2.020990822119369312e+00
3.106038457167006328e-01 1.992454818973516950e+00
3.116443946133660159e-01 1.811666735079967339e+00
3.126849435100313990e-01 1.476954603313863856e+00
3.137254924066967821e-01 1.672066414273800206e+00
3.147660413033621651e-01 1.627781615849734465e+00
3.158065902000275482e-01 1.649295974107264584e+00
3.168471390966929313e-01 1.778425721271720050e+00
3.178876879933583144e-01 1.773594005891791170e+00
3.189282368900236975e-01 1.555801012339976808e+00
3.199687857866890806e-01 1.542443016202486916e+00
3.210093346833544636e-01 1.638270184187945233e+00
3.220498835800198467e-01 1.684969138167733860e+00
3.230904324766852298e-01 1.675632126790606691e+00
3.241309813733506129e-01 1.513759593266644998e+00
3.251715302700159960e-01 1.589179679595652317e+00
3.262120791666813790e-01 1.823137725169171830e+00
3.272526280633467621e-01 1.846815154854404284e+00
3.282931769600121452e-01 1.923313106427283259e+00
3.293337258566775283e-01 2.009907354183098960e+00
3.303742747533429114e-01 1.921688448022415230e+00
3.314148236500082945e-01 1.978651722081160358e+00
3.324553725466736775e-01 1.792529583643741375e+00
3.334959214433390606e-01 1.805671443693288580e+00
3.345364703400044437e-01 1.744039369094679159e+00
3.355770192366698268e-01 1.850535792376227562e+00
3.366175681333352099e-01 1.829297084443421539e+00
3.376581170300005930e-01 1.628232517710685556e+00
3.386986659266659760e-01 1.552369815896518901e+00
3.397392148233313591e-01 1.727500754406015915e+00
3.407797637199967422e-01 1.690070893249249195e+00
3.418203126166621253e-01 1.565827293659967978e+00
3.428608615133275084e-01 1.704721016732463568e+00
3.439014104099928915e-01 1.748199278795464551e+00
3.449419593066582745e-01 1.522831809571293604e+00
3.459825082033236576e-01 1.444749729591546128e+00
3.470230570999890407e-01 1.477583335184576185e+00
3.480636059966544238e-01 1.785732627205860013e+00
3.491041548933198069e-01 1.532093255849265034e+00
3.501447037899851900e-01 1.443265160311366202e+00
3.511852526866505730e-01 1.483496104832394025e+00
3.522258015833159561e-01 1.455430315225360260e+00
3.532663504799813392e-01 1.450549648112744450e+00
3.543068993766467223e-01 1.361059743267233557e+00
3.553474482733121054e-01 1.265702294956678742e+00
3.563879971699774885e-01 1.099291044209653734e+00
3.574285460666428715e-01 1.087181682075708977e+00
3.584690949633082546e-01 1.258688280536286896e+00
3.595096438599736377e-01 1.285892259833953943e+00
3.605501927566390208e-01 1.114565199042587551e+00
3.615907416533044039e-01 8.792649955561770980e-01
3.626312905499697870e-01 1.039506630446421553e+00
3.636718394466351700e-01 1.164101572666805140e+00
3.647123883433005531e-01 1.193715464555157979e+00
3.657529372399659362e-01 1.170918518153346355e+00
3.667934861366313193e-01 1.190358765062718760e+00
3.678340350332967024e-01 1.118084127779194858e+00
3.688745839299620854e-01 1.310599289554811975e+00
3.699151328266274685e-01 1.187368811044638761e+00
3.709556817232928516e-01 1.024643354450265775e+00
3.719962306199582347e-01 9.699722594397499620e-01
3.730367795166236178e-01 1.088535070941027527e+00
3.740773284132890009e-01 1.120239311278908190e+00
3.751178773099543839e-01 1.099358234168573034e+00
3.761584262066197670e-01 1.033839372333627438e+00
3.771989751032851501e-01 1.107012492708104645e+00
3.782395239999505332e-01 1.223158282566817689e+00
3.792800728966159163e-01 1.213819992871403741e+00
3.803206217932812994e-01 1.549334903995799095e+00
3.813611706899466824e-01 1.275760682609462293e+00
3.824017195866120655e-01 1.127710932264626820e+00
3.834422684832774486e-01 1.336249568071838922e+00
3.844828173799428317e-01 1.307306368639828520e+00
3.855233662766082148e-01 1.217365275230715582e+00
3.865639151732735979e-01 1.238728330841396996e+00
3.876044640699389809e-01 1.190353050462128692e+00
3.886450129666043640e-01 1.158385133449090887e+00
3.896855618632697471e-01 1.375719465099727756e+00
3.907261107599351302e-01 1.346901294402861993e+00
3.917666596566005133e-01 1.193284090031184519e+00
3.928072085532658964e-01 1.242554655931918717e+00
3.938477574499312794e-01 1.043701686206851775e+00
3.948883063465966625e-01 1.188502159781972267e+00
3.959288552432620456e-01 1.132335789101645673e+00
3.969694041399274287e-01 9.298367474455098147e-01
3.980099530365928118e-01 1.132260026111893580e+00
3.990505019332581949e-01 1.324980822473332154e+00
4.000910508299235779e-01 1.082055951043717101e+00
4.011315997265889610e-01 9.808412894218712097e-01
4.021721486232543441e-01 1.054796562908101976e+00
4.032126975199197272e-01 9.804079091709283489e-01
4.042532464165851103e-01 1.015572703291507395e+00
4.052937953132504934e-01 8.411320334922116615e-01
4.063343442099158764e-01 9.763763106840954720e-01
4.073748931065812595e-01 1.202410114115757267e+00
4.084154420032466426e-01 9.550761559083404961e-01
4.094559908999120257e-01 7.536764914155789086e-01
4.104965397965774088e-01 7.811126965885080153e-01
4.115370886932427918e-01 9.236138520769081595e-01
4.125776375899081749e-01 8.603035678805674991e-01
4.136181864865735580e-01 7.543173060342844849e-01
4.146587353832389411e-01 8.457726373196088332e-01
4.156992842799043242e-01 9.926336690428776421e-01
4.167398331765697073e-01 1.036811671211115282e+00
4.177803820732350903e-01 8.981442240302577318e-01
4.188209309699004734e-01 9.027090199142797644e-01
4.198614798665658565e-01 7.803258944082678283e-01
4.209020287632312396e-01 7.128370253932629907e-01
4.219425776598966227e-01 6.709252946283399410e-01
4.229831265565620058e-01 7.879705560151464283e-01
4.240236754532273888e-01 9.261951138542308115e-01
4.250642243498927719e-01 7.524148740816229974e-01
4.261047732465581550e-01 8.276797499499828348e-01
4.271453221432235381e-01 8.630918636899735930e-01
4.281858710398889212e-01 7.939994770071976404e-01
4.292264199365543043e-01 8.791866539639165978e-01
4.302669688332196873e-01 8.083838671188843250e-01
4.313075177298850704e-01 7.391758501864877928e-01
4.323480666265504535e-01 6.626719270142693574e-01
4.333886155232158366e-01 6.127523489211483820e-01
4.344291644198812197e-01 6.857978913216058459e-01
