# q (1/Angstrom), Intensity (arb)
2.029070354705860696e-02 6.695776775050887863e+02
2.133125244372399004e-02 5.852807853673912177e+02
2.237180134038937659e-02 5.218978135928319944e+02
2.341235023705475968e-02 4.721135620672847040e+02
2.445289913372014276e-02 4.332119447707752329e+02
2.549344803038552584e-02 3.963190846885165683e+02
2.653399692705091240e-02 3.658737625061466474e+02
2.757454582371629548e-02 3.395872747547645645e+02
2.861509472038167856e-02 3.189429519898406511e+02
2.965564361704706164e-02 3.035701239433193450e+02
3.069619251371244473e-02 2.894862493782120509e+02
3.173674141037782781e-02 2.755702454384817202e+02
3.277729030704321089e-02 2.637043010488535515e+02
3.381783920370859398e-02 2.571040179685959401e+02
3.485838810037397706e-02 2.546959377550506645e+02
3.589893699703936014e-02 2.506963800907794280e+02
3.693948589370474322e-02 2.484239610615604192e+02
3.798003479037012631e-02 2.464406431730525640e+02
3.902058368703550939e-02 2.448813622211161487e+02
4.006113258370089247e-02 2.465591867638734129e+02
4.110168148036627556e-02 2.488215272655979220e+02
4.214223037703165864e-02 2.535575089025484488e+02
4.318277927369704866e-02 2.569829191242308184e+02
4.422332817036243174e-02 2.655031209490493893e+02
4.526387706702781483e-02 2.763224220014445223e+02
4.630442596369319791e-02 2.908495561899933364e+02
4.734497486035858099e-02 3.137766463772431393e+02
4.838552375702396408e-02 3.434178385411994441e+02
4.942607265368934716e-02 3.858005313656237263e+02
5.046662155035473024e-02 4.615986973401979867e+02
5.150717044702011332e-02 6.188805153247836870e+02
5.254771934368549641e-02 9.195568009184315770e+02
5.358826824035087949e-02 1.389800477111623422e+03
5.462881713701626257e-02 2.134710727611113725e+03
5.566936603368164566e-02 3.182625216649740196e+03
5.670991493034702874e-02 3.579927181128389748e+03
5.775046382701241182e-02 2.848611445037625799e+03
5.879101272367779490e-02 2.128316700488556762e+03
5.983156162034317799e-02 1.887347500964563096e+03
6.087211051700856107e-02 1.867108949175217276e+03
6.191265941367394415e-02 1.924057936086023119e+03
6.295320831033933417e-02 2.007906205061309493e+03
6.399375720700471726e-02 2.083644308890262437e+03
6.503430610367010034e-02 2.094592966312160570e+03
6.607485500033548342e-02 2.010964174072922560e+03
6.711540389700086651e-02 1.892867210679596838e+03
6.815595279366624959e-02 1.776788701004616541e+03
6.919650169033163267e-02 1.655309890307527439e+03
7.023705058699701576e-02 1.526032195861624359e+03
7.127759948366239884e-02 1.389699897650293678e+03
7.231814838032778192e-02 1.250156830063488542e+03
7.335869727699316500e-02 1.111264806205274908e+03
7.439924617365854809e-02 9.796167094243073734e+02
7.543979507032393117e-02 8.559765240299110474e+02
7.648034396698931425e-02 7.450047444142614950e+02
7.752089286365469734e-02 6.414465726745972916e+02
7.856144176032008042e-02 5.479162996481218215e+02
7.960199065698546350e-02 4.690903672659877088e+02
8.064253955365084658e-02 3.989179000762632086e+02
8.168308845031622967e-02 3.387842278304870547e+02
8.272363734698161275e-02 2.887559497210759787e+02
8.376418624364699583e-02 2.458466841983590996e+02
8.480473514031239279e-02 2.108115228959254068e+02
8.584528403697777588e-02 1.835418042194699524e+02
8.688583293364315896e-02 1.608615180361751129e+02
8.792638183030854204e-02 1.474499890855231854e+02
8.896693072697392513e-02 1.458065260898847555e+02
9.000747962363930821e-02 1.666770784678671475e+02
9.104802852030469129e-02 2.129329140386331858e+02
9.208857741697007437e-02 2.436840195928675712e+02
9.312912631363545746e-02 2.121590738783804682e+02
9.416967521030084054e-02 1.546509874070549984e+02
9.521022410696622362e-02 1.185198322832006852e+02
9.625077300363160671e-02 1.022647905695971247e+02
9.729132190029698979e-02 9.562034917060688599e+01
9.833187079696237287e-02 9.255581999302853546e+01
9.937241969362775595e-02 9.226153113136081174e+01
1.004129685902931390e-01 9.431354538652601605e+01
1.014535174869585221e-01 9.757565186380219302e+01
1.024940663836239052e-01 1.017432954060196835e+02
1.035346152802892883e-01 1.093968580698287667e+02
1.045751641769546714e-01 1.268985374696289767e+02
1.056157130736200545e-01 1.612154547500539366e+02
1.066562619702854375e-01 2.126541003403479237e+02
1.076968108669508206e-01 2.525870512533331009e+02
1.087373597636162037e-01 2.391926780976820055e+02
1.097779086602815868e-01 1.895918430281547842e+02
1.108184575569469699e-01 1.544519364187380006e+02
1.118590064536123529e-01 1.417588025342295452e+02
1.128995553502777360e-01 1.341679238129734699e+02
1.139401042469431191e-01 1.209934360579165400e+02
1.149806531436085022e-01 1.078401760923120491e+02
1.160212020402738853e-01 1.015131381238367680e+02
1.170617509369392684e-01 9.938521389503623027e+01
1.181022998336046514e-01 9.907370782469520520e+01
1.191428487302700345e-01 9.974800954706128664e+01
1.201833976269354176e-01 1.005156907432508433e+02
1.212239465236008007e-01 1.012293156596942936e+02
1.222644954202661838e-01 1.008864378882475421e+02
1.233050443169315669e-01 1.003093313270568103e+02
1.243455932135969499e-01 9.880973471045061274e+01
1.253861421102623330e-01 9.692423551714095709e+01
1.264266910069277161e-01 9.465625053951501400e+01
1.274672399035930992e-01 9.187263759612815761e+01
1.285077888002584823e-01 8.838438687807919791e+01
1.295483376969238654e-01 8.462190548004181778e+01
1.305888865935892484e-01 8.043053780378036777e+01
1.316294354902546315e-01 7.646140762456781204e+01
1.326699843869200146e-01 7.205074935055699825e+01
1.337105332835853977e-01 6.757343142634724131e+01
1.347510821802507808e-01 6.325864818132933465e+01
1.357916310769161639e-01 5.970490798407082167e+01
1.368321799735815469e-01 5.631478238950379023e+01
1.378727288702469300e-01 5.391562551162969896e+01
1.389132777669123131e-01 5.277030064447296809e+01
1.399538266635776962e-01 5.405037012436438459e+01
1.409943755602430793e-01 5.552282044789263438e+01
1.420349244569084624e-01 5.740962992156582345e+01
1.430754733535738454e-01 5.839936644164002644e+01
1.441160222502392285e-01 5.890052074316265163e+01
1.451565711469046116e-01 5.876904507465405203e+01
1.461971200435699947e-01 5.374841922300362285e+01
1.472376689402353778e-01 4.450278068529283360e+01
1.482782178369007609e-01 3.551316053694451824e+01
1.493187667335661439e-01 3.037909397224601094e+01
1.503593156302315270e-01 2.737298813670101794e+01
1.513998645268969101e-01 2.538613710751072006e+01
1.524404134235622932e-01 2.444964619845585929e+01
1.534809623202276763e-01 2.341941864205347201e+01
1.545215112168930593e-01 2.329913324610981817e+01
1.555620601135584424e-01 2.388602448226053809e+01
1.566026090102238255e-01 2.513716678391785564e+01
1.576431579068892086e-01 2.657002660265455773e+01
1.586837068035545917e-01 2.805606609125020157e+01
1.597242557002199748e-01 2.854466786975437742e+01
1.607648045968853578e-01 2.657123752074710410e+01
1.618053534935507409e-01 2.385021620856991831e+01
1.628459023902161240e-01 2.147733429597560928e+01
1.638864512868815071e-01 2.035608914975769324e+01
1.649270001835468902e-01 2.013123859717938302e+01
1.659675490802122733e-01 1.977246885498130524e+01
1.670080979768776563e-01 1.961386504616140058e+01
1.680486468735430672e-01 2.031695825873271133e+01
1.690891957702084503e-01 2.046447454801550947e+01
1.701297446668738333e-01 1.905282099845123867e+01
1.711702935635392164e-01 1.722124994554743438e+01
1.722108424602045995e-01 1.615470274273923934e+01
1.732513913568699826e-01 1.590271603050276639e+01
1.742919402535353657e-01 1.500678105603528678e+01
1.753324891502007488e-01 1.475569646171193483e+01
1.763730380468661318e-01 1.434373364382346239e+01
1.774135869435315149e-01 1.390361973975180376e+01
1.784541358401968980e-01 1.380542447898105252e+01
1.794946847368622811e-01 1.367817293523561517e+01
1.805352336335276642e-01 1.330742474344111770e+01
1.815757825301930473e-01 1.313980850442450077e+01
1.826163314268584303e-01 1.306944618803920832e+01
1.836568803235238134e-01 1.312449223733391790e+01
1.846974292201891965e-01 1.286588040732168281e+01
1.857379781168545796e-01 1.253199205401871552e+01
1.867785270135199627e-01 1.255545916440978971e+01
1.878190759101853458e-01 1.217612736547535235e+01
1.888596248068507288e-01 1.223801618628676380e+01
1.899001737035161119e-01 1.262503604494722254e+01
1.909407226001814950e-01 1.373099532072014028e+01
1.919812714968468781e-01 1.439891925564866781e+01
1.930218203935122612e-01 1.490641497297335860e+01
1.940623692901776443e-01 1.489604620136685043e+01
1.951029181868430273e-01 1.412956850077065241e+01
1.961434670835084104e-01 1.270770322599872770e+01
1.971840159801737935e-01 1.160763863479834157e+01
1.982245648768391766e-01 1.096829305103294416e+01
1.992651137735045597e-01 1.003409364296567929e+01
2.003056626701699428e-01 9.657077078421032468e+00
2.013462115668353813e-01 9.714078250206121368e+00
2.023867604635007644e-01 9.571764308487523465e+00
2.034273093601661475e-01 9.654265844620283588e+00
2.044678582568315306e-01 9.198336235955661522e+00
2.055084071534969137e-01 9.175108887636451271e+00
2.065489560501622968e-01 8.664862154882449374e+00
2.075895049468276798e-01 8.517747756944970661e+00
2.086300538434930629e-01 8.097656479456539103e+00
2.096706027401584460e-01 8.027976224320266141e+00
2.107111516368238291e-01 7.988875987420538394e+00
2.117517005334892122e-01 8.067531990689246868e+00
2.127922494301545953e-01 8.387529202099656800e+00
2.138327983268199783e-01 8.111219404144154765e+00
2.148733472234853614e-01 7.912572357507993814e+00
2.159138961201507445e-01 7.670616941586228421e+00
2.169544450168161276e-01 7.045374506537733339e+00
2.179949939134815107e-01 6.474972329915058111e+00
2.190355428101468938e-01 5.602038626331882654e+00
2.200760917068122768e-01 5.311137900877170637e+00
2.211166406034776599e-01 5.323018473030877828e+00
2.221571895001430430e-01 5.044585237024271862e+00
2.231977383968084261e-01 4.713709194298846938e+00
2.242382872934738092e-01 4.754473910201923559e+00
2.252788361901391923e-01 5.006112398951781728e+00
2.263193850868045753e-01 4.930548814851196227e+00
2.273599339834699584e-01 4.753947182733877952e+00
2.284004828801353415e-01 4.639596353341964630e+00
2.294410317768007246e-01 4.345314929728726128e+00
2.304815806734661077e-01 4.047514709457153970e+00
2.315221295701314908e-01 4.186293293280115790e+00
2.325626784667968738e-01 4.059250523117437837e+00
2.336032273634622569e-01 3.985721974013607394e+00
2.346437762601276400e-01 4.161509960884114179e+00
2.356843251567930231e-01 4.043067593929688286e+00
2.367248740534584062e-01 4.015839688613276337e+00
2.377654229501237892e-01 3.945716147893968184e+00
2.388059718467891723e-01 4.213904773435967144e+00
2.398465207434545554e-01 4.384344073277947729e+00
2.408870696401199385e-01 4.523211059709129955e+00
2.419276185367853216e-01 4.393728567770679660e+00
2.429681674334507047e-01 4.340275237647311712e+00
2.440087163301160877e-01 4.832416039534045638e+00
2.450492652267814708e-01 4.645403166073620582e+00
2.460898141234468539e-01 4.062950136196970874e+00
2.471303630201122370e-01 4.173855750371462392e+00
2.481709119167776201e-01 4.542464672405888138e+00
2.492114608134430032e-01 4.729994335760661528e+00
2.502520097101083585e-01 4.818628572720118797e+00
2.512925586067737416e-01 4.707422261151428700e+00
2.523331075034391247e-01 4.184236517247839515e+00
2.533736564001045077e-01 3.920888744223731237e+00
2.544142052967698908e-01 3.941351589795267785e+00
2.554547541934352739e-01 3.703711322142797968e+00
2.564953030901006570e-01 3.503648744774686463e+00
2.575358519867660401e-01 3.414834781213805570e+00
2.585764008834314231e-01 3.288200963622511352e+00
2.596169497800968062e-01 3.102789145808337423e+00
2.606574986767621893e-01 3.213486444127834574e+00
2.616980475734275724e-01 3.414588831367563415e+00
2.627385964700929555e-01 3.450132589948292861e+00
2.637791453667583386e-01 3.195592908512722374e+00
2.648196942634237216e-01 3.179830280217771588e+00
2.658602431600891047e-01 3.498239158791260905e+00
2.669007920567544878e-01 3.573224994732719040e+00
2.679413409534198709e-01 3.570159869203305192e+00
2.689818898500852540e-01 3.547289782549587045e+00
2.700224387467506371e-01 3.633613725550311813e+00
2.710629876434160201e-01 3.381853139188198298e+00
2.721035365400814032e-01 3.154775535411182830e+00
2.731440854367467863e-01 3.003431846371089620e+00
2.741846343334121694e-01 2.812201125159937476e+00
2.752251832300775525e-01 2.794139833081242585e+00
2.762657321267429356e-01 3.005531391548643683e+00
2.773062810234083186e-01 3.010204774754456025e+00
2.783468299200737017e-01 2.658062329994539397e+00
2.793873788167390848e-01 2.534689834116537810e+00
2.804279277134044679e-01 2.517502416761004724e+00
2.814684766100698510e-01 2.151814336685081486e+00
2.825090255067352341e-01 2.175925723666612299e+00
2.835495744034006171e-01 2.269650708683958129e+00
2.845901233000660002e-01 1.945369746915805109e+00
2.856306721967313833e-01 2.202594228752356997e+00
2.866712210933967664e-01 2.367727237433502552e+00
2.877117699900621495e-01 2.252441318718943819e+00
2.887523188867275326e-01 1.988158409494680257e+00
2.897928677833929156e-01 1.996546695876730837e+00
2.908334166800582987e-01 2.257701891030659880e+00
2.918739655767236818e-01 2.540291661243205823e+00
2.929145144733890649e-01 2.375492228632545277e+00
2.939550633700544480e-01 2.264705005527442694e+00
2.949956122667198311e-01 2.449774547593513319e+00
2.960361611633852141e-01 2.397566465663079072e+00
2.970767100600505972e-01 2.114886436189788554e+00
2.981172589567159803e-01 2.037936941659918233e+00
2.991578078533813634e-01 2.207758796509786237e+00
3.001983567500468020e-01 2.178864636313655012e+00
3.012389056467121851e-01 2.112004589835592583e+00
3.022794545433775681e-01 2.109935081763012477e+00
3.033200034400429512e-01 2.268712260811643233e+00
3.043605523367083343e-01 2.198407291665944285e+00
3.054011012333737174e-01 2.269860303457196693e+00
3.064416501300391005e-01 2.234901721728608237e+00
3.074821990267044836e-01 2.435237821962818572e+00
3.085227479233698666e-01 2.442777548295879342e+00
3.095632968200352497e-01 2.492294371142648401e+00
3.106038457167006328e-01 2.050582925289155867e+00
3.116443946133660159e-01 2.213480830176560943e+00
3.126849435100313990e-01 2.434814760461009087e+00
3.137254924066967821e-01 2.281495623625001912e+00
3.147660413033621651e-01 2.270195911411196477e+00
3.158065902000275482e-01 2.247987528995547990e+00
3.168471390966929313e-01 2.247504961891088726e+00
3.178876879933583144e-01 2.074876355408701301e+00
3.189282368900236975e-01 1.899977132285744830e+00
3.199687857866890806e-01 1.915525893705847693e+00
3.210093346833544636e-01 1.926075152928110157e+00
3.220498835800198467e-01 1.966786626953769712e+00
3.230904324766852298e-01 2.085280950773888975e+00
3.241309813733506129e-01 1.942834744455314677e+00
3.251715302700159960e-01 1.897925561719269183e+00
3.262120791666813790e-01 2.086964434439870786e+00
3.272526280633467621e-01 1.858659960613049833e+00
3.282931769600121452e-01 1.692968704233006605e+00
3.293337258566775283e-01 1.920173824318187172e+00
3.303742747533429114e-01 1.904045754989397210e+00
3.314148236500082945e-01 1.851432111411860149e+00
3.324553725466736775e-01 1.647467218688237978e+00
3.334959214433390606e-01 1.604638913106331444e+00
3.345364703400044437e-01 1.637204325899244139e+00
3.355770192366698268e-01 1.456778946142691211e+00
3.366175681333352099e-01 1.651636669746352482e+00
3.376581170300005930e-01 1.782752082268412863e+00
3.386986659266659760e-01 1.691197366278093028e+00
3.397392148233313591e-01 1.628131164966887923e+00
3.407797637199967422e-01 1.626600365106977364e+00
3.418203126166621253e-01 1.613913200574614848e+00
3.428608615133275084e-01 1.639712044111639955e+00
3.439014104099928915e-01 1.529773352223958938e+00
3.449419593066582745e-01 1.614887398838476429e+00
3.459825082033236576e-01 1.450893579141613543e+00
3.470230570999890407e-01 1.413144775747593229e+00
3.480636059966544238e-01 1.606189054639383329e+00
3.491041548933198069e-01 1.568758896555387139e+00
3.501447037899851900e-01 1.527122743591711185e+00
3.511852526866505730e-01 1.530314257516842247e+00
3.522258015833159561e-01 1.728706494228596569e+00
3.532663504799813392e-01 1.704000316815935889e+00
3.543068993766467223e-01 1.665509951845823622e+00
3.553474482733121054e-01 1.646555445434056963e+00
3.563879971699774885e-01 1.621278035126053396e+00
3.574285460666428715e-01 1.613032450113745853e+00
3.584690949633082546e-01 1.439270757183496841e+00
3.595096438599736377e-01 1.429365598201723486e+00
3.605501927566390208e-01 1.504058589854537331e+00
3.615907416533044039e-01 1.484309329090137908e+00
3.626312905499697870e-01 1.507057890411953593e+00
3.636718394466351700e-01 1.764767013292324549e+00
3.647123883433005531e-01 1.728513268270571501e+00
3.657529372399659362e-01 1.446433874894577087e+00
3.667934861366313193e-01 1.419885682544105521e+00
3.678340350332967024e-01 1.354199258293665054e+00
3.688745839299620854e-01 1.549152664995904871e+00
3.699151328266274685e-01 1.883023573452867083e+00
3.709556817232928516e-01 1.846599563183556114e+00
3.719962306199582347e-01 1.780158344473424137e+00
3.730367795166236178e-01 1.730366031224363610e+00
3.740773284132890009e-01 1.604490569347881035e+00
3.751178773099543839e-01 1.502198595748907906e+00
3.761584262066197670e-01 1.577760822106540672e+00
3.771989751032851501e-01 1.658841218400585404e+00
3.782395239999505332e-01 1.668583320566774830e+00
3.792800728966159163e-01 1.474741736214749466e+00
3.803206217932812994e-01 1.459266691738065447e+00
3.813611706899466824e-01 1.541000683718532827e+00
3.824017195866120655e-01 1.549418485762245723e+00
3.834422684832774486e-01 1.370946300167876331e+00
3.844828173799428317e-01 1.457021709227081629e+00
3.855233662766082148e-01 1.586662364401565384e+00
3.865639151732735979e-01 1.428709575954005828e+00
3.876044640699389809e-01 1.164612986579388831e+00
3.886450129666043640e-01 1.027667517166392486e+00
3.896855618632697471e-01 1.059522441961565420e+00
3.907261107599351302e-01 1.191884415003102049e+00
3.917666596566005133e-01 1.156107320115737025e+00
3.928072085532658964e-01 1.232047294874977439e+00
3.938477574499312794e-01 1.295640216341428896e+00
3.948883063465966625e-01 1.266140483315989940e+00
3.959288552432620456e-01 1.412921704708420378e+00
3.969694041399274287e-01 1.562844747566160208e+00
3.980099530365928118e-01 1.612793173255045787e+00
3.990505019332581949e-01 1.570393038397753571e+00
4.000910508299235779e-01 1.480828607896206961e+00
4.011315997265889610e-01 1.052439368344543880e+00
4.021721486232543441e-01 1.302965150101805136e+00
4.032126975199197272e-01 1.458260564114688407e+00
4.042532464165851103e-01 1.342452042344234542e+00
4.052937953132504934e-01 1.274535307480491042e+00
4.063343442099158764e-01 1.156563032787051526e+00
4.073748931065812595e-01 1.163460195839093103e+00
4.084154420032466426e-01 1.212750989069078855e+00
4.094559908999120257e-01 1.140481729264823940e+00
4.104965397965774088e-01 1.198947392248697952e+00
4.115370886932427918e-01 1.205053457155706553e+00
4.125776375899081749e-01 1.013239154688925225e+00
4.136181864865735580e-01 1.350763361986082600e+00
4.146587353832389411e-01 1.195546436719716610e+00
4.156992842799043242e-01 1.342931183922786431e+00
4.167398331765697073e-01 1.281535516310871259e+00
4.177803820732350903e-01 9.765747123003585273e-01
4.188209309699004734e-01 1.034896576822490033e+00
4.198614798665658565e-01 1.143780299236563991e+00
4.209020287632312396e-01 1.048499492268206268e+00
4.219425776598966227e-01 1.035258987431973310e+00
4.229831265565620058e-01 1.133791033973373885e+00
4.240236754532273888e-01 1.219478163187442732e+00
4.250642243498927719e-01 1.175543694633937264e+00
4.261047732465581550e-01 1.066952080395850544e+00
4.271453221432235381e-01 1.036225828194940135e+00
4.281858710398889212e-01 1.102273308687543363e+00
4.292264199365543043e-01 1.128985605305533824e+00
4.302669688332196873e-01 9.998346645694304868e-01
4.313075177298850704e-01 9.035311081888224294e-01
4.323480666265504535e-01 8.684299575928022819e-01
4.333886155232158366e-01 9.180796988884480925e-01
4.344291644198812197e-01 9.801276991768972380e-01
