# q (1/Angstrom), Intensity (arb)
2.029070354705860696e-02 5.526164348957065613e+02
2.133125244372399004e-02 4.872836939371379117e+02
2.237180134038937659e-02 4.315571467775197902e+02
2.341235023705475968e-02 3.886329044697995414e+02
2.445289913372014276e-02 3.526045915828527768e+02
2.549344803038552584e-02 3.230214863340489160e+02
2.653399692705091240e-02 2.978158811589978541e+02
2.757454582371629548e-02 2.748246834615927128e+02
2.861509472038167856e-02 2.564687187794493184e+02
2.965564361704706164e-02 2.435394212518249901e+02
3.069619251371244473e-02 2.330354575259024728e+02
3.173674141037782781e-02 2.224281042269592490e+02
3.277729030704321089e-02 2.139961098686225682e+02
3.381783920370859398e-02 2.056472792019220606e+02
3.485838810037397706e-02 1.990075325157292241e+02
3.589893699703936014e-02 1.948307429405512892e+02
3.693948589370474322e-02 1.917726047017212636e+02
3.798003479037012631e-02 1.908217899664512629e+02
3.902058368703550939e-02 1.888144418948967314e+02
4.006113258370089247e-02 1.882785785660944100e+02
4.110168148036627556e-02 1.880676088749353880e+02
4.214223037703165864e-02 1.905325397384709163e+02
4.318277927369704866e-02 1.933141680333162924e+02
4.422332817036243174e-02 1.984848195659365899e+02
4.526387706702781483e-02 2.041874330413802738e+02
4.630442596369319791e-02 2.126428574551784720e+02
4.734497486035858099e-02 2.256994770997997648e+02
4.838552375702396408e-02 2.398281478421211261e+02
4.942607265368934716e-02 2.602867573264403518e+02
5.046662155035473024e-02 2.882488338406220691e+02
5.150717044702011332e-02 3.381098554083413319e+02
5.254771934368549641e-02 4.373444684554650621e+02
5.358826824035087949e-02 6.437430599202664325e+02
5.462881713701626257e-02 9.725309222084785006e+02
5.566936603368164566e-02 1.459538724271392311e+03
5.670991493034702874e-02 2.272961749158569091e+03
5.775046382701241182e-02 2.994230594257560824e+03
5.879101272367779490e-02 2.735570988071833199e+03
5.983156162034317799e-02 1.975393788387319091e+03
6.087211051700856107e-02 1.571021621965705435e+03
6.191265941367394415e-02 1.466235666983696774e+03
6.295320831033933417e-02 1.461354650347409233e+03
6.399375720700471726e-02 1.508850210463361009e+03
6.503430610367010034e-02 1.577243286619277796e+03
6.607485500033548342e-02 1.629455316363341353e+03
6.711540389700086651e-02 1.619987912618701785e+03
6.815595279366624959e-02 1.547690707866824368e+03
6.919650169033163267e-02 1.465031376310850419e+03
7.023705058699701576e-02 1.386637018816412365e+03
7.127759948366239884e-02 1.303822405330925903e+03
7.231814838032778192e-02 1.214996578004582716e+03
7.335869727699316500e-02 1.116614197175021218e+03
7.439924617365854809e-02 1.018352463825092059e+03
7.543979507032393117e-02 9.195469844152850101e+02
7.648034396698931425e-02 8.259347107606673717e+02
7.752089286365469734e-02 7.334845364855526668e+02
7.856144176032008042e-02 6.472070241891137812e+02
7.960199065698546350e-02 5.670846509320346058e+02
8.064253955365084658e-02 4.933974358129449342e+02
8.168308845031622967e-02 4.266572324340240243e+02
8.272363734698161275e-02 3.676871703264163216e+02
8.376418624364699583e-02 3.183600034040828177e+02
8.480473514031239279e-02 2.746627280639805804e+02
8.584528403697777588e-02 2.364580097760219246e+02
8.688583293364315896e-02 2.042536196037656282e+02
8.792638183030854204e-02 1.776425893698986442e+02
8.896693072697392513e-02 1.559397001323071379e+02
9.000747962363930821e-02 1.407153974908507053e+02
9.104802852030469129e-02 1.332761811313479825e+02
9.208857741697007437e-02 1.415411599931276783e+02
9.312912631363545746e-02 1.723151992680946876e+02
9.416967521030084054e-02 2.050539065977779387e+02
9.521022410696622362e-02 1.955480793625525848e+02
9.625077300363160671e-02 1.487956242162337901e+02
9.729132190029698979e-02 1.100585293432674945e+02
9.833187079696237287e-02 9.093502505649539103e+01
9.937241969362775595e-02 8.093907761653976252e+01
1.004129685902931390e-01 7.677454693172609268e+01
1.014535174869585221e-01 7.506821280292493270e+01
1.024940663836239052e-01 7.425478470948634424e+01
1.035346152802892883e-01 7.529491073604276608e+01
1.045751641769546714e-01 7.766682146229641148e+01
1.056157130736200545e-01 8.158071559908378845e+01
1.066562619702854375e-01 8.943014359273067271e+01
1.076968108669508206e-01 1.067658784851697646e+02
1.087373597636162037e-01 1.391372169732791519e+02
1.097779086602815868e-01 1.826418073033496512e+02
1.108184575569469699e-01 2.095120390954449761e+02
1.118590064536123529e-01 1.890585835043476948e+02
1.128995553502777360e-01 1.472027311367451716e+02
1.139401042469431191e-01 1.212636102127522975e+02
1.149806531436085022e-01 1.122599047593213299e+02
1.160212020402738853e-01 1.060282806753265845e+02
1.170617509369392684e-01 9.449660043422032629e+01
1.181022998336046514e-01 8.297193804389861782e+01
1.191428487302700345e-01 7.682702105433091333e+01
1.201833976269354176e-01 7.554556984355802740e+01
1.212239465236008007e-01 7.515156379631496009e+01
1.222644954202661838e-01 7.526672687088638725e+01
1.233050443169315669e-01 7.577296091462611116e+01
1.243455932135969499e-01 7.602823548456704827e+01
1.253861421102623330e-01 7.637715182924210922e+01
1.264266910069277161e-01 7.650264196096318869e+01
1.274672399035930992e-01 7.626231111129847307e+01
1.285077888002584823e-01 7.577787057663360315e+01
1.295483376969238654e-01 7.373917411818752043e+01
1.305888865935892484e-01 7.154051338669759730e+01
1.316294354902546315e-01 6.970151528844041877e+01
1.326699843869200146e-01 6.771358767743979001e+01
1.337105332835853977e-01 6.497528986127775852e+01
1.347510821802507808e-01 6.235655670750098523e+01
1.357916310769161639e-01 5.951802701739018886e+01
1.368321799735815469e-01 5.633451866401913577e+01
1.378727288702469300e-01 5.370176230230867986e+01
1.389132777669123131e-01 5.057415026969987082e+01
1.399538266635776962e-01 4.748952784198733212e+01
1.409943755602430793e-01 4.553828673801512394e+01
1.420349244569084624e-01 4.475553856550082088e+01
1.430754733535738454e-01 4.462706248362778183e+01
1.441160222502392285e-01 4.503825573254380998e+01
1.451565711469046116e-01 4.666063108073691268e+01
1.461971200435699947e-01 4.855055800862392346e+01
1.472376689402353778e-01 4.953944899367184718e+01
1.482782178369007609e-01 4.909890948022414392e+01
1.493187667335661439e-01 4.826757384157631492e+01
1.503593156302315270e-01 4.314619440371739501e+01
1.513998645268969101e-01 3.580388164990227295e+01
1.524404134235622932e-01 2.982271446294834760e+01
1.534809623202276763e-01 2.607807744585404919e+01
1.545215112168930593e-01 2.355721503133290895e+01
1.555620601135584424e-01 2.161660645207174980e+01
1.566026090102238255e-01 2.063531455045032459e+01
1.576431579068892086e-01 2.011883352243749101e+01
1.586837068035545917e-01 1.958948673481956604e+01
1.597242557002199748e-01 1.936993093546332290e+01
1.607648045968853578e-01 2.023223037101588062e+01
1.618053534935507409e-01 2.189585069419787544e+01
1.628459023902161240e-01 2.351187697245286046e+01
1.638864512868815071e-01 2.399763782433500126e+01
1.649270001835468902e-01 2.243206513212200548e+01
1.659675490802122733e-01 1.999327295966271834e+01
1.670080979768776563e-01 1.813312497115852295e+01
1.680486468735430672e-01 1.702439251776853268e+01
1.690891957702084503e-01 1.618170714908710295e+01
1.701297446668738333e-01 1.584689802942878600e+01
1.711702935635392164e-01 1.627211548472549651e+01
1.722108424602045995e-01 1.623797996816040978e+01
1.732513913568699826e-01 1.675712796803400551e+01
1.742919402535353657e-01 1.594502726666948433e+01
1.753324891502007488e-01 1.450181735568047259e+01
1.763730380468661318e-01 1.334606380917740154e+01
1.774135869435315149e-01 1.218158515079813498e+01
1.784541358401968980e-01 1.145359684695774405e+01
1.794946847368622811e-01 1.109136525236663573e+01
1.805352336335276642e-01 1.080707529644332254e+01
1.815757825301930473e-01 1.079409204061029470e+01
1.826163314268584303e-01 1.086838791451919661e+01
1.836568803235238134e-01 1.084743100876627153e+01
1.846974292201891965e-01 1.046261015109553583e+01
1.857379781168545796e-01 1.007876031139210227e+01
1.867785270135199627e-01 9.993813306155779230e+00
1.878190759101853458e-01 9.710587293177177060e+00
1.888596248068507288e-01 9.527315839412437981e+00
1.899001737035161119e-01 9.635562214536989245e+00
1.909407226001814950e-01 9.953812166462196132e+00
1.919812714968468781e-01 1.005995454533107392e+01
1.930218203935122612e-01 1.002883170597458218e+01
1.940623692901776443e-01 1.000448677407662146e+01
1.951029181868430273e-01 1.049734302887649307e+01
1.961434670835084104e-01 1.120170813504061158e+01
1.971840159801737935e-01 1.156689741228708712e+01
1.982245648768391766e-01 1.177785749424780803e+01
1.992651137735045597e-01 1.158627987116996749e+01
2.003056626701699428e-01 1.095035839364926744e+01
2.013462115668353813e-01 1.051849604842287889e+01
2.023867604635007644e-01 9.695819084494218032e+00
2.034273093601661475e-01 9.086402693197673130e+00
2.044678582568315306e-01 8.414342874779990211e+00
2.055084071534969137e-01 7.905968966888856642e+00
2.065489560501622968e-01 8.004727320538915336e+00
2.075895049468276798e-01 8.109436564614998844e+00
2.086300538434930629e-01 8.020060548120209631e+00
2.096706027401584460e-01 7.928349187954637500e+00
2.107111516368238291e-01 8.040412715412998068e+00
2.117517005334892122e-01 7.718344756167510923e+00
2.127922494301545953e-01 7.775032497260564668e+00
2.138327983268199783e-01 7.443047005485418310e+00
2.148733472234853614e-01 7.394096857856435889e+00
2.159138961201507445e-01 6.969156675330928863e+00
2.169544450168161276e-01 6.837844955246271894e+00
2.179949939134815107e-01 6.767255346862487642e+00
2.190355428101468938e-01 6.977713789040439707e+00
2.200760917068122768e-01 6.703141748607258421e+00
2.211166406034776599e-01 6.696543154445013357e+00
2.221571895001430430e-01 6.592204432933463920e+00
2.231977383968084261e-01 5.871016376012342164e+00
2.242382872934738092e-01 5.137521613314419255e+00
2.252788361901391923e-01 4.780912227837635697e+00
2.263193850868045753e-01 4.511902780592620843e+00
2.273599339834699584e-01 4.451106320552394635e+00
2.284004828801353415e-01 4.152303149991187325e+00
2.294410317768007246e-01 4.067225711297137281e+00
2.304815806734661077e-01 4.014676678619771621e+00
2.315221295701314908e-01 4.147371070054742148e+00
2.325626784667968738e-01 4.054855085420651761e+00
2.336032273634622569e-01 4.118212310149555577e+00
2.346437762601276400e-01 4.046088887037125659e+00
2.356843251567930231e-01 3.754363956020153381e+00
2.367248740534584062e-01 3.678717665436611384e+00
2.377654229501237892e-01 3.926491466574610456e+00
2.388059718467891723e-01 3.834625698817180961e+00
2.398465207434545554e-01 3.724793314852536952e+00
2.408870696401199385e-01 3.385530400014150842e+00
2.419276185367853216e-01 3.222522176318094012e+00
2.429681674334507047e-01 3.618648128251344076e+00
2.440087163301160877e-01 3.478804807228371487e+00
2.450492652267814708e-01 3.395504744163726940e+00
2.460898141234468539e-01 3.507704764643868600e+00
2.471303630201122370e-01 3.541260476984326999e+00
2.481709119167776201e-01 3.673159732799277322e+00
2.492114608134430032e-01 3.409217991376376489e+00
2.502520097101083585e-01 3.548467867540530563e+00
2.512925586067737416e-01 3.423058822568663118e+00
2.523331075034391247e-01 3.386938427325251411e+00
2.533736564001045077e-01 3.626175249086220020e+00
2.544142052967698908e-01 3.825402362667961853e+00
2.554547541934352739e-01 4.080810427983632138e+00
2.564953030901006570e-01 3.996669873114743865e+00
2.575358519867660401e-01 3.697566675939924608e+00
2.585764008834314231e-01 3.684064777639079580e+00
2.596169497800968062e-01 3.737059111027672742e+00
2.606574986767621893e-01 3.546338126006034486e+00
2.616980475734275724e-01 3.405552919791873023e+00
2.627385964700929555e-01 3.232311688493854973e+00
2.637791453667583386e-01 2.947445334695590446e+00
2.648196942634237216e-01 3.086376111769908448e+00
2.658602431600891047e-01 3.093819469447712578e+00
2.669007920567544878e-01 2.936870252725388042e+00
2.679413409534198709e-01 2.876903959384566889e+00
2.689818898500852540e-01 2.900800739305783083e+00
2.700224387467506371e-01 3.004142149354031233e+00
2.710629876434160201e-01 2.882366839686099524e+00
2.721035365400814032e-01 3.083306353766925412e+00
2.731440854367467863e-01 3.292865444885730852e+00
2.741846343334121694e-01 3.270937983435675989e+00
2.752251832300775525e-01 3.311279809636772598e+00
2.762657321267429356e-01 3.231667735976486711e+00
2.773062810234083186e-01 3.116114068203778231e+00
2.783468299200737017e-01 2.693437896348996219e+00
2.793873788167390848e-01 2.582651837904332837e+00
2.804279277134044679e-01 2.751907059811419032e+00
2.814684766100698510e-01 2.810710158293872496e+00
2.825090255067352341e-01 2.798404506510451029e+00
2.835495744034006171e-01 2.658952300586463480e+00
2.845901233000660002e-01 2.402739888999747109e+00
2.856306721967313833e-01 2.299873416849298025e+00
2.866712210933967664e-01 2.312782462533792938e+00
2.877117699900621495e-01 2.452777212558302722e+00
2.887523188867275326e-01 2.327374084236392804e+00
2.897928677833929156e-01 2.128234351508702105e+00
2.908334166800582987e-01 2.276007625539431700e+00
2.918739655767236818e-01 2.601899965222784772e+00
2.929145144733890649e-01 2.597702057405665954e+00
2.939550633700544480e-01 2.230678530592829389e+00
2.949956122667198311e-01 2.268009050148972250e+00
2.960361611633852141e-01 2.082284118538982653e+00
2.970767100600505972e-01 2.205332508054603124e+00
2.981172589567159803e-01 2.120146717193424735e+00
2.991578078533813634e-01 2.039988102246343971e+00
3.001983567500468020e-01 2.080462962125590565e+00
3.012389056467121851e-01 2.170070389759008123e+00
3.022794545433775681e-01 2.113672767299579647e+00
3.033200034400429512e-01 2.086298948299049272e+00
3.043605523367083343e-01 2.107805501737313847e+00
3.054011012333737174e-01 2.281164631297102119e+00
3.064416501300391005e-01 2.121437626209349503e+00
3.074821990267044836e-01 2.294236509422006520e+00
3.085227479233698666e-01 2.462644219695796721e+00
3.095632968200352497e-01 2.076693110408260878e+00
3.106038457167006328e-01 1.967812566411065944e+00
3.116443946133660159e-01 2.206226874047050757e+00
3.126849435100313990e-01 2.055359545302053448e+00
3.137254924066967821e-01 2.149840142165373891e+00
3.147660413033621651e-01 2.081017957119243533e+00
3.158065902000275482e-01 1.956150374467430453e+00
3.168471390966929313e-01 2.158660477453313575e+00
3.178876879933583144e-01 2.244814145808931016e+00
3.189282368900236975e-01 2.175009910860179474e+00
3.199687857866890806e-01 2.154928699558929850e+00
3.210093346833544636e-01 2.303093094244832884e+00
3.220498835800198467e-01 2.063193736407139767e+00
3.230904324766852298e-01 1.964910295495538861e+00
3.241309813733506129e-01 2.057994977876312248e+00
3.251715302700159960e-01 2.079864240856444724e+00
3.262120791666813790e-01 1.809854798150933419e+00
3.272526280633467621e-01 2.045863087430124239e+00
3.282931769600121452e-01 2.099670785620602942e+00
3.293337258566775283e-01 2.151485861689856449e+00
3.303742747533429114e-01 2.126962359672493363e+00
3.314148236500082945e-01 2.070484325807637305e+00
3.324553725466736775e-01 2.034260164603505672e+00
3.334959214433390606e-01 2.057471980964468372e+00
3.345364703400044437e-01 2.102265680690710070e+00
3.355770192366698268e-01 2.291158641789813544e+00
3.366175681333352099e-01 2.086722597574549809e+00
3.376581170300005930e-01 2.053911619353893769e+00
3.386986659266659760e-01 1.704670570581647837e+00
3.397392148233313591e-01 1.861277067017045539e+00
3.407797637199967422e-01 1.903479341138829994e+00
3.418203126166621253e-01 1.722860761983625366e+00
3.428608615133275084e-01 1.618696733522224207e+00
3.439014104099928915e-01 1.787625353334352241e+00
3.449419593066582745e-01 1.787279541282387640e+00
3.459825082033236576e-01 1.882670073846206549e+00
3.470230570999890407e-01 1.805779451200574925e+00
3.480636059966544238e-01 1.603840092954854413e+00
3.491041548933198069e-01 1.565577195020534162e+00
3.501447037899851900e-01 1.834018741856013435e+00
3.511852526866505730e-01 1.711819996184395620e+00
3.522258015833159561e-01 1.739809142715795787e+00
3.532663504799813392e-01 1.784689916144607480e+00
3.543068993766467223e-01 1.860407702149757370e+00
3.553474482733121054e-01 1.679894854805887405e+00
3.563879971699774885e-01 1.783008066102617306e+00
3.574285460666428715e-01 1.665586089811696979e+00
3.584690949633082546e-01 1.387352612064479018e+00
3.595096438599736377e-01 1.517683744901134446e+00
3.605501927566390208e-01 1.705514068087218504e+00
3.615907416533044039e-01 1.591782189910407652e+00
3.626312905499697870e-01 1.535678514869591282e+00
3.636718394466351700e-01 1.763465990463480182e+00
3.647123883433005531e-01 1.742145364061475021e+00
3.657529372399659362e-01 1.543217654954670337e+00
3.667934861366313193e-01 1.651125791404314924e+00
3.678340350332967024e-01 1.752779960255423930e+00
3.688745839299620854e-01 1.637130569417756476e+00
3.699151328266274685e-01 1.453233734470664729e+00
3.709556817232928516e-01 1.371526220672759422e+00
3.719962306199582347e-01 1.584542702895436861e+00
3.730367795166236178e-01 1.703729900166738531e+00
3.740773284132890009e-01 1.584605597143216471e+00
3.751178773099543839e-01 1.473196058578238876e+00
3.761584262066197670e-01 1.531984028490288807e+00
3.771989751032851501e-01 1.450334046343261463e+00
3.782395239999505332e-01 1.567895184439887402e+00
3.792800728966159163e-01 1.445188492403808311e+00
3.803206217932812994e-01 1.494829542993169724e+00
3.813611706899466824e-01 1.432568139604107671e+00
3.824017195866120655e-01 1.502035095425490852e+00
3.834422684832774486e-01 1.472328531452649969e+00
3.844828173799428317e-01 1.519618744809232425e+00
3.855233662766082148e-01 1.574285926602254193e+00
3.865639151732735979e-01 1.386577444389057945e+00
3.876044640699389809e-01 1.314454293569689014e+00
3.886450129666043640e-01 1.462947290581706028e+00
3.896855618632697471e-01 1.677507035011146286e+00
3.907261107599351302e-01 1.482532217510307504e+00
3.917666596566005133e-01 1.426635861152441009e+00
3.928072085532658964e-01 1.512599727954967221e+00
3.938477574499312794e-01 1.487247668445398574e+00
3.948883063465966625e-01 1.401271074743501543e+00
3.959288552432620456e-01 1.381403442921346425e+00
3.969694041399274287e-01 1.328715302824527100e+00
3.980099530365928118e-01 1.519937480163310539e+00
3.990505019332581949e-01 1.427489436397614497e+00
4.000910508299235779e-01 1.274607295481867908e+00
4.011315997265889610e-01 1.401597183232265564e+00
4.021721486232543441e-01 1.311804991464921244e+00
4.032126975199197272e-01 1.343637210193083575e+00
4.042532464165851103e-01 1.360001579456834975e+00
4.052937953132504934e-01 1.422725143403408055e+00
4.063343442099158764e-01 1.258279383277852048e+00
4.073748931065812595e-01 1.175265827347541148e+00
4.084154420032466426e-01 1.194825186851961263e+00
4.094559908999120257e-01 1.299378467395861492e+00
4.104965397965774088e-01 1.253409946817615861e+00
4.115370886932427918e-01 1.033260567613073277e+00
4.125776375899081749e-01 1.153964902637930834e+00
4.136181864865735580e-01 1.409492753353308814e+00
4.146587353832389411e-01 1.342267495279326539e+00
4.156992842799043242e-01 1.089765968774823790e+00
4.167398331765697073e-01 1.099652927306323136e+00
4.177803820732350903e-01 1.112420169526398439e+00
4.188209309699004734e-01 9.427401258985881327e-01
4.198614798665658565e-01 1.038728121536895088e+00
4.209020287632312396e-01 1.083836634130385335e+00
4.219425776598966227e-01 1.110710778933288623e+00
4.229831265565620058e-01 1.105338730877658548e+00
4.240236754532273888e-01 7.233427393401647976e-01
4.250642243498927719e-01 7.740297974519592117e-01
4.261047732465581550e-01 1.065151735018005752e+00
4.271453221432235381e-01 1.167565980780743473e+00
4.281858710398889212e-01 8.716095753519432776e-01
4.292264199365543043e-01 9.900907680602308858e-01
4.302669688332196873e-01 1.002968741894981974e+00
4.313075177298850704e-01 9.828041624744905391e-01
4.323480666265504535e-01 1.033731860395405988e+00
4.333886155232158366e-01 9.908321196245886142e-01
4.344291644198812197e-01 1.025704247555108140e+00
