# q (1/Angstrom), Intensity (arb)
2.029070354705860696e-02 9.849348463635619737e+02
2.133125244372399004e-02 8.762238479937731199e+02
2.237180134038937659e-02 7.850887904157433468e+02
2.341235023705475968e-02 7.122586595913514884e+02
2.445289913372014276e-02 6.533573392063461824e+02
2.549344803038552584e-02 6.061876663193730792e+02
2.653399692705091240e-02 5.647990385168222929e+02
2.757454582371629548e-02 5.324583975694797573e+02
2.861509472038167856e-02 5.060939035652385769e+02
2.965564361704706164e-02 4.845050806319522394e+02
3.069619251371244473e-02 4.681565117047980493e+02
3.173674141037782781e-02 4.525026110812451066e+02
3.277729030704321089e-02 4.408598785271905172e+02
3.381783920370859398e-02 4.298019864310033995e+02
3.485838810037397706e-02 4.257603803263195346e+02
3.589893699703936014e-02 4.224536414276854543e+02
3.693948589370474322e-02 4.196612116001906543e+02
3.798003479037012631e-02 4.210685451630719740e+02
3.902058368703550939e-02 4.271175023149974663e+02
4.006113258370089247e-02 4.366237793530351041e+02
4.110168148036627556e-02 4.499790322695563418e+02
4.214223037703165864e-02 4.654202831640058093e+02
4.318277927369704866e-02 4.848666453261675429e+02
4.422332817036243174e-02 5.139234586142667922e+02
4.526387706702781483e-02 5.510535354664224315e+02
4.630442596369319791e-02 6.144987508310496196e+02
4.734497486035858099e-02 7.188996465184542330e+02
4.838552375702396408e-02 9.314624414172990328e+02
4.942607265368934716e-02 1.354468150041712761e+03
5.046662155035473024e-02 2.039511701139916113e+03
5.150717044702011332e-02 3.154719326905967591e+03
5.254771934368549641e-02 4.633278337589785224e+03
5.358826824035087949e-02 5.054944074983873179e+03
5.462881713701626257e-02 4.049755133155757903e+03
5.566936603368164566e-02 3.254797589708518444e+03
5.670991493034702874e-02 3.089075892672463851e+03
5.775046382701241182e-02 3.159301919096709753e+03
5.879101272367779490e-02 3.297547002994712784e+03
5.983156162034317799e-02 3.418628992185667812e+03
6.087211051700856107e-02 3.449549020330949588e+03
6.191265941367394415e-02 3.326694500934731877e+03
6.295320831033933417e-02 3.088888161054746433e+03
6.399375720700471726e-02 2.830860288203838536e+03
6.503430610367010034e-02 2.568576643058304853e+03
6.607485500033548342e-02 2.297369527849569749e+03
6.711540389700086651e-02 2.031832210456125495e+03
6.815595279366624959e-02 1.771294573137920224e+03
6.919650169033163267e-02 1.521609241906374109e+03
7.023705058699701576e-02 1.290619517325656943e+03
7.127759948366239884e-02 1.085808779901498156e+03
7.231814838032778192e-02 9.079285124255864048e+02
7.335869727699316500e-02 7.543236982985386021e+02
7.439924617365854809e-02 6.279498153630114530e+02
7.543979507032393117e-02 5.210207312128364947e+02
7.648034396698931425e-02 4.374389268574048515e+02
7.752089286365469734e-02 3.695973896560682874e+02
7.856144176032008042e-02 3.106790177067850323e+02
7.960199065698546350e-02 2.643022140958120190e+02
8.064253955365084658e-02 2.292324935976446056e+02
8.168308845031622967e-02 2.059374661860938716e+02
8.272363734698161275e-02 1.924618255925659014e+02
8.376418624364699583e-02 1.959237655338069999e+02
8.480473514031239279e-02 2.339700848478053956e+02
8.584528403697777588e-02 3.137469141955545524e+02
8.688583293364315896e-02 3.632731808005259495e+02
8.792638183030854204e-02 3.096137266348163735e+02
8.896693072697392513e-02 2.248463727158627705e+02
9.000747962363930821e-02 1.797609302549126653e+02
9.104802852030469129e-02 1.632788895549923893e+02
9.208857741697007437e-02 1.583187863456849982e+02
9.312912631363545746e-02 1.587494690154389900e+02
9.416967521030084054e-02 1.627198915255368092e+02
9.521022410696622362e-02 1.679992846496988363e+02
9.625077300363160671e-02 1.751533336049725165e+02
9.729132190029698979e-02 1.859476158687626253e+02
9.833187079696237287e-02 2.062937076327539501e+02
9.937241969362775595e-02 2.475417182805234688e+02
1.004129685902931390e-01 3.186355499003868204e+02
1.014535174869585221e-01 3.826122510676717638e+02
1.024940663836239052e-01 3.684345340366859318e+02
1.035346152802892883e-01 2.975877506642946173e+02
1.045751641769546714e-01 2.479629587345279447e+02
1.056157130736200545e-01 2.302569397616212541e+02
1.066562619702854375e-01 2.178019283271244149e+02
1.076968108669508206e-01 1.989750510587972769e+02
1.087373597636162037e-01 1.848717532645226811e+02
1.097779086602815868e-01 1.797002422302519165e+02
1.108184575569469699e-01 1.780188195602339647e+02
1.118590064536123529e-01 1.774754467107719051e+02
1.128995553502777360e-01 1.779595765017778604e+02
1.139401042469431191e-01 1.780459456600594308e+02
1.149806531436085022e-01 1.773010626384389354e+02
1.160212020402738853e-01 1.740524172381757921e+02
1.170617509369392684e-01 1.687447552846705037e+02
1.181022998336046514e-01 1.634226406130883333e+02
1.191428487302700345e-01 1.574064226054696292e+02
1.201833976269354176e-01 1.490252374655814549e+02
1.212239465236008007e-01 1.406429438515083348e+02
1.222644954202661838e-01 1.328339748441864003e+02
1.233050443169315669e-01 1.232109971593127540e+02
1.243455932135969499e-01 1.144315549929471416e+02
1.253861421102623330e-01 1.051424537220542703e+02
1.264266910069277161e-01 9.625589635921224385e+01
1.274672399035930992e-01 8.919137398087519841e+01
1.285077888002584823e-01 8.343101895827871317e+01
1.295483376969238654e-01 7.823815432485412202e+01
1.305888865935892484e-01 7.499965491368502057e+01
1.316294354902546315e-01 7.452772607096414959e+01
1.326699843869200146e-01 7.785278998504405479e+01
1.337105332835853977e-01 8.290321668195457505e+01
1.347510821802507808e-01 8.397084269040982463e+01
1.357916310769161639e-01 8.465963939206480404e+01
1.368321799735815469e-01 8.448844438440039539e+01
1.378727288702469300e-01 7.597658243826508340e+01
1.389132777669123131e-01 6.117943351171901867e+01
1.399538266635776962e-01 4.821632216535297033e+01
1.409943755602430793e-01 4.085716474026720135e+01
1.420349244569084624e-01 3.752273721098920589e+01
1.430754733535738454e-01 3.529368534901139043e+01
1.441160222502392285e-01 3.396645349920133583e+01
1.451565711469046116e-01 3.372625600075662078e+01
1.461971200435699947e-01 3.432990188903600881e+01
1.472376689402353778e-01 3.514587068960869942e+01
1.482782178369007609e-01 3.782944891208480698e+01
1.493187667335661439e-01 4.160936545741262904e+01
1.503593156302315270e-01 4.431761500417587740e+01
1.513998645268969101e-01 4.191246117283059647e+01
1.524404134235622932e-01 3.856792301629232611e+01
1.534809623202276763e-01 3.510476221800593777e+01
1.545215112168930593e-01 3.323633409568701325e+01
1.555620601135584424e-01 3.291335900560050476e+01
1.566026090102238255e-01 3.250830439680672868e+01
1.576431579068892086e-01 3.275610583471159032e+01
1.586837068035545917e-01 3.321352334276619445e+01
1.597242557002199748e-01 3.259293458024774282e+01
1.607648045968853578e-01 3.058099343395110736e+01
1.618053534935507409e-01 2.793182292819710000e+01
1.628459023902161240e-01 2.666794802203002490e+01
1.638864512868815071e-01 2.574242409482793903e+01
1.649270001835468902e-01 2.498040375917884859e+01
1.659675490802122733e-01 2.452878048612929973e+01
1.670080979768776563e-01 2.399106521248371848e+01
1.680486468735430672e-01 2.329222361381628303e+01
1.690891957702084503e-01 2.310294627738299056e+01
1.701297446668738333e-01 2.255167269160175891e+01
1.711702935635392164e-01 2.237901581968962006e+01
1.722108424602045995e-01 2.224880252792259938e+01
1.732513913568699826e-01 2.166243775791583914e+01
1.742919402535353657e-01 2.123162261356741709e+01
1.753324891502007488e-01 2.050600290993095598e+01
1.763730380468661318e-01 2.034176413911952608e+01
1.774135869435315149e-01 2.048306511685952103e+01
1.784541358401968980e-01 2.040611357750054111e+01
1.794946847368622811e-01 2.184068672262380062e+01
1.805352336335276642e-01 2.382409876105943169e+01
1.815757825301930473e-01 2.505190237966144196e+01
1.826163314268584303e-01 2.503499662138482762e+01
1.836568803235238134e-01 2.356965885769437818e+01
1.846974292201891965e-01 2.140176152327969561e+01
1.857379781168545796e-01 1.934691103374409948e+01
1.867785270135199627e-01 1.741929022423516926e+01
1.878190759101853458e-01 1.578464766008987397e+01
1.888596248068507288e-01 1.486593352203329488e+01
1.899001737035161119e-01 1.420330892089352659e+01
1.909407226001814950e-01 1.384657219162741626e+01
1.919812714968468781e-01 1.388242439202792156e+01
1.930218203935122612e-01 1.392539293061237515e+01
1.940623692901776443e-01 1.365523027644293563e+01
1.951029181868430273e-01 1.341709171827874769e+01
1.961434670835084104e-01 1.223532631496629364e+01
1.971840159801737935e-01 1.205523983096591678e+01
1.982245648768391766e-01 1.219320029709368214e+01
1.992651137735045597e-01 1.154926728041730399e+01
2.003056626701699428e-01 1.156487010394054948e+01
2.013462115668353813e-01 1.192409513905570861e+01
2.023867604635007644e-01 1.154959771073789199e+01
2.034273093601661475e-01 1.121281957990816380e+01
2.044678582568315306e-01 1.026608545476444334e+01
2.055084071534969137e-01 9.341848970056332746e+00
2.065489560501622968e-01 8.625139172381963704e+00
2.075895049468276798e-01 7.977716239491236649e+00
2.086300538434930629e-01 7.698093308999638396e+00
2.096706027401584460e-01 7.344669813646632406e+00
2.107111516368238291e-01 7.451796220638943424e+00
2.117517005334892122e-01 7.535450215911875915e+00
2.127922494301545953e-01 7.263718110852824594e+00
2.138327983268199783e-01 6.932799443553253838e+00
2.148733472234853614e-01 6.705375783125592903e+00
2.159138961201507445e-01 6.647218649628207743e+00
2.169544450168161276e-01 6.603083815398203882e+00
2.179949939134815107e-01 6.771758933551417670e+00
2.190355428101468938e-01 6.516631975956208578e+00
2.200760917068122768e-01 6.798573641690211389e+00
2.211166406034776599e-01 6.803697944681669441e+00
2.221571895001430430e-01 6.514154468861910630e+00
2.231977383968084261e-01 6.351072775003046900e+00
2.242382872934738092e-01 6.650195761263027805e+00
2.252788361901391923e-01 6.566697586959048039e+00
2.263193850868045753e-01 6.736715452271102578e+00
2.273599339834699584e-01 6.730406975731664687e+00
2.284004828801353415e-01 6.824971824472459758e+00
2.294410317768007246e-01 6.972335290902481830e+00
2.304815806734661077e-01 7.108907938787268677e+00
2.315221295701314908e-01 6.987613645500292847e+00
2.325626784667968738e-01 6.811772516072913675e+00
2.336032273634622569e-01 6.731891457770853293e+00
2.346437762601276400e-01 6.788387145761969776e+00
2.356843251567930231e-01 7.102077969257198475e+00
2.367248740534584062e-01 6.852994543281873518e+00
2.377654229501237892e-01 6.226809297140960098e+00
2.388059718467891723e-01 6.127870571928752952e+00
2.398465207434545554e-01 5.587032742396530693e+00
2.408870696401199385e-01 5.345335131227678005e+00
2.419276185367853216e-01 5.073182115043671558e+00
2.429681674334507047e-01 4.899400563347981574e+00
2.440087163301160877e-01 4.790253837878861276e+00
2.450492652267814708e-01 4.384894957656566561e+00
2.460898141234468539e-01 4.253182178446657247e+00
2.471303630201122370e-01 4.624797532177737480e+00
2.481709119167776201e-01 4.410245801306462710e+00
2.492114608134430032e-01 4.376091732411445889e+00
2.502520097101083585e-01 4.556460547104222769e+00
2.512925586067737416e-01 4.742237852981752155e+00
2.523331075034391247e-01 4.798920542160033165e+00
2.533736564001045077e-01 4.349658504074788823e+00
2.544142052967698908e-01 4.076038002545818273e+00
2.554547541934352739e-01 3.772263614125389353e+00
2.564953030901006570e-01 3.687870171743618641e+00
2.575358519867660401e-01 3.307853047902199251e+00
2.585764008834314231e-01 3.239541793379647316e+00
2.596169497800968062e-01 2.863719530231040977e+00
2.606574986767621893e-01 3.246390626708187455e+00
2.616980475734275724e-01 3.254511410246347936e+00
2.627385964700929555e-01 2.954252708290752594e+00
2.637791453667583386e-01 2.887861131297160711e+00
2.648196942634237216e-01 3.056757684391719465e+00
2.658602431600891047e-01 3.101240285884511394e+00
2.669007920567544878e-01 2.787506795175232810e+00
2.679413409534198709e-01 2.685660594334816409e+00
2.689818898500852540e-01 2.666862587130335527e+00
2.700224387467506371e-01 2.666201613232082934e+00
2.710629876434160201e-01 2.726649914201697555e+00
2.721035365400814032e-01 2.607653726793355276e+00
2.731440854367467863e-01 2.917991811234028177e+00
2.741846343334121694e-01 2.687044956506550619e+00
2.752251832300775525e-01 2.745265347520199128e+00
2.762657321267429356e-01 3.131107558481843967e+00
2.773062810234083186e-01 2.936328668114203566e+00
2.783468299200737017e-01 3.118803001454562462e+00
2.793873788167390848e-01 3.242137713826998890e+00
2.804279277134044679e-01 3.334451708751519305e+00
2.814684766100698510e-01 3.470254569979072556e+00
2.825090255067352341e-01 3.246826126970301374e+00
2.835495744034006171e-01 3.112855436921609709e+00
2.845901233000660002e-01 3.238005777534596064e+00
2.856306721967313833e-01 3.196714213517292791e+00
2.866712210933967664e-01 3.149896440681594356e+00
2.877117699900621495e-01 2.962263973560986585e+00
2.887523188867275326e-01 2.992874751334372974e+00
2.897928677833929156e-01 2.807994591909761084e+00
2.908334166800582987e-01 2.782762939865509821e+00
2.918739655767236818e-01 2.640769677117464909e+00
2.929145144733890649e-01 2.571447180404216937e+00
2.939550633700544480e-01 2.355276064598594843e+00
2.949956122667198311e-01 2.360004806616782247e+00
2.960361611633852141e-01 2.906463452584645779e+00
2.970767100600505972e-01 2.831787109965876681e+00
2.981172589567159803e-01 2.123735192292368623e+00
2.991578078533813634e-01 2.013791923924145522e+00
3.001983567500468020e-01 2.282258501018919361e+00
3.012389056467121851e-01 2.245252970847953833e+00
3.022794545433775681e-01 2.024463214141505318e+00
3.033200034400429512e-01 2.075683540236340718e+00
3.043605523367083343e-01 2.235386118419341983e+00
3.054011012333737174e-01 2.324647249708121421e+00
3.064416501300391005e-01 2.332575232209070037e+00
3.074821990267044836e-01 2.089662846160660337e+00
3.085227479233698666e-01 2.058757488057000984e+00
3.095632968200352497e-01 2.245582852744725244e+00
3.106038457167006328e-01 2.241464429217085552e+00
3.116443946133660159e-01 1.775336317746727843e+00
3.126849435100313990e-01 1.830971054420242439e+00
3.137254924066967821e-01 2.127050450680879834e+00
3.147660413033621651e-01 2.123277856732855184e+00
3.158065902000275482e-01 2.013004075327543774e+00
3.168471390966929313e-01 2.088545827680626132e+00
3.178876879933583144e-01 2.140738163617662337e+00
3.189282368900236975e-01 1.795123767834933659e+00
3.199687857866890806e-01 1.751789407828635348e+00
3.210093346833544636e-01 1.948766562748811992e+00
3.220498835800198467e-01 2.210650971760294681e+00
3.230904324766852298e-01 2.048915064847378176e+00
3.241309813733506129e-01 1.599371960540061366e+00
3.251715302700159960e-01 1.810011146285077643e+00
3.262120791666813790e-01 1.587127573317705043e+00
3.272526280633467621e-01 1.684508899122274528e+00
3.282931769600121452e-01 1.951969816488844600e+00
3.293337258566775283e-01 2.032415272807853057e+00
3.303742747533429114e-01 2.127827232068831620e+00
3.314148236500082945e-01 2.198960277074057501e+00
3.324553725466736775e-01 2.073736732474689148e+00
3.334959214433390606e-01 2.049388406176920085e+00
3.345364703400044437e-01 1.927359124981645522e+00
3.355770192366698268e-01 1.884677953350877289e+00
3.366175681333352099e-01 2.030376339696321253e+00
3.376581170300005930e-01 1.909115421804763457e+00
3.386986659266659760e-01 1.827745539985151879e+00
3.397392148233313591e-01 1.873642095538851748e+00
3.407797637199967422e-01 1.728942057406413824e+00
3.418203126166621253e-01 1.390187888126416027e+00
3.428608615133275084e-01 1.507188456631624263e+00
3.439014104099928915e-01 1.707234266493607322e+00
3.449419593066582745e-01 1.605221639489155194e+00
3.459825082033236576e-01 1.582725588670978567e+00
3.470230570999890407e-01 1.749881970135543696e+00
3.480636059966544238e-01 1.669693029064259093e+00
3.491041548933198069e-01 1.419969061252768228e+00
3.501447037899851900e-01 1.408764157133759909e+00
3.511852526866505730e-01 1.625716944033701594e+00
3.522258015833159561e-01 1.574651058855071284e+00
3.532663504799813392e-01 1.400390186644077772e+00
3.543068993766467223e-01 1.529255546489839190e+00
3.553474482733121054e-01 1.300324742486356655e+00
3.563879971699774885e-01 1.197659602235351173e+00
3.574285460666428715e-01 1.315684709486166781e+00
3.584690949633082546e-01 1.524967734194831337e+00
3.595096438599736377e-01 1.575185463450527124e+00
3.605501927566390208e-01 1.618550624654393033e+00
3.615907416533044039e-01 1.636092373498232888e+00
3.626312905499697870e-01 1.791123283228277074e+00
3.636718394466351700e-01 1.517200947517061138e+00
3.647123883433005531e-01 1.489305485427394160e+00
3.657529372399659362e-01 1.359501206990398003e+00
3.667934861366313193e-01 1.333347842162044827e+00
3.678340350332967024e-01 1.417429190163353780e+00
3.688745839299620854e-01 1.628842965813458221e+00
3.699151328266274685e-01 1.252179120354483643e+00
3.709556817232928516e-01 1.228113551510656265e+00
3.719962306199582347e-01 1.456354520939370900e+00
3.730367795166236178e-01 1.305876660493925812e+00
3.740773284132890009e-01 1.331602275099871946e+00
3.751178773099543839e-01 1.217203022710307891e+00
3.761584262066197670e-01 1.241852148152037927e+00
3.771989751032851501e-01 1.257694055667073485e+00
3.782395239999505332e-01 1.316558136387637745e+00
3.792800728966159163e-01 1.355421338979546420e+00
3.803206217932812994e-01 1.464011695590574647e+00
3.813611706899466824e-01 1.431436017322482712e+00
3.824017195866120655e-01 1.731297877658619200e+00
3.834422684832774486e-01 1.567433876580118124e+00
3.844828173799428317e-01 1.393019214545713425e+00
3.855233662766082148e-01 1.488215353392920548e+00
3.865639151732735979e-01 1.347317138907861533e+00
3.876044640699389809e-01 1.444329721328372784e+00
3.886450129666043640e-01 1.373150378117298231e+00
3.896855618632697471e-01 1.386524256658780985e+00
3.907261107599351302e-01 1.512239314657364275e+00
3.917666596566005133e-01 1.245207947652261282e+00
3.928072085532658964e-01 1.214457895502267348e+00
3.938477574499312794e-01 1.569466831776690441e+00
3.948883063465966625e-01 1.514210472512530714e+00
3.959288552432620456e-01 1.375607493712866614e+00
3.969694041399274287e-01 1.194077862447226579e+00
3.980099530365928118e-01 9.977181924569649141e-01
3.990505019332581949e-01 1.134869111903984873e+00
4.000910508299235779e-01 1.451516699152794132e+00
4.011315997265889610e-01 1.259423200968498691e+00
4.021721486232543441e-01 1.148140849065892866e+00
4.032126975199197272e-01 8.684325052347254825e-01
4.042532464165851103e-01 7.791161179085399624e-01
4.052937953132504934e-01 9.205882798310405235e-01
4.063343442099158764e-01 1.017361824646997093e+00
4.073748931065812595e-01 1.102630028422147745e+00
4.084154420032466426e-01 1.075009190346097654e+00
4.094559908999120257e-01 8.186305283892210127e-01
4.104965397965774088e-01 8.515421793316519938e-01
4.115370886932427918e-01 9.702421037215351873e-01
4.125776375899081749e-01 1.245936088848527135e+00
4.136181864865735580e-01 1.140080576836105308e+00
4.146587353832389411e-01 1.177757683292615098e+00
4.156992842799043242e-01 1.186697690789920046e+00
4.167398331765697073e-01 1.171297818886579023e+00
4.177803820732350903e-01 1.078954028982511915e+00
4.188209309699004734e-01 1.055449912765116238e+00
4.198614798665658565e-01 9.968372253438140262e-01
4.209020287632312396e-01 8.928596895194793603e-01
4.219425776598966227e-01 8.455612326553954006e-01
4.229831265565620058e-01 9.902999871391280351e-01
4.240236754532273888e-01 1.102614476837104007e+00
4.250642243498927719e-01 1.060500813315758961e+00
4.261047732465581550e-01 1.083899157689053538e+00
4.271453221432235381e-01 1.086560775736817419e+00
4.281858710398889212e-01 9.403953571458494309e-01
4.292264199365543043e-01 8.069712547245799783e-01
4.302669688332196873e-01 7.831492582145855863e-01
4.313075177298850704e-01 1.037048861823176793e+00
4.323480666265504535e-01 1.127980691917898071e+00
4.333886155232158366e-01 9.843716276095619833e-01
4.344291644198812197e-01 9.670025141877829356e-01
