# q (1/Angstrom), Intensity (arb)
2.029070354705860696e-02 4.423643911788220180e+02
2.133125244372399004e-02 3.858491326381113140e+02
2.237180134038937659e-02 3.400207569891513231e+02
2.341235023705475968e-02 3.056936247045908885e+02
2.445289913372014276e-02 2.758360009924701899e+02
2.549344803038552584e-02 2.520951584009443707e+02
2.653399692705091240e-02 2.316127863855680289e+02
2.757454582371629548e-02 2.149522031566618807e+02
2.861509472038167856e-02 2.025263745551470720e+02
2.965564361704706164e-02 1.906416347107699778e+02
3.069619251371244473e-02 1.807239414731938609e+02
3.173674141037782781e-02 1.719058762018086668e+02
3.277729030704321089e-02 1.642481359075748060e+02
3.381783920370859398e-02 1.579296440722594355e+02
3.485838810037397706e-02 1.519626181068522328e+02
3.589893699703936014e-02 1.485498536415928470e+02
3.693948589370474322e-02 1.459155679648469288e+02
3.798003479037012631e-02 1.428792024564534131e+02
3.902058368703550939e-02 1.419692869514019264e+02
4.006113258370089247e-02 1.423342021608846437e+02
4.110168148036627556e-02 1.409299715959704713e+02
4.214223037703165864e-02 1.406662651982885848e+02
4.318277927369704866e-02 1.412376147384905494e+02
4.422332817036243174e-02 1.433697492166652694e+02
4.526387706702781483e-02 1.464818408577123989e+02
4.630442596369319791e-02 1.497322153829351237e+02
4.734497486035858099e-02 1.562315386005517723e+02
4.838552375702396408e-02 1.632864288790534886e+02
4.942607265368934716e-02 1.727395560222568633e+02
5.046662155035473024e-02 1.854640306269224368e+02
5.150717044702011332e-02 2.029224491273143940e+02
5.254771934368549641e-02 2.293112072248218283e+02
5.358826824035087949e-02 2.741375491217285685e+02
5.462881713701626257e-02 3.648269215816600308e+02
5.566936603368164566e-02 5.441114465563497333e+02
5.670991493034702874e-02 8.246029926675764727e+02
5.775046382701241182e-02 1.236871376829843257e+03
5.879101272367779490e-02 1.909042296416389490e+03
5.983156162034317799e-02 2.455342644156417919e+03
6.087211051700856107e-02 2.188100676401664714e+03
6.191265941367394415e-02 1.552663858170147250e+03
6.295320831033933417e-02 1.212249791739958937e+03
6.399375720700471726e-02 1.100549452542050858e+03
6.503430610367010034e-02 1.080237978315528153e+03
6.607485500033548342e-02 1.103312919639268330e+03
6.711540389700086651e-02 1.146536873941799513e+03
6.815595279366624959e-02 1.190662914900696023e+03
6.919650169033163267e-02 1.195373050850969548e+03
7.023705058699701576e-02 1.150308174371359200e+03
7.127759948366239884e-02 1.091322594775037714e+03
7.231814838032778192e-02 1.043198826798352684e+03
7.335869727699316500e-02 9.960448112830648597e+02
7.439924617365854809e-02 9.448388908431099935e+02
7.543979507032393117e-02 8.875234887064297027e+02
7.648034396698931425e-02 8.266855146689109688e+02
7.752089286365469734e-02 7.644818389781397627e+02
7.856144176032008042e-02 7.004209798011104340e+02
7.960199065698546350e-02 6.352768154865225370e+02
8.064253955365084658e-02 5.719486368308599822e+02
8.168308845031622967e-02 5.128073384502903309e+02
8.272363734698161275e-02 4.587339287587379886e+02
8.376418624364699583e-02 4.069089170199632690e+02
8.480473514031239279e-02 3.588637796824146449e+02
8.584528403697777588e-02 3.151222246048492934e+02
8.688583293364315896e-02 2.761347805080613398e+02
8.792638183030854204e-02 2.424335851403038760e+02
8.896693072697392513e-02 2.110864010352290165e+02
9.000747962363930821e-02 1.836580030428203258e+02
9.104802852030469129e-02 1.609829575470685086e+02
9.208857741697007437e-02 1.420456582508506358e+02
9.312912631363545746e-02 1.294526957125255251e+02
9.416967521030084054e-02 1.216279563316128076e+02
9.521022410696622362e-02 1.238863355551552274e+02
9.625077300363160671e-02 1.422319726060600260e+02
9.729132190029698979e-02 1.676895669731593728e+02
9.833187079696237287e-02 1.666372030289252848e+02
9.937241969362775595e-02 1.318923634468872592e+02
1.004129685902931390e-01 9.741518774674156589e+01
1.014535174869585221e-01 7.829238501401846406e+01
1.024940663836239052e-01 6.908199939756170238e+01
1.035346152802892883e-01 6.374089271990225569e+01
1.045751641769546714e-01 6.115960356794020925e+01
1.056157130736200545e-01 5.973173811717947501e+01
1.066562619702854375e-01 5.889544140363067726e+01
1.076968108669508206e-01 5.906185310567764191e+01
1.087373597636162037e-01 6.090303766493693871e+01
1.097779086602815868e-01 6.539215898371534763e+01
1.108184575569469699e-01 7.406662559907481125e+01
1.118590064536123529e-01 9.145920305515917903e+01
1.128995553502777360e-01 1.218054987672711178e+02
1.139401042469431191e-01 1.548570569752986046e+02
1.149806531436085022e-01 1.653358182576656077e+02
1.160212020402738853e-01 1.407609138083694802e+02
1.170617509369392684e-01 1.079131323398118809e+02
1.181022998336046514e-01 9.046166919060323153e+01
1.191428487302700345e-01 8.452325528921812747e+01
1.201833976269354176e-01 7.857378225138100447e+01
1.212239465236008007e-01 6.838939213829402775e+01
1.222644954202661838e-01 5.980381222107569528e+01
1.233050443169315669e-01 5.604644164712786392e+01
1.243455932135969499e-01 5.498317730433629436e+01
1.253861421102623330e-01 5.462208146082295457e+01
1.264266910069277161e-01 5.387561786931826902e+01
1.274672399035930992e-01 5.485253807090077771e+01
1.285077888002584823e-01 5.516897003445938452e+01
1.295483376969238654e-01 5.483506004801973432e+01
1.305888865935892484e-01 5.476998911708493267e+01
1.316294354902546315e-01 5.494384852284659360e+01
1.326699843869200146e-01 5.442399225859841039e+01
1.337105332835853977e-01 5.299590644082758928e+01
1.347510821802507808e-01 5.157522339433810288e+01
1.357916310769161639e-01 5.104839670267133300e+01
1.368321799735815469e-01 4.957897706717243835e+01
1.378727288702469300e-01 4.819787755937023377e+01
1.389132777669123131e-01 4.695340607756922680e+01
1.399538266635776962e-01 4.515304209089935483e+01
1.409943755602430793e-01 4.361607918768648062e+01
1.420349244569084624e-01 4.162487279707194432e+01
1.430754733535738454e-01 4.020544415368463831e+01
1.441160222502392285e-01 3.826043894483255770e+01
1.451565711469046116e-01 3.655770925899038559e+01
1.461971200435699947e-01 3.560090151175832318e+01
1.472376689402353778e-01 3.441709574623358492e+01
1.482782178369007609e-01 3.511695103390855621e+01
1.493187667335661439e-01 3.602502302710639270e+01
1.503593156302315270e-01 3.742022589290571943e+01
1.513998645268969101e-01 3.819024384799488558e+01
1.524404134235622932e-01 3.844451933433690272e+01
1.534809623202276763e-01 3.907084649490113293e+01
1.545215112168930593e-01 3.829263062399166273e+01
1.555620601135584424e-01 3.525378247838239076e+01
1.566026090102238255e-01 2.977307807691762065e+01
1.576431579068892086e-01 2.469568130962836250e+01
1.586837068035545917e-01 2.170359917267685290e+01
1.597242557002199748e-01 1.984129609886902301e+01
1.607648045968853578e-01 1.890031633673895328e+01
1.618053534935507409e-01 1.786204046211390306e+01
1.628459023902161240e-01 1.694985083154139716e+01
1.638864512868815071e-01 1.644322181668125182e+01
1.649270001835468902e-01 1.646778264523100432e+01
1.659675490802122733e-01 1.634685388062145961e+01
1.670080979768776563e-01 1.708997505918402027e+01
1.680486468735430672e-01 1.867669762312605997e+01
1.690891957702084503e-01 2.002912411098341749e+01
1.701297446668738333e-01 1.949365794445521516e+01
1.711702935635392164e-01 1.768644286725788106e+01
1.722108424602045995e-01 1.524188831323370863e+01
1.732513913568699826e-01 1.349424768489141258e+01
1.742919402535353657e-01 1.304995850100241483e+01
1.753324891502007488e-01 1.286620030393866188e+01
1.763730380468661318e-01 1.241093960375188487e+01
1.774135869435315149e-01 1.238560868908132306e+01
1.784541358401968980e-01 1.287451118847861409e+01
1.794946847368622811e-01 1.318516927973330510e+01
1.805352336335276642e-01 1.238917538585743117e+01
1.815757825301930473e-01 1.103435170341534644e+01
1.826163314268584303e-01 9.594601378438106565e+00
1.836568803235238134e-01 8.910101462172328013e+00
1.846974292201891965e-01 8.780390227467535169e+00
1.857379781168545796e-01 8.904020814497350500e+00
1.867785270135199627e-01 8.735305547335443066e+00
1.878190759101853458e-01 8.300807994061788264e+00
1.888596248068507288e-01 7.967176250526026848e+00
1.899001737035161119e-01 7.768810334622834546e+00
1.909407226001814950e-01 7.717794327734040394e+00
1.919812714968468781e-01 7.727701534642427816e+00
1.930218203935122612e-01 7.420788375545843252e+00
1.940623692901776443e-01 7.320839525870383113e+00
1.951029181868430273e-01 7.709063681329247686e+00
1.961434670835084104e-01 7.263598947670026007e+00
1.971840159801737935e-01 7.205121191246252721e+00
1.982245648768391766e-01 7.112230279894209417e+00
1.992651137735045597e-01 6.988390984999934830e+00
2.003056626701699428e-01 7.427827178101903627e+00
2.013462115668353813e-01 7.688658704661950338e+00
2.023867604635007644e-01 8.223388980953767913e+00
2.034273093601661475e-01 8.343468953112058273e+00
2.044678582568315306e-01 8.617840689648133434e+00
2.055084071534969137e-01 8.633475479284214771e+00
2.065489560501622968e-01 8.405485645690532692e+00
2.075895049468276798e-01 7.985575161167574265e+00
2.086300538434930629e-01 7.730927623060729559e+00
2.096706027401584460e-01 7.428167134954254180e+00
2.107111516368238291e-01 6.743408564019432561e+00
2.117517005334892122e-01 6.355801317678732687e+00
2.127922494301545953e-01 6.124172299065453018e+00
2.138327983268199783e-01 6.249620218529734927e+00
2.148733472234853614e-01 6.117746266847856162e+00
2.159138961201507445e-01 6.093833047838543848e+00
2.169544450168161276e-01 6.212544948672846346e+00
2.179949939134815107e-01 6.532878148741367852e+00
2.190355428101468938e-01 6.498054363506089004e+00
2.200760917068122768e-01 6.281755888579496627e+00
2.211166406034776599e-01 6.073739910672525610e+00
2.221571895001430430e-01 5.907663955272532519e+00
2.231977383968084261e-01 5.636751552662001785e+00
2.242382872934738092e-01 5.693786095052161045e+00
2.252788361901391923e-01 5.799143342982340243e+00
2.263193850868045753e-01 5.981884416317619468e+00
2.273599339834699584e-01 6.084766200853401585e+00
2.284004828801353415e-01 5.938874499448107969e+00
2.294410317768007246e-01 5.747480018871467422e+00
2.304815806734661077e-01 5.315253471436324872e+00
2.315221295701314908e-01 4.722342176386661095e+00
2.325626784667968738e-01 4.043887000461573678e+00
2.336032273634622569e-01 3.949181479849855236e+00
2.346437762601276400e-01 4.136661493829436154e+00
2.356843251567930231e-01 3.995910060137997988e+00
2.367248740534584062e-01 3.818896810217101034e+00
2.377654229501237892e-01 3.655572443103270786e+00
2.388059718467891723e-01 3.562395470624633020e+00
2.398465207434545554e-01 3.358254351310296926e+00
2.408870696401199385e-01 3.266160497186923806e+00
2.419276185367853216e-01 3.531688022486530798e+00
2.429681674334507047e-01 3.385502055822406930e+00
2.440087163301160877e-01 3.236113774596102388e+00
2.450492652267814708e-01 3.253162169846394391e+00
2.460898141234468539e-01 3.031568601257269790e+00
2.471303630201122370e-01 3.267512181017618644e+00
2.481709119167776201e-01 3.312098252360105022e+00
2.492114608134430032e-01 3.208780657051722329e+00
2.502520097101083585e-01 2.727456830137516164e+00
2.512925586067737416e-01 2.687637178189337561e+00
2.523331075034391247e-01 2.896150865333840585e+00
2.533736564001045077e-01 3.104699592979368816e+00
2.544142052967698908e-01 3.131239792994737314e+00
2.554547541934352739e-01 3.035218564742457659e+00
2.564953030901006570e-01 3.216513646005456195e+00
2.575358519867660401e-01 3.263535967291282702e+00
2.585764008834314231e-01 3.354266919250552093e+00
2.596169497800968062e-01 3.254025471843977613e+00
2.606574986767621893e-01 3.064737275661439497e+00
2.616980475734275724e-01 2.812375857601285389e+00
2.627385964700929555e-01 3.146372361471339474e+00
2.637791453667583386e-01 3.337087441094340079e+00
2.648196942634237216e-01 3.245234630984544566e+00
2.658602431600891047e-01 3.368231182623517839e+00
2.669007920567544878e-01 3.373007916283039975e+00
2.679413409534198709e-01 3.121374313043272508e+00
2.689818898500852540e-01 3.333326946339141728e+00
2.700224387467506371e-01 3.127059366749733726e+00
2.710629876434160201e-01 2.915804082804157815e+00
2.721035365400814032e-01 2.655905974219614052e+00
2.731440854367467863e-01 2.615380751125169212e+00
2.741846343334121694e-01 2.887218460638568018e+00
2.752251832300775525e-01 2.896915290719654479e+00
2.762657321267429356e-01 2.693105319661938779e+00
2.773062810234083186e-01 2.517962304279642183e+00
2.783468299200737017e-01 2.385695425650190771e+00
2.793873788167390848e-01 2.428947441076402924e+00
2.804279277134044679e-01 2.705062067172661955e+00
2.814684766100698510e-01 2.796868293482429380e+00
2.825090255067352341e-01 2.947191402707886709e+00
2.835495744034006171e-01 2.821521441069887004e+00
2.845901233000660002e-01 2.832874266775480265e+00
2.856306721967313833e-01 2.698239078186830397e+00
2.866712210933967664e-01 2.655356677664585163e+00
2.877117699900621495e-01 2.734609741856399268e+00
2.887523188867275326e-01 2.701872857348440959e+00
2.897928677833929156e-01 2.484644392154585546e+00
2.908334166800582987e-01 2.449811774839393053e+00
2.918739655767236818e-01 2.393991523370200269e+00
2.929145144733890649e-01 2.539550761039112814e+00
2.939550633700544480e-01 2.629405857777989297e+00
2.949956122667198311e-01 2.629624028720265017e+00
2.960361611633852141e-01 2.423489402826206174e+00
2.970767100600505972e-01 2.276746764921917077e+00
2.981172589567159803e-01 2.290463590953340400e+00
2.991578078533813634e-01 2.347429241715637716e+00
3.001983567500468020e-01 2.260182825630202785e+00
3.012389056467121851e-01 2.404277733692470775e+00
3.022794545433775681e-01 2.531948617888417630e+00
3.033200034400429512e-01 2.378218956499214443e+00
3.043605523367083343e-01 2.353295794378652772e+00
3.054011012333737174e-01 2.063298011652943131e+00
3.064416501300391005e-01 2.320815540977502422e+00
3.074821990267044836e-01 2.433652857781730461e+00
3.085227479233698666e-01 2.242328434207784937e+00
3.095632968200352497e-01 2.035709262346784953e+00
3.106038457167006328e-01 1.905428198033735754e+00
3.116443946133660159e-01 2.188053171359189975e+00
3.126849435100313990e-01 2.214462297430308979e+00
3.137254924066967821e-01 2.012634397159818178e+00
3.147660413033621651e-01 2.001811370500345078e+00
3.158065902000275482e-01 1.970038337449086185e+00
3.168471390966929313e-01 2.139867201216990367e+00
3.178876879933583144e-01 2.193724145330598674e+00
3.189282368900236975e-01 2.023881211779844591e+00
3.199687857866890806e-01 2.077497280952862013e+00
3.210093346833544636e-01 2.150321399362201902e+00
3.220498835800198467e-01 2.063776126137025102e+00
3.230904324766852298e-01 2.169553845224836408e+00
3.241309813733506129e-01 2.365412385865681699e+00
3.251715302700159960e-01 2.289871587319993296e+00
3.262120791666813790e-01 2.226860026544823512e+00
3.272526280633467621e-01 2.208831682565392640e+00
3.282931769600121452e-01 2.394938989612079183e+00
3.293337258566775283e-01 2.195475686713773911e+00
3.303742747533429114e-01 1.908252049710593923e+00
3.314148236500082945e-01 1.700439631037159671e+00
3.324553725466736775e-01 1.952315986600162034e+00
3.334959214433390606e-01 2.140195432584523161e+00
3.345364703400044437e-01 2.115840775042006072e+00
3.355770192366698268e-01 2.154228402079365168e+00
3.366175681333352099e-01 2.270895873592888137e+00
3.376581170300005930e-01 2.244349172558052885e+00
3.386986659266659760e-01 2.042550640980056897e+00
3.397392148233313591e-01 2.165177451441884671e+00
3.407797637199967422e-01 2.190713075774112895e+00
3.418203126166621253e-01 2.237005773659568320e+00
3.428608615133275084e-01 2.290097868087787703e+00
3.439014104099928915e-01 2.079462218049251021e+00
3.449419593066582745e-01 2.100323752362452723e+00
3.459825082033236576e-01 1.935189545542741030e+00
3.470230570999890407e-01 2.258356779587497698e+00
3.480636059966544238e-01 2.383773289099533343e+00
3.491041548933198069e-01 2.207239989584664386e+00
3.501447037899851900e-01 1.962643765415897690e+00
3.511852526866505730e-01 1.922411680434944259e+00
3.522258015833159561e-01 1.935815985252435922e+00
3.532663504799813392e-01 1.932168687524697503e+00
3.543068993766467223e-01 1.956740392443929721e+00
3.553474482733121054e-01 1.956470122629038855e+00
3.563879971699774885e-01 1.934654386469272680e+00
3.574285460666428715e-01 1.964121661532182372e+00
3.584690949633082546e-01 1.719957096906867378e+00
3.595096438599736377e-01 1.738871836292862127e+00
3.605501927566390208e-01 1.855069868374904729e+00
3.615907416533044039e-01 1.947358649188657864e+00
3.626312905499697870e-01 1.858409379411444462e+00
3.636718394466351700e-01 1.751650168503068983e+00
3.647123883433005531e-01 1.857640302793289067e+00
3.657529372399659362e-01 1.775383178386359617e+00
3.667934861366313193e-01 1.656529442218179327e+00
3.678340350332967024e-01 1.894936439938437189e+00
3.688745839299620854e-01 1.979677708557620264e+00
3.699151328266274685e-01 1.963353997583130450e+00
3.709556817232928516e-01 1.660797031399646073e+00
3.719962306199582347e-01 1.655719617431437030e+00
3.730367795166236178e-01 1.847243335260642993e+00
3.740773284132890009e-01 1.924695667636235896e+00
3.751178773099543839e-01 1.919307687450849897e+00
3.761584262066197670e-01 1.910410103980030527e+00
3.771989751032851501e-01 1.919265116689906847e+00
3.782395239999505332e-01 1.714223004786809668e+00
3.792800728966159163e-01 1.604004671920698399e+00
3.803206217932812994e-01 1.876256684998715230e+00
3.813611706899466824e-01 2.066982017100666980e+00
3.824017195866120655e-01 1.776285157269573034e+00
3.834422684832774486e-01 1.553599898060571860e+00
3.844828173799428317e-01 1.624755945280341507e+00
3.855233662766082148e-01 1.691128437669060958e+00
3.865639151732735979e-01 1.504894034830318361e+00
3.876044640699389809e-01 1.706622165033401473e+00
3.886450129666043640e-01 1.880280935076587667e+00
3.896855618632697471e-01 1.942223957234741505e+00
3.907261107599351302e-01 1.821167350744982372e+00
3.917666596566005133e-01 1.658100495471181546e+00
3.928072085532658964e-01 1.755816809702860581e+00
3.938477574499312794e-01 1.839942442747592111e+00
3.948883063465966625e-01 1.740351507666169084e+00
3.959288552432620456e-01 1.532241721540213319e+00
3.969694041399274287e-01 1.483355742404093291e+00
3.980099530365928118e-01 1.560488283545332422e+00
3.990505019332581949e-01 1.509174603941442427e+00
4.000910508299235779e-01 1.641861080522840410e+00
4.011315997265889610e-01 1.622181850587381291e+00
4.021721486232543441e-01 1.682823862048369534e+00
4.032126975199197272e-01 1.699474347213378422e+00
4.042532464165851103e-01 1.593920456976412936e+00
4.052937953132504934e-01 1.580089583681854037e+00
4.063343442099158764e-01 1.445858927144438866e+00
4.073748931065812595e-01 1.489529309487334530e+00
4.084154420032466426e-01 1.493552709385738808e+00
4.094559908999120257e-01 1.493776922929747286e+00
4.104965397965774088e-01 1.710101654990712206e+00
4.115370886932427918e-01 1.566595977704643872e+00
4.125776375899081749e-01 1.283971178851455619e+00
4.136181864865735580e-01 1.381325479552984348e+00
4.146587353832389411e-01 1.394061041374499155e+00
4.156992842799043242e-01 1.299843205534788382e+00
4.167398331765697073e-01 1.222802355170792055e+00
4.177803820732350903e-01 1.130020869484344104e+00
4.188209309699004734e-01 1.084491492478189656e+00
4.198614798665658565e-01 1.390748407379309270e+00
4.209020287632312396e-01 1.370364660712915850e+00
4.219425776598966227e-01 1.387346361613470691e+00
4.229831265565620058e-01 1.461494923746869290e+00
4.240236754532273888e-01 1.288004445542089371e+00
4.250642243498927719e-01 1.131973552631432511e+00
4.261047732465581550e-01 1.219809983844491796e+00
4.271453221432235381e-01 1.261520354501612928e+00
4.281858710398889212e-01 1.138808908472352499e+00
4.292264199365543043e-01 1.246241398483011409e+00
4.302669688332196873e-01 1.327998918606034806e+00
4.313075177298850704e-01 1.298861133543461222e+00
4.323480666265504535e-01 1.214902115500187563e+00
4.333886155232158366e-01 1.104782243280347132e+00
4.344291644198812197e-01 1.171423288104250560e+00
