# q (1/Angstrom), Intensity (arb)
2.029070354705860696e-02 2.418142721702217841e+02
2.133125244372399004e-02 2.153961052004434862e+02
2.237180134038937659e-02 1.924265444228994113e+02
2.341235023705475968e-02 1.741125797485956070e+02
2.445289913372014276e-02 1.575563845001254322e+02
2.549344803038552584e-02 1.445185596576120588e+02
2.653399692705091240e-02 1.345226838443891495e+02
2.757454582371629548e-02 1.263369412523276623e+02
2.861509472038167856e-02 1.201063097137484874e+02
2.965564361704706164e-02 1.127373673843561761e+02
3.069619251371244473e-02 1.073195917393413339e+02
3.173674141037782781e-02 1.010371335590672146e+02
3.277729030704321089e-02 9.756028740977407665e+01
3.381783920370859398e-02 9.535087503806909126e+01
3.485838810037397706e-02 9.133186327110936986e+01
3.589893699703936014e-02 8.800527241004809298e+01
3.693948589370474322e-02 8.540122385303740771e+01
3.798003479037012631e-02 8.320677840839276485e+01
3.902058368703550939e-02 8.275582607299142524e+01
4.006113258370089247e-02 8.273517502695841586e+01
4.110168148036627556e-02 7.964671690850956054e+01
4.214223037703165864e-02 7.837001642576373683e+01
4.318277927369704866e-02 7.881804996873094638e+01
4.422332817036243174e-02 7.896302081086548696e+01
4.526387706702781483e-02 7.817353742325289545e+01
4.630442596369319791e-02 7.672636036435264373e+01
4.734497486035858099e-02 7.627389727435287625e+01
4.838552375702396408e-02 7.850321356768311887e+01
4.942607265368934716e-02 8.101681740879305949e+01
5.046662155035473024e-02 8.273251364913782879e+01
5.150717044702011332e-02 8.475208908454362700e+01
5.254771934368549641e-02 8.736594231536420807e+01
5.358826824035087949e-02 9.269802784890310932e+01
5.462881713701626257e-02 9.613868697751348691e+01
5.566936603368164566e-02 1.016328647237242251e+02
5.670991493034702874e-02 1.104395521379147453e+02
5.775046382701241182e-02 1.231010391844202445e+02
5.879101272367779490e-02 1.437283353467214795e+02
5.983156162034317799e-02 1.843391748005525415e+02
6.087211051700856107e-02 2.647671283790185157e+02
6.191265941367394415e-02 3.996814941275790716e+02
6.295320831033933417e-02 5.829384768281532843e+02
6.399375720700471726e-02 8.707291321278760279e+02
6.503430610367010034e-02 1.279458134521144757e+03
6.607485500033548342e-02 1.483679722007396322e+03
6.711540389700086651e-02 1.210241069960396999e+03
6.815595279366624959e-02 8.305226123975363635e+02
6.919650169033163267e-02 6.348635997579960986e+02
7.023705058699701576e-02 5.540671365605065830e+02
7.127759948366239884e-02 5.158606822979694471e+02
7.231814838032778192e-02 5.017209962565229944e+02
7.335869727699316500e-02 5.064478687422169969e+02
7.439924617365854809e-02 5.212169122580385192e+02
7.543979507032393117e-02 5.321135974980746823e+02
7.648034396698931425e-02 5.185223700705719239e+02
7.752089286365469734e-02 4.848726964412005600e+02
7.856144176032008042e-02 4.559093972709960667e+02
7.960199065698546350e-02 4.391825591870321546e+02
8.064253955365084658e-02 4.281073334789093678e+02
8.168308845031622967e-02 4.156944685038475882e+02
8.272363734698161275e-02 4.018024012993519136e+02
8.376418624364699583e-02 3.876776444365704037e+02
8.480473514031239279e-02 3.699430202798862410e+02
8.584528403697777588e-02 3.510328249659307858e+02
8.688583293364315896e-02 3.322091237654098563e+02
8.792638183030854204e-02 3.131274955590333207e+02
8.896693072697392513e-02 2.938912340967897308e+02
9.000747962363930821e-02 2.743429378248911235e+02
9.104802852030469129e-02 2.545781001828644605e+02
9.208857741697007437e-02 2.341791305098857947e+02
9.312912631363545746e-02 2.150882427081824630e+02
9.416967521030084054e-02 1.967354206628577913e+02
9.521022410696622362e-02 1.783251354982747898e+02
9.625077300363160671e-02 1.612740376956907369e+02
9.729132190029698979e-02 1.452232795505631486e+02
9.833187079696237287e-02 1.298332062660007296e+02
9.937241969362775595e-02 1.166907428374787514e+02
1.004129685902931390e-01 1.052155801589327098e+02
1.014535174869585221e-01 9.416213971142425976e+01
1.024940663836239052e-01 8.526741358120995073e+01
1.035346152802892883e-01 7.921275155365729859e+01
1.045751641769546714e-01 7.891612691712681737e+01
1.056157130736200545e-01 8.574176288632763487e+01
1.066562619702854375e-01 9.557715791397279759e+01
1.076968108669508206e-01 9.881644390480482798e+01
1.087373597636162037e-01 8.663874145178577635e+01
1.097779086602815868e-01 6.785933077621291432e+01
1.108184575569469699e-01 5.338451061862872393e+01
1.118590064536123529e-01 4.528595999995069121e+01
1.128995553502777360e-01 4.183050902716686892e+01
1.139401042469431191e-01 3.789734734891651158e+01
1.149806531436085022e-01 3.467979015461167336e+01
1.160212020402738853e-01 3.339194422306179177e+01
1.170617509369392684e-01 3.293854954775250121e+01
1.181022998336046514e-01 3.257858907398350823e+01
1.191428487302700345e-01 3.247939612341819071e+01
1.201833976269354176e-01 3.392976900536281448e+01
1.212239465236008007e-01 3.717068772511299812e+01
1.222644954202661838e-01 4.309065982665261885e+01
1.233050443169315669e-01 5.503672239394446564e+01
1.243455932135969499e-01 7.241192371832086394e+01
1.253861421102623330e-01 8.937818441584710172e+01
1.264266910069277161e-01 9.328161085196160229e+01
1.274672399035930992e-01 8.051116231604686391e+01
1.285077888002584823e-01 6.225051413496396435e+01
1.295483376969238654e-01 4.960963228077167742e+01
1.305888865935892484e-01 4.452535786724393319e+01
1.316294354902546315e-01 4.184521923667752219e+01
1.326699843869200146e-01 3.668445260314209122e+01
1.337105332835853977e-01 3.083243356783836475e+01
1.347510821802507808e-01 2.620206893594015440e+01
1.357916310769161639e-01 2.377394030606293995e+01
1.368321799735815469e-01 2.275190993772140047e+01
1.378727288702469300e-01 2.206513296041972438e+01
1.389132777669123131e-01 2.164617860210512390e+01
1.399538266635776962e-01 2.125853376740688105e+01
1.409943755602430793e-01 2.134113829910388205e+01
1.420349244569084624e-01 2.148571486447034573e+01
1.430754733535738454e-01 2.143736692210063666e+01
1.441160222502392285e-01 2.132285883522559544e+01
1.451565711469046116e-01 2.074997305612022558e+01
1.461971200435699947e-01 2.109450814692102938e+01
1.472376689402353778e-01 2.109398792296174463e+01
1.482782178369007609e-01 2.069862032170179589e+01
1.493187667335661439e-01 2.032466601933735006e+01
1.503593156302315270e-01 2.003949399514876717e+01
1.513998645268969101e-01 1.992971080216589286e+01
1.524404134235622932e-01 1.966398959022625803e+01
1.534809623202276763e-01 1.933879154396236544e+01
1.545215112168930593e-01 1.872741291502732253e+01
1.555620601135584424e-01 1.764449594994552228e+01
1.566026090102238255e-01 1.753114799443970639e+01
1.576431579068892086e-01 1.733243095586614402e+01
1.586837068035545917e-01 1.691221060635232476e+01
1.597242557002199748e-01 1.694355361856065656e+01
1.607648045968853578e-01 1.601560684189826134e+01
1.618053534935507409e-01 1.601575974134141234e+01
1.628459023902161240e-01 1.659026232924987454e+01
1.638864512868815071e-01 1.670744100827812417e+01
1.649270001835468902e-01 1.739373788949198740e+01
1.659675490802122733e-01 1.864527656578526660e+01
1.670080979768776563e-01 1.864399574170076335e+01
1.680486468735430672e-01 1.920644378764173865e+01
1.690891957702084503e-01 1.934471432821263193e+01
1.701297446668738333e-01 1.894832935405872831e+01
1.711702935635392164e-01 1.697561605255043560e+01
1.722108424602045995e-01 1.490525686386617110e+01
1.732513913568699826e-01 1.342195873306930309e+01
1.742919402535353657e-01 1.183285561078289305e+01
1.753324891502007488e-01 1.128219842565705733e+01
1.763730380468661318e-01 1.066656806807475988e+01
1.774135869435315149e-01 9.948108643049813793e+00
1.784541358401968980e-01 9.610341158151406660e+00
1.794946847368622811e-01 9.041084584181689365e+00
1.805352336335276642e-01 9.039723442774665330e+00
1.815757825301930473e-01 9.444656454161616921e+00
1.826163314268584303e-01 9.575621274819070550e+00
1.836568803235238134e-01 1.001198829966048720e+01
1.846974292201891965e-01 1.073421529727383472e+01
1.857379781168545796e-01 1.128113055141349719e+01
1.867785270135199627e-01 1.093448222405306325e+01
1.878190759101853458e-01 1.010156040478234729e+01
1.888596248068507288e-01 9.370085633382473134e+00
1.899001737035161119e-01 8.830876211781120588e+00
1.909407226001814950e-01 7.999967943105637858e+00
1.919812714968468781e-01 7.105486677982128185e+00
1.930218203935122612e-01 7.095800516431722826e+00
1.940623692901776443e-01 7.347594330371421734e+00
1.951029181868430273e-01 7.545406081024978562e+00
1.961434670835084104e-01 7.644279970924735323e+00
1.971840159801737935e-01 7.699321003729835411e+00
1.982245648768391766e-01 7.036984909667054922e+00
1.992651137735045597e-01 6.401939440075970822e+00
2.003056626701699428e-01 6.112901695780408318e+00
2.013462115668353813e-01 5.658089888332860085e+00
2.023867604635007644e-01 4.769120525304924030e+00
2.034273093601661475e-01 4.458517732854588189e+00
2.044678582568315306e-01 4.249583127152838813e+00
2.055084071534969137e-01 4.409633133934377724e+00
2.065489560501622968e-01 4.308910230799021690e+00
2.075895049468276798e-01 4.428679125273969674e+00
2.086300538434930629e-01 4.517134612567563323e+00
2.096706027401584460e-01 4.547236689552050848e+00
2.107111516368238291e-01 4.217976039441566627e+00
2.117517005334892122e-01 4.049293566323594717e+00
2.127922494301545953e-01 3.860507168064440719e+00
2.138327983268199783e-01 3.752057695301036944e+00
2.148733472234853614e-01 3.887401777895540533e+00
2.159138961201507445e-01 3.914022395244192154e+00
2.169544450168161276e-01 3.612775686768458172e+00
2.179949939134815107e-01 3.738984375249181369e+00
2.190355428101468938e-01 3.940260824945916340e+00
2.200760917068122768e-01 4.150195263512376442e+00
2.211166406034776599e-01 4.349787093274962047e+00
2.221571895001430430e-01 4.439587941341887500e+00
2.231977383968084261e-01 4.445389833400358981e+00
2.242382872934738092e-01 4.414711333656551773e+00
2.252788361901391923e-01 4.516536420584042588e+00
2.263193850868045753e-01 4.249334454281576967e+00
2.273599339834699584e-01 4.316407532702609018e+00
2.284004828801353415e-01 4.317730749632001874e+00
2.294410317768007246e-01 4.450645220610869757e+00
2.304815806734661077e-01 4.390888082693297889e+00
2.315221295701314908e-01 4.209002715607230272e+00
2.325626784667968738e-01 4.024436289339483608e+00
2.336032273634622569e-01 3.996474427262839413e+00
2.346437762601276400e-01 4.017739117158861006e+00
2.356843251567930231e-01 4.057287268700715543e+00
2.367248740534584062e-01 3.667360791698602185e+00
2.377654229501237892e-01 3.661251098515528213e+00
2.388059718467891723e-01 4.211212804819414401e+00
2.398465207434545554e-01 4.367411255625640365e+00
2.408870696401199385e-01 4.296915341877074468e+00
2.419276185367853216e-01 4.002745394706092696e+00
2.429681674334507047e-01 4.225410708724769648e+00
2.440087163301160877e-01 4.035012178733932586e+00
2.450492652267814708e-01 3.582368041325455721e+00
2.460898141234468539e-01 3.723416211246110663e+00
2.471303630201122370e-01 3.861116834708262502e+00
2.481709119167776201e-01 3.924031029844172735e+00
2.492114608134430032e-01 4.113305161828616718e+00
2.502520097101083585e-01 4.275180403590958633e+00
2.512925586067737416e-01 4.352737790616419744e+00
2.523331075034391247e-01 3.786394025333883917e+00
2.533736564001045077e-01 3.313119907897835503e+00
2.544142052967698908e-01 3.385633086560684291e+00
2.554547541934352739e-01 3.477351896884140814e+00
2.564953030901006570e-01 3.432985381632590816e+00
2.575358519867660401e-01 3.250433954633386691e+00
2.585764008834314231e-01 2.958480172376042105e+00
2.596169497800968062e-01 3.026536736377959613e+00
2.606574986767621893e-01 3.110814172781303455e+00
2.616980475734275724e-01 2.972449177643667895e+00
2.627385964700929555e-01 3.152196202814558035e+00
2.637791453667583386e-01 3.234425447218693961e+00
2.648196942634237216e-01 3.129889265999661774e+00
2.658602431600891047e-01 3.246991684099231890e+00
2.669007920567544878e-01 3.156774481076507044e+00
2.679413409534198709e-01 2.791595147018171019e+00
2.689818898500852540e-01 2.894321386670711149e+00
2.700224387467506371e-01 3.058462621852491736e+00
2.710629876434160201e-01 2.991085840391441764e+00
2.721035365400814032e-01 2.956109945026998531e+00
2.731440854367467863e-01 3.050240685789226802e+00
2.741846343334121694e-01 2.735016926012161065e+00
2.752251832300775525e-01 2.567682054682578041e+00
2.762657321267429356e-01 2.877205283350875220e+00
2.773062810234083186e-01 2.744197327909105866e+00
2.783468299200737017e-01 2.618700663946313512e+00
2.793873788167390848e-01 2.809396337958691703e+00
2.804279277134044679e-01 2.773111620577182634e+00
2.814684766100698510e-01 2.692923194882041571e+00
2.825090255067352341e-01 3.016182717715523154e+00
2.835495744034006171e-01 2.911831948146307525e+00
2.845901233000660002e-01 2.669687923947254404e+00
2.856306721967313833e-01 2.573920261896294193e+00
2.866712210933967664e-01 2.517507328824805768e+00
2.877117699900621495e-01 2.482100861120262181e+00
2.887523188867275326e-01 2.352477088604221223e+00
2.897928677833929156e-01 2.686201878547233690e+00
2.908334166800582987e-01 2.661229350753167466e+00
2.918739655767236818e-01 2.567899300606203639e+00
2.929145144733890649e-01 2.835406825080912796e+00
2.939550633700544480e-01 2.733157651946466871e+00
2.949956122667198311e-01 2.596830475092289703e+00
2.960361611633852141e-01 2.641212601841150587e+00
2.970767100600505972e-01 2.645740828171678771e+00
2.981172589567159803e-01 2.557426019807280682e+00
2.991578078533813634e-01 2.426464004171943856e+00
3.001983567500468020e-01 2.731401160235733983e+00
3.012389056467121851e-01 2.695694267616623563e+00
3.022794545433775681e-01 2.698620873672364695e+00
3.033200034400429512e-01 2.490414870607114750e+00
3.043605523367083343e-01 2.442736612897714821e+00
3.054011012333737174e-01 2.521737086432779051e+00
3.064416501300391005e-01 2.680534824910349556e+00
3.074821990267044836e-01 2.752312943656029631e+00
3.085227479233698666e-01 2.562108501729131405e+00
3.095632968200352497e-01 2.746253561781401231e+00
3.106038457167006328e-01 2.719967133731788778e+00
3.116443946133660159e-01 2.705757899861062299e+00
3.126849435100313990e-01 2.779592957004080489e+00
3.137254924066967821e-01 2.788198299188177742e+00
3.147660413033621651e-01 2.513386813489830729e+00
3.158065902000275482e-01 2.528652052782451420e+00
3.168471390966929313e-01 2.921430421049024062e+00
3.178876879933583144e-01 2.952321813448897103e+00
3.189282368900236975e-01 2.590520096156190277e+00
3.199687857866890806e-01 2.840346707183719843e+00
3.210093346833544636e-01 3.037862596582684205e+00
3.220498835800198467e-01 2.905368455162093966e+00
3.230904324766852298e-01 2.688517415114404230e+00
3.241309813733506129e-01 2.502273304850159974e+00
3.251715302700159960e-01 2.542929718547163986e+00
3.262120791666813790e-01 2.517278077415497251e+00
3.272526280633467621e-01 2.351439197627264832e+00
3.282931769600121452e-01 2.559684143699385572e+00
3.293337258566775283e-01 2.680864689693986946e+00
3.303742747533429114e-01 2.694271100412557018e+00
3.314148236500082945e-01 2.520930732895571680e+00
3.324553725466736775e-01 2.509321053342890906e+00
3.334959214433390606e-01 2.497935667946627802e+00
3.345364703400044437e-01 2.320148726640837822e+00
3.355770192366698268e-01 2.375369479470030853e+00
3.366175681333352099e-01 2.369312563538677807e+00
3.376581170300005930e-01 2.382294337143310514e+00
3.386986659266659760e-01 2.403539337498504125e+00
3.397392148233313591e-01 2.241292203841602770e+00
3.407797637199967422e-01 2.516654578285535848e+00
3.418203126166621253e-01 2.410388568330940728e+00
3.428608615133275084e-01 2.409807011349911932e+00
3.439014104099928915e-01 2.608865526265493173e+00
3.449419593066582745e-01 2.312913427544039280e+00
3.459825082033236576e-01 2.193960206671668800e+00
3.470230570999890407e-01 2.331166573737025516e+00
3.480636059966544238e-01 2.127888058120564807e+00
3.491041548933198069e-01 2.040680439965790072e+00
3.501447037899851900e-01 2.266717659764882598e+00
3.511852526866505730e-01 2.253862529205957088e+00
3.522258015833159561e-01 2.193486915450282737e+00
3.532663504799813392e-01 2.320049920886830819e+00
3.543068993766467223e-01 2.266180705248576288e+00
3.553474482733121054e-01 2.303373866820543014e+00
3.563879971699774885e-01 2.466764135417356840e+00
3.574285460666428715e-01 2.232114937971637403e+00
3.584690949633082546e-01 2.291028384069683455e+00
3.595096438599736377e-01 2.327538242920169864e+00
3.605501927566390208e-01 2.325747627957625241e+00
3.615907416533044039e-01 2.288433026076504007e+00
3.626312905499697870e-01 2.279767663153172919e+00
3.636718394466351700e-01 2.239847252498687880e+00
3.647123883433005531e-01 2.058117014271566347e+00
3.657529372399659362e-01 2.379746148474914946e+00
3.667934861366313193e-01 2.450845747901496452e+00
3.678340350332967024e-01 2.459696418452342215e+00
3.688745839299620854e-01 2.254293765940580840e+00
3.699151328266274685e-01 2.351392763622619952e+00
3.709556817232928516e-01 2.203958384841421037e+00
3.719962306199582347e-01 2.292399475032812717e+00
3.730367795166236178e-01 2.299463191497917336e+00
3.740773284132890009e-01 2.270281652487213364e+00
3.751178773099543839e-01 2.447538237242532944e+00
3.761584262066197670e-01 2.532619070532149408e+00
3.771989751032851501e-01 2.454953817846231345e+00
3.782395239999505332e-01 2.383214400219458184e+00
3.792800728966159163e-01 2.408346953537574109e+00
3.803206217932812994e-01 2.366548755333685250e+00
3.813611706899466824e-01 2.467563582274205913e+00
3.824017195866120655e-01 2.331974464419854343e+00
3.834422684832774486e-01 2.199372380558596518e+00
3.844828173799428317e-01 2.346772347052397123e+00
3.855233662766082148e-01 2.427870828897013666e+00
3.865639151732735979e-01 2.318583014114029339e+00
3.876044640699389809e-01 2.135912658301126754e+00
3.886450129666043640e-01 2.327363425987776679e+00
3.896855618632697471e-01 2.373022301478318496e+00
3.907261107599351302e-01 2.098081749382437522e+00
3.917666596566005133e-01 2.110560451266788817e+00
3.928072085532658964e-01 2.283786661808413498e+00
3.938477574499312794e-01 2.087336685704180184e+00
3.948883063465966625e-01 1.802938153312052094e+00
3.959288552432620456e-01 2.009093246559764623e+00
3.969694041399274287e-01 2.083626675079322865e+00
3.980099530365928118e-01 2.042015986401679584e+00
3.990505019332581949e-01 1.894273936716562190e+00
4.000910508299235779e-01 1.843254875146477900e+00
4.011315997265889610e-01 1.979286744136398823e+00
4.021721486232543441e-01 1.811307118297648344e+00
4.032126975199197272e-01 1.961371768457226494e+00
4.042532464165851103e-01 1.925697422720190843e+00
4.052937953132504934e-01 1.931003049419931727e+00
4.063343442099158764e-01 1.880410461297508107e+00
4.073748931065812595e-01 1.977541267246358814e+00
4.084154420032466426e-01 1.999411883684974356e+00
4.094559908999120257e-01 2.009104805247911685e+00
4.104965397965774088e-01 1.874578834403656913e+00
4.115370886932427918e-01 1.759639185628785185e+00
4.125776375899081749e-01 1.956085750181046023e+00
4.136181864865735580e-01 1.735059260644820966e+00
4.146587353832389411e-01 1.779339491584636335e+00
4.156992842799043242e-01 1.701629537062498088e+00
4.167398331765697073e-01 1.655587070595785804e+00
4.177803820732350903e-01 1.887345543715724716e+00
4.188209309699004734e-01 1.960534947778942438e+00
4.198614798665658565e-01 1.898486556500749600e+00
4.209020287632312396e-01 1.915768101099949661e+00
4.219425776598966227e-01 1.715764831171064486e+00
4.229831265565620058e-01 1.666393737265352115e+00
4.240236754532273888e-01 1.764051270359221490e+00
4.250642243498927719e-01 1.428845115571018454e+00
4.261047732465581550e-01 1.220288623103968462e+00
4.271453221432235381e-01 1.313634755123135989e+00
4.281858710398889212e-01 1.437197262024941580e+00
4.292264199365543043e-01 1.771179943359925346e+00
4.302669688332196873e-01 1.911974588482848958e+00
4.313075177298850704e-01 1.783451157609761140e+00
4.323480666265504535e-01 1.667522939369028734e+00
4.333886155232158366e-01 1.830223585026825361e+00
4.344291644198812197e-01 1.730656925174731242e+00
