# q (1/Angstrom), Intensity (arb)
2.029070354705860696e-02 5.155764979169305207e+02
2.133125244372399004e-02 4.531083787799886409e+02
2.237180134038937659e-02 3.983568432881834269e+02
2.341235023705475968e-02 3.556555974629328603e+02
2.445289913372014276e-02 3.221691312169113530e+02
2.549344803038552584e-02 2.925014858433737004e+02
2.653399692705091240e-02 2.698605310317121280e+02
2.757454582371629548e-02 2.487875414827028919e+02
2.861509472038167856e-02 2.323861126420436563e+02
2.965564361704706164e-02 2.195444204621855420e+02
3.069619251371244473e-02 2.110729696057523199e+02
3.173674141037782781e-02 2.002124742788627714e+02
3.277729030704321089e-02 1.926431062886316283e+02
3.381783920370859398e-02 1.855110824708225721e+02
3.485838810037397706e-02 1.806794192517345721e+02
3.589893699703936014e-02 1.751014615534416521e+02
3.693948589370474322e-02 1.725561854865373448e+02
3.798003479037012631e-02 1.700146074423570894e+02
3.902058368703550939e-02 1.689900913950689869e+02
4.006113258370089247e-02 1.673699402611267999e+02
4.110168148036627556e-02 1.671875848345054294e+02
4.214223037703165864e-02 1.679037561411258821e+02
4.318277927369704866e-02 1.706686000933010803e+02
4.422332817036243174e-02 1.729578729343597558e+02
4.526387706702781483e-02 1.767287921875736458e+02
4.630442596369319791e-02 1.842893656096321706e+02
4.734497486035858099e-02 1.939696470342062184e+02
4.838552375702396408e-02 2.035940420189653821e+02
4.942607265368934716e-02 2.177390162531993951e+02
5.046662155035473024e-02 2.371653218645183756e+02
5.150717044702011332e-02 2.657033214171667055e+02
5.254771934368549641e-02 3.166289004610071061e+02
5.358826824035087949e-02 4.214995576885170294e+02
5.462881713701626257e-02 6.248761659915189739e+02
5.566936603368164566e-02 9.417065492790984536e+02
5.670991493034702874e-02 1.420371214275163766e+03
5.775046382701241182e-02 2.185464820006102855e+03
5.879101272367779490e-02 2.796174078011873007e+03
5.983156162034317799e-02 2.472437667652157870e+03
6.087211051700856107e-02 1.762713423459691967e+03
6.191265941367394415e-02 1.407636202639932435e+03
6.295320831033933417e-02 1.305617596075040183e+03
6.399375720700471726e-02 1.300789450112384657e+03
6.503430610367010034e-02 1.335162588321429439e+03
6.607485500033548342e-02 1.391180414664406726e+03
6.711540389700086651e-02 1.439974748683865073e+03
6.815595279366624959e-02 1.435333252219252472e+03
6.919650169033163267e-02 1.373386668765909235e+03
7.023705058699701576e-02 1.301422725820708138e+03
7.127759948366239884e-02 1.239420564251017822e+03
7.231814838032778192e-02 1.173575102426436388e+03
7.335869727699316500e-02 1.101765809174179822e+03
7.439924617365854809e-02 1.028523227746004977e+03
7.543979507032393117e-02 9.435213054018011007e+02
7.648034396698931425e-02 8.618190320027387088e+02
7.752089286365469734e-02 7.807228493360638595e+02
7.856144176032008042e-02 6.994416831254410454e+02
7.960199065698546350e-02 6.213695217256886281e+02
8.064253955365084658e-02 5.533874470390804845e+02
8.168308845031622967e-02 4.870753315511136066e+02
8.272363734698161275e-02 4.265590609018281611e+02
8.376418624364699583e-02 3.719482164513015050e+02
8.480473514031239279e-02 3.229335403051031221e+02
8.584528403697777588e-02 2.812574436005764369e+02
8.688583293364315896e-02 2.433981046956045589e+02
8.792638183030854204e-02 2.108849985976987682e+02
8.896693072697392513e-02 1.846277197690247363e+02
9.000747962363930821e-02 1.628751552448300686e+02
9.104802852030469129e-02 1.451452173006941848e+02
9.208857741697007437e-02 1.327203447110344428e+02
9.312912631363545746e-02 1.315410211885420608e+02
9.416967521030084054e-02 1.489298882482539454e+02
9.521022410696622362e-02 1.801462843937293883e+02
9.625077300363160671e-02 1.940752071051581993e+02
9.729132190029698979e-02 1.634087621782278177e+02
9.833187079696237287e-02 1.189717087240739062e+02
9.937241969362775595e-02 9.165316099101771385e+01
1.004129685902931390e-01 7.967416368217121203e+01
1.014535174869585221e-01 7.424907199964030724e+01
1.024940663836239052e-01 7.016427400868504094e+01
1.035346152802892883e-01 6.766935000545601042e+01
1.045751641769546714e-01 6.736884027371243633e+01
1.056157130736200545e-01 6.814458571610536808e+01
1.066562619702854375e-01 7.030204305004031085e+01
1.076968108669508206e-01 7.469337874116871490e+01
1.087373597636162037e-01 8.428607023422890165e+01
1.097779086602815868e-01 1.031609794220622121e+02
1.108184575569469699e-01 1.371463140352356334e+02
1.118590064536123529e-01 1.771821407466468088e+02
1.128995553502777360e-01 1.916527870373539315e+02
1.139401042469431191e-01 1.641741102299178294e+02
1.149806531436085022e-01 1.274259896155221412e+02
1.160212020402738853e-01 1.081361747150826176e+02
1.170617509369392684e-01 1.003358329730690741e+02
1.181022998336046514e-01 9.194918552192280004e+01
1.191428487302700345e-01 8.158418819662082910e+01
1.201833976269354176e-01 7.157963920915575784e+01
1.212239465236008007e-01 6.687807133857288022e+01
1.222644954202661838e-01 6.597820139440943876e+01
1.233050443169315669e-01 6.598344141600203727e+01
1.243455932135969499e-01 6.606041747660503916e+01
1.253861421102623330e-01 6.604681370084688297e+01
1.264266910069277161e-01 6.590818258443960076e+01
1.274672399035930992e-01 6.643292606128730426e+01
1.285077888002584823e-01 6.666387771192528078e+01
1.295483376969238654e-01 6.587971773645065809e+01
1.305888865935892484e-01 6.506170055776736660e+01
1.316294354902546315e-01 6.385687031629005617e+01
1.326699843869200146e-01 6.241433183097721837e+01
1.337105332835853977e-01 6.137137181483021919e+01
1.347510821802507808e-01 5.957023774472858690e+01
1.357916310769161639e-01 5.767179330708166418e+01
1.368321799735815469e-01 5.623104712505774216e+01
1.378727288702469300e-01 5.318417678908235757e+01
1.389132777669123131e-01 5.048126332322461707e+01
1.399538266635776962e-01 4.849583295620931267e+01
1.409943755602430793e-01 4.651138563526737357e+01
1.420349244569084624e-01 4.397357687815635074e+01
1.430754733535738454e-01 4.214510901345690286e+01
1.441160222502392285e-01 4.033423373662748901e+01
1.451565711469046116e-01 3.974178080315483896e+01
1.461971200435699947e-01 4.145815649508889322e+01
1.472376689402353778e-01 4.338833575808668286e+01
1.482782178369007609e-01 4.412413734510359120e+01
1.493187667335661439e-01 4.453628806186986822e+01
1.503593156302315270e-01 4.503180371920025493e+01
1.513998645268969101e-01 4.493389599795049349e+01
1.524404134235622932e-01 4.197389323090511226e+01
1.534809623202276763e-01 3.576641419366582397e+01
1.545215112168930593e-01 2.970065196409459674e+01
1.555620601135584424e-01 2.531565229426885821e+01
1.566026090102238255e-01 2.292191698500654695e+01
1.576431579068892086e-01 2.129764776648368496e+01
1.586837068035545917e-01 2.019374132609545569e+01
1.597242557002199748e-01 1.887292945429570068e+01
1.607648045968853578e-01 1.834965194174957759e+01
1.618053534935507409e-01 1.841420400220552978e+01
1.628459023902161240e-01 1.875886460043824400e+01
1.638864512868815071e-01 1.962443540909897166e+01
1.649270001835468902e-01 2.083760087158615448e+01
1.659675490802122733e-01 2.182226901598796331e+01
1.670080979768776563e-01 2.149313899253944271e+01
1.680486468735430672e-01 1.997971576270461469e+01
1.690891957702084503e-01 1.758587835344398798e+01
1.701297446668738333e-01 1.629914444021968478e+01
1.711702935635392164e-01 1.529468064676839134e+01
1.722108424602045995e-01 1.432170406395231765e+01
1.732513913568699826e-01 1.461541718122683875e+01
1.742919402535353657e-01 1.458955028437756596e+01
1.753324891502007488e-01 1.488369352428887282e+01
1.763730380468661318e-01 1.498553230455106444e+01
1.774135869435315149e-01 1.411428752909871776e+01
1.784541358401968980e-01 1.246064012155790834e+01
1.794946847368622811e-01 1.138164494353478062e+01
1.805352336335276642e-01 1.052869860009597147e+01
1.815757825301930473e-01 1.027284137232399530e+01
1.826163314268584303e-01 1.007332282238898102e+01
1.836568803235238134e-01 9.866573583018031002e+00
1.846974292201891965e-01 9.652012369653384383e+00
1.857379781168545796e-01 9.298345612420732209e+00
1.867785270135199627e-01 9.247860031506284884e+00
1.878190759101853458e-01 8.611583066272743281e+00
1.888596248068507288e-01 8.455960631180879261e+00
1.899001737035161119e-01 8.552094336672382724e+00
1.909407226001814950e-01 8.748878223408716792e+00
1.919812714968468781e-01 9.113039145815580611e+00
1.930218203935122612e-01 9.159201876518952901e+00
1.940623692901776443e-01 8.900555483525991463e+00
1.951029181868430273e-01 8.814629814621234516e+00
1.961434670835084104e-01 8.810380781698857078e+00
1.971840159801737935e-01 8.922491060212941250e+00
1.982245648768391766e-01 8.925149797493361348e+00
1.992651137735045597e-01 9.450261915249832612e+00
2.003056626701699428e-01 9.898338389910776414e+00
2.013462115668353813e-01 1.076425500418643466e+01
2.023867604635007644e-01 1.078780209281902103e+01
2.034273093601661475e-01 1.018064260494490725e+01
2.044678582568315306e-01 9.393645791241368670e+00
2.055084071534969137e-01 8.728066826001075640e+00
2.065489560501622968e-01 8.314566497933320477e+00
2.075895049468276798e-01 7.724188366091158997e+00
2.086300538434930629e-01 7.296410823868317408e+00
2.096706027401584460e-01 7.343970064519080410e+00
2.107111516368238291e-01 7.130637255088160487e+00
2.117517005334892122e-01 7.233586529894733275e+00
2.127922494301545953e-01 7.479891801287198660e+00
2.138327983268199783e-01 7.223571760498039396e+00
2.148733472234853614e-01 7.139221786918010793e+00
2.159138961201507445e-01 6.860503187711348261e+00
2.169544450168161276e-01 6.586867769276746998e+00
2.179949939134815107e-01 6.215079529383249479e+00
2.190355428101468938e-01 6.392803735717052405e+00
2.200760917068122768e-01 6.261338489803229379e+00
2.211166406034776599e-01 6.207641997835228409e+00
2.221571895001430430e-01 6.524208197832663814e+00
2.231977383968084261e-01 6.518618127376093696e+00
2.242382872934738092e-01 6.315824750499508866e+00
2.252788361901391923e-01 5.826205728083586166e+00
2.263193850868045753e-01 5.264152467712875705e+00
2.273599339834699584e-01 4.884855373503938836e+00
2.284004828801353415e-01 4.451804389333293699e+00
2.294410317768007246e-01 4.234581668398874399e+00
2.304815806734661077e-01 4.043636796572599224e+00
2.315221295701314908e-01 4.364845091935997345e+00
2.325626784667968738e-01 4.229622361921578033e+00
2.336032273634622569e-01 4.291363752972582546e+00
2.346437762601276400e-01 4.151391464616487781e+00
2.356843251567930231e-01 3.627611919919250028e+00
2.367248740534584062e-01 3.562103554276042416e+00
2.377654229501237892e-01 3.872484968069432654e+00
2.388059718467891723e-01 3.857709994722789304e+00
2.398465207434545554e-01 3.779099398849577796e+00
2.408870696401199385e-01 3.291567765997751138e+00
2.419276185367853216e-01 3.405714413831674392e+00
2.429681674334507047e-01 3.867934764095370070e+00
2.440087163301160877e-01 3.701708912016119513e+00
2.450492652267814708e-01 3.557937596585851736e+00
2.460898141234468539e-01 3.404841498761683738e+00
2.471303630201122370e-01 3.581729380515088934e+00
2.481709119167776201e-01 3.419149896590568005e+00
2.492114608134430032e-01 2.929769716824221604e+00
2.502520097101083585e-01 3.132928966255189351e+00
2.512925586067737416e-01 3.085905845307056694e+00
2.523331075034391247e-01 3.130400671703000626e+00
2.533736564001045077e-01 3.526167973192507077e+00
2.544142052967698908e-01 3.567115036956643337e+00
2.554547541934352739e-01 3.572386205656414404e+00
2.564953030901006570e-01 3.458058273807196770e+00
2.575358519867660401e-01 3.506263902220762674e+00
2.585764008834314231e-01 3.602183943491347407e+00
2.596169497800968062e-01 3.645229537631053063e+00
2.606574986767621893e-01 3.871163372619630394e+00
2.616980475734275724e-01 3.867631166227088357e+00
2.627385964700929555e-01 3.401681634230797613e+00
2.637791453667583386e-01 3.102164622838735397e+00
2.648196942634237216e-01 3.066110136029458033e+00
2.658602431600891047e-01 3.127149518345824220e+00
2.669007920567544878e-01 3.145955691824738665e+00
2.679413409534198709e-01 3.041859592003167023e+00
2.689818898500852540e-01 2.765389840068429805e+00
2.700224387467506371e-01 3.012363047561819940e+00
2.710629876434160201e-01 3.105566932472395791e+00
2.721035365400814032e-01 3.021829857128434327e+00
2.731440854367467863e-01 2.847583818902158725e+00
2.741846343334121694e-01 2.801469427706937410e+00
2.752251832300775525e-01 2.896990427833561199e+00
2.762657321267429356e-01 2.833819988060124473e+00
2.773062810234083186e-01 2.921143462974828964e+00
2.783468299200737017e-01 2.999424624819756247e+00
2.793873788167390848e-01 2.903737490188696313e+00
2.804279277134044679e-01 3.106252545914514940e+00
2.814684766100698510e-01 3.194433321059104713e+00
2.825090255067352341e-01 3.127581307481346329e+00
2.835495744034006171e-01 2.985487023915712967e+00
2.845901233000660002e-01 2.722220341149657941e+00
2.856306721967313833e-01 2.643090703021833576e+00
2.866712210933967664e-01 2.490409432148862123e+00
2.877117699900621495e-01 2.538477602976243475e+00
2.887523188867275326e-01 2.606165317116680313e+00
2.897928677833929156e-01 2.491021012870273665e+00
2.908334166800582987e-01 2.693735641705750083e+00
2.918739655767236818e-01 2.793661499491744138e+00
2.929145144733890649e-01 2.860879282231280740e+00
2.939550633700544480e-01 2.645936535030926962e+00
2.949956122667198311e-01 2.407583405423846301e+00
2.960361611633852141e-01 2.372913180530801469e+00
2.970767100600505972e-01 2.364213222632667311e+00
2.981172589567159803e-01 2.377558822757499968e+00
2.991578078533813634e-01 2.258014709481752647e+00
3.001983567500468020e-01 2.272203882430378741e+00
3.012389056467121851e-01 2.238257654228910098e+00
3.022794545433775681e-01 2.130274004596397930e+00
3.033200034400429512e-01 2.008951989969474994e+00
3.043605523367083343e-01 2.137945793396827554e+00
3.054011012333737174e-01 2.090939355125151167e+00
3.064416501300391005e-01 2.125696514786824309e+00
3.074821990267044836e-01 2.134514653376221816e+00
3.085227479233698666e-01 2.295659314461833134e+00
3.095632968200352497e-01 2.237471660376726845e+00
3.106038457167006328e-01 2.252988850745353488e+00
3.116443946133660159e-01 2.325865773130320946e+00
3.126849435100313990e-01 1.962573018724661722e+00
3.137254924066967821e-01 1.964561744661338594e+00
3.147660413033621651e-01 2.127025527620133971e+00
3.158065902000275482e-01 2.095263231275190208e+00
3.168471390966929313e-01 2.198285388470761603e+00
3.178876879933583144e-01 2.286463202040714293e+00
3.189282368900236975e-01 2.405136689998208510e+00
3.199687857866890806e-01 2.169406308189905985e+00
3.210093346833544636e-01 1.997943469927108140e+00
3.220498835800198467e-01 1.823915892667120175e+00
3.230904324766852298e-01 1.960478227373823046e+00
3.241309813733506129e-01 2.374694096554208045e+00
3.251715302700159960e-01 2.258394294502224398e+00
3.262120791666813790e-01 1.756218362468334959e+00
3.272526280633467621e-01 2.024345614920740388e+00
3.282931769600121452e-01 2.191078512437222514e+00
3.293337258566775283e-01 2.093218863144585384e+00
3.303742747533429114e-01 1.999865317459875058e+00
3.314148236500082945e-01 2.384675569744302948e+00
3.324553725466736775e-01 2.318877948483184070e+00
3.334959214433390606e-01 2.142661390521752196e+00
3.345364703400044437e-01 2.252584743048196003e+00
3.355770192366698268e-01 2.062236203109559796e+00
3.366175681333352099e-01 1.834296682479720886e+00
3.376581170300005930e-01 2.139856294107712387e+00
3.386986659266659760e-01 1.989108851755091223e+00
3.397392148233313591e-01 2.077452032438593221e+00
3.407797637199967422e-01 2.276791860973670367e+00
3.418203126166621253e-01 2.216973322179377703e+00
3.428608615133275084e-01 1.830064135333266506e+00
3.439014104099928915e-01 1.837663515035764306e+00
3.449419593066582745e-01 1.787748785203902457e+00
3.459825082033236576e-01 2.110161511191485317e+00
3.470230570999890407e-01 2.106456108310325703e+00
3.480636059966544238e-01 1.707234216354407863e+00
3.491041548933198069e-01 1.802189332065793792e+00
3.501447037899851900e-01 2.032693359062999860e+00
3.511852526866505730e-01 1.815843373375649605e+00
3.522258015833159561e-01 1.791259840161576022e+00
3.532663504799813392e-01 1.958617523271712457e+00
3.543068993766467223e-01 2.138297703080436207e+00
3.553474482733121054e-01 2.012975898876458558e+00
3.563879971699774885e-01 1.857672539551206370e+00
3.574285460666428715e-01 1.704576875456201179e+00
3.584690949633082546e-01 1.486654386096347480e+00
3.595096438599736377e-01 1.581946995728372940e+00
3.605501927566390208e-01 1.770022000973835219e+00
3.615907416533044039e-01 1.574172459099113297e+00
3.626312905499697870e-01 1.717327063883100635e+00
3.636718394466351700e-01 1.831225595420249874e+00
3.647123883433005531e-01 1.609879646993420010e+00
3.657529372399659362e-01 1.748885739713617937e+00
3.667934861366313193e-01 1.828802247614152776e+00
3.678340350332967024e-01 1.874195889189831377e+00
3.688745839299620854e-01 1.735019854951303842e+00
3.699151328266274685e-01 1.662033289828325877e+00
3.709556817232928516e-01 1.516079247297462018e+00
3.719962306199582347e-01 1.580922326724323312e+00
3.730367795166236178e-01 1.623422787089285890e+00
3.740773284132890009e-01 1.589197186520426186e+00
3.751178773099543839e-01 1.629676169784328721e+00
3.761584262066197670e-01 1.576224285164805394e+00
3.771989751032851501e-01 1.680017163965487725e+00
3.782395239999505332e-01 1.571188860831234990e+00
3.792800728966159163e-01 1.462256113855620043e+00
3.803206217932812994e-01 1.368644996737543806e+00
3.813611706899466824e-01 1.493348363271795876e+00
3.824017195866120655e-01 1.674984152079524335e+00
3.834422684832774486e-01 1.526800590634916688e+00
3.844828173799428317e-01 1.658082348998700439e+00
3.855233662766082148e-01 1.669223190942876300e+00
3.865639151732735979e-01 1.393045974858850400e+00
3.876044640699389809e-01 1.624120096729804175e+00
3.886450129666043640e-01 1.786748374577022958e+00
3.896855618632697471e-01 1.806940203030233505e+00
3.907261107599351302e-01 1.559175937680819857e+00
3.917666596566005133e-01 1.505567807712154149e+00
3.928072085532658964e-01 1.594043604026033734e+00
3.938477574499312794e-01 1.580170843390458657e+00
3.948883063465966625e-01 1.615106622486987220e+00
3.959288552432620456e-01 1.550543627530608148e+00
3.969694041399274287e-01 1.716125477942597399e+00
3.980099530365928118e-01 1.745501095135427505e+00
3.990505019332581949e-01 1.417631992142549535e+00
4.000910508299235779e-01 1.415462253985822372e+00
4.011315997265889610e-01 1.657407554793319804e+00
4.021721486232543441e-01 1.533660478035198338e+00
4.032126975199197272e-01 1.295126799280531316e+00
4.042532464165851103e-01 1.427895557668140469e+00
4.052937953132504934e-01 1.466504872663421111e+00
4.063343442099158764e-01 1.314152604098172361e+00
4.073748931065812595e-01 1.137100713089630233e+00
4.084154420032466426e-01 1.195004228501883148e+00
4.094559908999120257e-01 1.329658602652102672e+00
4.104965397965774088e-01 1.326909317664920707e+00
4.115370886932427918e-01 1.233854886227756964e+00
4.125776375899081749e-01 1.269174670701762153e+00
4.136181864865735580e-01 1.351691979948071776e+00
4.146587353832389411e-01 1.326478694743371989e+00
4.156992842799043242e-01 1.135323969961355317e+00
4.167398331765697073e-01 1.074583676585628922e+00
4.177803820732350903e-01 1.127947537070390638e+00
4.188209309699004734e-01 9.898725776985770608e-01
4.198614798665658565e-01 9.801156302741063087e-01
4.209020287632312396e-01 1.145555822047885641e+00
4.219425776598966227e-01 1.244835426645099830e+00
4.229831265565620058e-01 1.270758152137190677e+00
4.240236754532273888e-01 1.153189666383354961e+00
4.250642243498927719e-01 1.033627066397439620e+00
4.261047732465581550e-01 1.142075459953328931e+00
4.271453221432235381e-01 1.190453112381643308e+00
4.281858710398889212e-01 1.123159865988224482e+00
4.292264199365543043e-01 1.296046192224896032e+00
4.302669688332196873e-01 1.192107471064939972e+00
4.313075177298850704e-01 1.131177379793758320e+00
4.323480666265504535e-01 1.139061079005777799e+00
4.333886155232158366e-01 1.104441756124256102e+00
4.344291644198812197e-01 1.060575636469646810e+00
