# q (1/Angstrom), Intensity (arb)
2.029070354705860696e-02 9.647576708752043260e+02
2.133125244372399004e-02 8.541975653189923605e+02
2.237180134038937659e-02 7.669169207112108779e+02
2.341235023705475968e-02 6.964703831520612312e+02
2.445289913372014276e-02 6.422967804665964877e+02
2.549344803038552584e-02 5.921786788770600651e+02
2.653399692705091240e-02 5.503015037434205396e+02
2.757454582371629548e-02 5.163322629408762623e+02
2.861509472038167856e-02 4.903339427534817219e+02
2.965564361704706164e-02 4.674818666668231799e+02
3.069619251371244473e-02 4.468695414302564473e+02
3.173674141037782781e-02 4.335184380786707266e+02
3.277729030704321089e-02 4.227608191153277630e+02
3.381783920370859398e-02 4.145964778945635771e+02
3.485838810037397706e-02 4.106684503063319767e+02
3.589893699703936014e-02 4.075621938234019694e+02
3.693948589370474322e-02 4.047362923291367451e+02
3.798003479037012631e-02 4.064442605677784286e+02
3.902058368703550939e-02 4.100373000475506160e+02
4.006113258370089247e-02 4.154152343877549924e+02
4.110168148036627556e-02 4.260523528736136427e+02
4.214223037703165864e-02 4.378109976551408522e+02
4.318277927369704866e-02 4.588015358925838996e+02
4.422332817036243174e-02 4.851860484772624886e+02
4.526387706702781483e-02 5.174068982813063258e+02
4.630442596369319791e-02 5.704544975138185237e+02
4.734497486035858099e-02 6.541324364467005807e+02
4.838552375702396408e-02 8.140961768028574852e+02
4.942607265368934716e-02 1.153155480269292866e+03
5.046662155035473024e-02 1.732173607574371545e+03
5.150717044702011332e-02 2.644010154427781345e+03
5.254771934368549641e-02 4.058127777318286007e+03
5.358826824035087949e-02 5.012132337880420891e+03
5.462881713701626257e-02 4.350215555648223017e+03
5.566936603368164566e-02 3.338370268914758981e+03
5.670991493034702874e-02 2.982273919118020331e+03
5.775046382701241182e-02 2.994932848752493555e+03
5.879101272367779490e-02 3.112214864202243007e+03
5.983156162034317799e-02 3.249016809003511298e+03
6.087211051700856107e-02 3.325091881672185536e+03
6.191265941367394415e-02 3.275590956363218083e+03
6.295320831033933417e-02 3.082896657890499682e+03
6.399375720700471726e-02 2.841529098825954861e+03
6.503430610367010034e-02 2.602702874352473827e+03
6.607485500033548342e-02 2.354825812314164978e+03
6.711540389700086651e-02 2.102624632967892921e+03
6.815595279366624959e-02 1.848443361683773219e+03
6.919650169033163267e-02 1.606542491291104625e+03
7.023705058699701576e-02 1.375363223527645232e+03
7.127759948366239884e-02 1.166988085541135661e+03
7.231814838032778192e-02 9.823457651441840426e+02
7.335869727699316500e-02 8.209951383729918462e+02
7.439924617365854809e-02 6.845788636409164383e+02
7.543979507032393117e-02 5.688883443846366390e+02
7.648034396698931425e-02 4.758032838209683746e+02
7.752089286365469734e-02 3.998420767513260898e+02
7.856144176032008042e-02 3.354355034168634120e+02
7.960199065698546350e-02 2.852159241132949319e+02
8.064253955365084658e-02 2.463571447084772501e+02
8.168308845031622967e-02 2.164359806401507171e+02
8.272363734698161275e-02 1.955705788239460787e+02
8.376418624364699583e-02 1.869116044858172074e+02
8.480473514031239279e-02 2.025660550023292785e+02
8.584528403697777588e-02 2.584928452021395060e+02
8.688583293364315896e-02 3.336625122976595890e+02
8.792638183030854204e-02 3.390860664971651204e+02
8.896693072697392513e-02 2.615139349246485381e+02
9.000747962363930821e-02 1.934193798718046935e+02
9.104802852030469129e-02 1.633679520862453103e+02
9.208857741697007437e-02 1.529199337237579357e+02
9.312912631363545746e-02 1.507353790367960187e+02
9.416967521030084054e-02 1.526336417007802311e+02
9.521022410696622362e-02 1.557220937086228787e+02
9.625077300363160671e-02 1.617197362439258370e+02
9.729132190029698979e-02 1.701930653907645308e+02
9.833187079696237287e-02 1.827259985730732410e+02
9.937241969362775595e-02 2.080855417994195022e+02
1.004129685902931390e-01 2.589747677799111329e+02
1.014535174869585221e-01 3.346492386253348172e+02
1.024940663836239052e-01 3.759311744201070837e+02
1.035346152802892883e-01 3.358375159316464078e+02
1.045751641769546714e-01 2.668555392669070443e+02
1.056157130736200545e-01 2.312297598046496887e+02
1.066562619702854375e-01 2.181117052315628655e+02
1.076968108669508206e-01 2.034351747245172817e+02
1.087373597636162037e-01 1.845652409117077184e+02
1.097779086602815868e-01 1.745986894409027457e+02
1.108184575569469699e-01 1.706969750496833171e+02
1.118590064536123529e-01 1.700585937259665741e+02
1.128995553502777360e-01 1.706435816015918476e+02
1.139401042469431191e-01 1.701094134380104776e+02
1.149806531436085022e-01 1.699834474227137378e+02
1.160212020402738853e-01 1.696932902186927095e+02
1.170617509369392684e-01 1.661556769038583923e+02
1.181022998336046514e-01 1.619550068300831640e+02
1.191428487302700345e-01 1.560319789782516011e+02
1.201833976269354176e-01 1.498850060801196094e+02
1.212239465236008007e-01 1.422071467131331985e+02
1.222644954202661838e-01 1.346209623789351610e+02
1.233050443169315669e-01 1.263481721125782542e+02
1.243455932135969499e-01 1.186297348078150833e+02
1.253861421102623330e-01 1.102838111759865569e+02
1.264266910069277161e-01 1.015542136905906574e+02
1.274672399035930992e-01 9.384889686511152718e+01
1.285077888002584823e-01 8.781913561216310882e+01
1.295483376969238654e-01 8.217922132908506683e+01
1.305888865935892484e-01 7.717763579727383672e+01
1.316294354902546315e-01 7.400196564333569427e+01
1.326699843869200146e-01 7.447625273896487386e+01
1.337105332835853977e-01 7.841234534165664627e+01
1.347510821802507808e-01 8.174810715738765055e+01
1.357916310769161639e-01 8.214463412179861734e+01
1.368321799735815469e-01 8.213386682973587938e+01
1.378727288702469300e-01 8.139178787976349838e+01
1.389132777669123131e-01 7.303615272242262790e+01
1.399538266635776962e-01 5.863987755274018809e+01
1.409943755602430793e-01 4.685044340639889526e+01
1.420349244569084624e-01 4.041601110795736673e+01
1.430754733535738454e-01 3.674997652705948781e+01
1.441160222502392285e-01 3.472473021663195425e+01
1.451565711469046116e-01 3.400696742285060026e+01
1.461971200435699947e-01 3.361830159459027811e+01
1.472376689402353778e-01 3.342236024297403674e+01
1.482782178369007609e-01 3.500196744086370160e+01
1.493187667335661439e-01 3.751715837492930916e+01
1.503593156302315270e-01 4.106192216969573394e+01
1.513998645268969101e-01 4.274131468025775149e+01
1.524404134235622932e-01 4.114443828688720828e+01
1.534809623202276763e-01 3.721564280333848274e+01
1.545215112168930593e-01 3.394464070535249078e+01
1.555620601135584424e-01 3.216978670148849773e+01
1.566026090102238255e-01 3.119855535143964431e+01
1.576431579068892086e-01 3.102117448226514540e+01
1.586837068035545917e-01 3.094504960055009946e+01
1.597242557002199748e-01 3.140926837267497973e+01
1.607648045968853578e-01 3.111769051438015765e+01
1.618053534935507409e-01 2.986854267041449873e+01
1.628459023902161240e-01 2.763194038700957123e+01
1.638864512868815071e-01 2.559215577862465096e+01
1.649270001835468902e-01 2.471517811054803815e+01
1.659675490802122733e-01 2.451750800254162499e+01
1.670080979768776563e-01 2.368858280498394464e+01
1.680486468735430672e-01 2.283426466895157603e+01
1.690891957702084503e-01 2.192337926042623053e+01
1.701297446668738333e-01 2.178525749322741234e+01
1.711702935635392164e-01 2.152706985119279892e+01
1.722108424602045995e-01 2.111545731208416754e+01
1.732513913568699826e-01 2.057085908179514888e+01
1.742919402535353657e-01 2.049399889085270132e+01
1.753324891502007488e-01 2.043701139652375076e+01
1.763730380468661318e-01 2.001793705106052812e+01
1.774135869435315149e-01 1.985198438533149101e+01
1.784541358401968980e-01 1.952008373396426322e+01
1.794946847368622811e-01 1.997678126676161270e+01
1.805352336335276642e-01 2.068715609906664810e+01
1.815757825301930473e-01 2.233727281352028626e+01
1.826163314268584303e-01 2.417677677938180381e+01
1.836568803235238134e-01 2.384036111953550829e+01
1.846974292201891965e-01 2.236986059704373275e+01
1.857379781168545796e-01 2.084722715325941778e+01
1.867785270135199627e-01 1.916039937183292352e+01
1.878190759101853458e-01 1.731581448333211881e+01
1.888596248068507288e-01 1.623044453946108945e+01
1.899001737035161119e-01 1.492601961161847157e+01
1.909407226001814950e-01 1.439437154124388485e+01
1.919812714968468781e-01 1.399044424201107972e+01
1.930218203935122612e-01 1.380982400748633410e+01
1.940623692901776443e-01 1.338653510424843063e+01
1.951029181868430273e-01 1.352444737305585676e+01
1.961434670835084104e-01 1.319270826217451287e+01
1.971840159801737935e-01 1.238830090222449343e+01
1.982245648768391766e-01 1.211135905851778460e+01
1.992651137735045597e-01 1.181592535266261734e+01
2.003056626701699428e-01 1.149533368743252026e+01
2.013462115668353813e-01 1.160987998327239978e+01
2.023867604635007644e-01 1.162697968014882477e+01
2.034273093601661475e-01 1.174592875118664637e+01
2.044678582568315306e-01 1.133229644249632528e+01
2.055084071534969137e-01 1.041044380361621435e+01
2.065489560501622968e-01 9.326498116507899283e+00
2.075895049468276798e-01 8.803300324684727229e+00
2.086300538434930629e-01 8.188616159836175967e+00
2.096706027401584460e-01 7.809926475259072021e+00
2.107111516368238291e-01 7.427463914104173170e+00
2.117517005334892122e-01 7.077539845457220480e+00
2.127922494301545953e-01 6.949013711000731064e+00
2.138327983268199783e-01 6.793311322576652600e+00
2.148733472234853614e-01 6.696508513186572031e+00
2.159138961201507445e-01 6.676365081252356504e+00
2.169544450168161276e-01 6.562727418330112528e+00
2.179949939134815107e-01 6.386128724366098908e+00
2.190355428101468938e-01 6.192904148919446072e+00
2.200760917068122768e-01 6.047235556352855923e+00
2.211166406034776599e-01 6.164892150312397234e+00
2.221571895001430430e-01 6.015156328145856435e+00
2.231977383968084261e-01 5.934411054090688253e+00
2.242382872934738092e-01 6.409801959864903864e+00
2.252788361901391923e-01 6.336699267827430759e+00
2.263193850868045753e-01 6.092955369305862234e+00
2.273599339834699584e-01 6.278653088795159931e+00
2.284004828801353415e-01 6.130406572832352907e+00
2.294410317768007246e-01 6.117696170741986350e+00
2.304815806734661077e-01 6.233449543071508003e+00
2.315221295701314908e-01 6.337912697810811125e+00
2.325626784667968738e-01 6.480841885188265650e+00
2.336032273634622569e-01 6.824156946784253108e+00
2.346437762601276400e-01 6.818018319293695839e+00
2.356843251567930231e-01 6.913200331478247307e+00
2.367248740534584062e-01 6.938979545595124421e+00
2.377654229501237892e-01 6.715660315823878790e+00
2.388059718467891723e-01 6.460240214567161132e+00
2.398465207434545554e-01 6.302884334347314876e+00
2.408870696401199385e-01 5.799948725932413396e+00
2.419276185367853216e-01 5.197349153741125605e+00
2.429681674334507047e-01 4.978923306270743865e+00
2.440087163301160877e-01 4.774747286463792761e+00
2.450492652267814708e-01 4.857812241997393699e+00
2.460898141234468539e-01 4.777596204769864130e+00
2.471303630201122370e-01 4.488211022777260695e+00
2.481709119167776201e-01 4.272901115507242054e+00
2.492114608134430032e-01 4.496758157881380669e+00
2.502520097101083585e-01 4.411611713516467859e+00
2.512925586067737416e-01 4.502746558262607834e+00
2.523331075034391247e-01 4.620095314221114080e+00
2.533736564001045077e-01 4.521795173896222764e+00
2.544142052967698908e-01 4.051960276787795578e+00
2.554547541934352739e-01 3.714863264465847692e+00
2.564953030901006570e-01 3.655465131954294122e+00
2.575358519867660401e-01 3.698413163113269064e+00
2.585764008834314231e-01 3.604779719139539651e+00
2.596169497800968062e-01 3.575514925707601321e+00
2.606574986767621893e-01 3.241367932545596631e+00
2.616980475734275724e-01 3.188476280450888822e+00
2.627385964700929555e-01 3.423634516858147236e+00
2.637791453667583386e-01 3.365774478469230502e+00
2.648196942634237216e-01 2.992400647589356311e+00
2.658602431600891047e-01 3.173510913828106794e+00
2.669007920567544878e-01 2.999935258246701153e+00
2.679413409534198709e-01 2.965099663194180835e+00
2.689818898500852540e-01 2.905340736342303387e+00
2.700224387467506371e-01 3.104009602695924741e+00
2.710629876434160201e-01 3.158720978374397248e+00
2.721035365400814032e-01 2.704738389924550290e+00
2.731440854367467863e-01 2.642438958014857064e+00
2.741846343334121694e-01 2.850655675493392494e+00
2.752251832300775525e-01 2.963689903209171916e+00
2.762657321267429356e-01 3.223220945093615342e+00
2.773062810234083186e-01 3.022635049235244509e+00
2.783468299200737017e-01 2.874162874265511647e+00
2.793873788167390848e-01 3.328557680535720209e+00
2.804279277134044679e-01 3.500089926398121776e+00
2.814684766100698510e-01 3.369479036118047333e+00
2.825090255067352341e-01 3.374095327843981806e+00
2.835495744034006171e-01 3.498590540194907561e+00
2.845901233000660002e-01 3.486462861286355519e+00
2.856306721967313833e-01 3.130750713582710176e+00
2.866712210933967664e-01 2.700012750988658894e+00
2.877117699900621495e-01 2.443215598192487903e+00
2.887523188867275326e-01 2.555831221210393522e+00
2.897928677833929156e-01 2.645348908414703715e+00
2.908334166800582987e-01 2.623724182036088592e+00
2.918739655767236818e-01 2.633319230047025172e+00
2.929145144733890649e-01 2.789472259986943925e+00
2.939550633700544480e-01 2.726618233870343744e+00
2.949956122667198311e-01 2.759550896764839223e+00
2.960361611633852141e-01 2.677967514300640062e+00
2.970767100600505972e-01 2.597037568817100350e+00
2.981172589567159803e-01 2.526211221116145822e+00
2.991578078533813634e-01 2.620922649299419760e+00
3.001983567500468020e-01 2.700507470807277599e+00
3.012389056467121851e-01 2.497821765920370751e+00
3.022794545433775681e-01 2.423308992054032274e+00
3.033200034400429512e-01 2.289223027306832137e+00
3.043605523367083343e-01 2.182640425504068560e+00
3.054011012333737174e-01 2.399110693510991155e+00
3.064416501300391005e-01 2.281608228901905733e+00
3.074821990267044836e-01 2.262717772333854072e+00
3.085227479233698666e-01 2.422701338935006277e+00
3.095632968200352497e-01 2.272133265414190362e+00
3.106038457167006328e-01 2.028182358324833956e+00
3.116443946133660159e-01 1.995094563326784254e+00
3.126849435100313990e-01 2.044727172355482736e+00
3.137254924066967821e-01 1.924825335552863947e+00
3.147660413033621651e-01 1.979570410227562860e+00
3.158065902000275482e-01 1.898291594171734431e+00
3.168471390966929313e-01 1.986988524786081456e+00
3.178876879933583144e-01 2.034819577418815584e+00
3.189282368900236975e-01 1.918147535070545473e+00
3.199687857866890806e-01 1.790914511905892681e+00
3.210093346833544636e-01 1.939387229187534700e+00
3.220498835800198467e-01 1.974189646145493526e+00
3.230904324766852298e-01 1.792546209545545111e+00
3.241309813733506129e-01 1.725733113896094295e+00
3.251715302700159960e-01 1.696288063739714858e+00
3.262120791666813790e-01 1.754852859932299225e+00
3.272526280633467621e-01 1.666676248839625174e+00
3.282931769600121452e-01 1.744727859623353083e+00
3.293337258566775283e-01 1.559835143641123523e+00
3.303742747533429114e-01 1.780708835859275752e+00
3.314148236500082945e-01 1.899997415716018878e+00
3.324553725466736775e-01 1.888811408007885717e+00
3.334959214433390606e-01 1.773965331259891087e+00
3.345364703400044437e-01 1.781672705901868881e+00
3.355770192366698268e-01 2.031639732615783345e+00
3.366175681333352099e-01 2.091597631712151184e+00
3.376581170300005930e-01 1.857624465801023916e+00
3.386986659266659760e-01 1.933490096453549967e+00
3.397392148233313591e-01 1.960989184006557196e+00
3.407797637199967422e-01 1.837914018047346332e+00
3.418203126166621253e-01 1.790582145688802029e+00
3.428608615133275084e-01 1.740552197280798907e+00
3.439014104099928915e-01 1.713840470072032218e+00
3.449419593066582745e-01 1.651971805312740571e+00
3.459825082033236576e-01 1.832061988386705309e+00
3.470230570999890407e-01 1.473525814937246992e+00
3.480636059966544238e-01 1.427358472370283238e+00
3.491041548933198069e-01 1.688725042258251818e+00
3.501447037899851900e-01 1.999344304682537654e+00
3.511852526866505730e-01 2.051245356591625324e+00
3.522258015833159561e-01 1.803388532000610667e+00
3.532663504799813392e-01 1.589594169586341366e+00
3.543068993766467223e-01 1.632957052909397078e+00
3.553474482733121054e-01 1.386147342747548805e+00
3.563879971699774885e-01 1.531011944965371185e+00
3.574285460666428715e-01 1.507439303695846888e+00
3.584690949633082546e-01 1.494786607211302965e+00
3.595096438599736377e-01 1.491667907429274464e+00
3.605501927566390208e-01 1.525763157207389753e+00
3.615907416533044039e-01 1.553658793331592847e+00
3.626312905499697870e-01 1.312002060910426593e+00
3.636718394466351700e-01 1.354866704113806719e+00
3.647123883433005531e-01 1.296257960607057669e+00
3.657529372399659362e-01 1.237368509786463733e+00
3.667934861366313193e-01 1.198299745985071496e+00
3.678340350332967024e-01 1.105909706667073777e+00
3.688745839299620854e-01 1.327135716738087723e+00
3.699151328266274685e-01 1.134576533943121746e+00
3.709556817232928516e-01 1.194193397186186445e+00
3.719962306199582347e-01 1.497562824725186204e+00
3.730367795166236178e-01 1.397761169314321705e+00
3.740773284132890009e-01 1.183719980506566571e+00
3.751178773099543839e-01 1.204985209431171711e+00
3.761584262066197670e-01 1.370274795760643372e+00
3.771989751032851501e-01 1.219078865589175109e+00
3.782395239999505332e-01 1.175493866835928713e+00
3.792800728966159163e-01 1.178267322262080086e+00
3.803206217932812994e-01 1.415172870669550775e+00
3.813611706899466824e-01 1.441220329558358770e+00
3.824017195866120655e-01 1.284757267842550732e+00
3.834422684832774486e-01 1.157753140881794707e+00
3.844828173799428317e-01 1.057916220042873334e+00
3.855233662766082148e-01 1.282797418684175739e+00
3.865639151732735979e-01 1.148045018207039192e+00
3.876044640699389809e-01 9.791907488385547254e-01
3.886450129666043640e-01 1.036566439821498875e+00
3.896855618632697471e-01 1.212222233710846808e+00
3.907261107599351302e-01 1.411375663941988989e+00
3.917666596566005133e-01 1.297560785014709950e+00
3.928072085532658964e-01 1.215077048920932157e+00
3.938477574499312794e-01 1.228757475425641843e+00
3.948883063465966625e-01 1.252379207121617100e+00
3.959288552432620456e-01 1.276231980815360600e+00
3.969694041399274287e-01 1.149669589424114235e+00
3.980099530365928118e-01 1.083302156530219662e+00
3.990505019332581949e-01 1.192978712833905774e+00
4.000910508299235779e-01 1.280340736943205826e+00
4.011315997265889610e-01 1.282661218137111092e+00
4.021721486232543441e-01 1.034491888827307804e+00
4.032126975199197272e-01 1.010304930794653444e+00
4.042532464165851103e-01 1.279784617934598856e+00
4.052937953132504934e-01 1.421634872185666865e+00
4.063343442099158764e-01 1.218459713415558809e+00
4.073748931065812595e-01 1.117255684375269453e+00
4.084154420032466426e-01 1.063716601178406052e+00
4.094559908999120257e-01 9.412126800418612049e-01
4.104965397965774088e-01 8.872847572859718923e-01
4.115370886932427918e-01 1.162715362716554068e+00
4.125776375899081749e-01 1.164135864257637820e+00
4.136181864865735580e-01 9.395113850596885641e-01
4.146587353832389411e-01 8.770875499356129978e-01
4.156992842799043242e-01 8.063246660492460194e-01
4.167398331765697073e-01 8.374974304957092386e-01
4.177803820732350903e-01 9.252658680298750937e-01
4.188209309699004734e-01 1.008018148226032196e+00
4.198614798665658565e-01 9.494048220949196093e-01
4.209020287632312396e-01 1.006885909910657517e+00
4.219425776598966227e-01 9.526127141876159499e-01
4.229831265565620058e-01 8.656378140546010513e-01
4.240236754532273888e-01 8.208645197568849028e-01
4.250642243498927719e-01 9.442089796337320706e-01
4.261047732465581550e-01 9.890175125324418559e-01
4.271453221432235381e-01 9.334124681641178256e-01
4.281858710398889212e-01 9.321683863122558478e-01
4.292264199365543043e-01 9.938336294306751029e-01
4.302669688332196873e-01 8.743398028902547026e-01
4.313075177298850704e-01 8.022798766270682336e-01
4.323480666265504535e-01 6.782786225151760107e-01
4.333886155232158366e-01 7.058237835769105573e-01
4.344291644198812197e-01 6.788046364833917323e-01
