# q (1/angstrom), Intensity (arb)
2.004886800316986462e-02 2.900770115660200190e+02
2.113259059444069429e-02 3.502106229016045518e+02
2.221631318571152050e-02 3.833435301671952971e+02
2.330003577698234671e-02 4.012930748259840925e+02
2.438375836825317292e-02 4.169843047744165574e+02
2.546748095952399912e-02 4.244820085504438794e+02
2.655120355079482186e-02 4.368857144700476738e+02
2.763492614206565501e-02 4.425371992684829934e+02
2.871864873333647775e-02 4.422126821613227889e+02
2.980237132460730742e-02 4.425222599647514699e+02
3.088609391587813363e-02 4.382812490445782032e+02
3.196981650714896678e-02 4.352891158287137614e+02
3.305353909841978605e-02 4.333916080699326585e+02
3.413726168969061919e-02 4.327675995430768694e+02
3.522098428096144540e-02 4.272982736881286883e+02
3.630470687223227161e-02 4.213344610385288433e+02
3.738842946350309782e-02 4.174088478848634622e+02
3.847215205477392402e-02 4.160568957949724336e+02
3.955587464604475717e-02 4.128069865299157755e+02
4.063959723731558338e-02 4.056720543953706510e+02
4.172331982858640959e-02 4.002419606139042116e+02
4.280704241985723579e-02 3.993638488312839172e+02
4.389076501112806894e-02 3.927221022369373031e+02
4.497448760239888821e-02 3.867984412114927295e+02
4.605821019366971442e-02 3.809948175956905061e+02
4.714193278494054756e-02 3.729741853475818516e+02
4.822565537621137377e-02 3.672719983480648125e+02
4.930937796748219998e-02 3.626795701331614055e+02
5.039310055875302619e-02 3.577835016805980786e+02
5.147682315002385933e-02 3.528339315536300091e+02
5.256054574129467860e-02 3.499910543799053357e+02
5.364426833256550481e-02 3.436762708135546518e+02
5.472799092383633796e-02 3.377457764474567625e+02
5.581171351510716416e-02 3.310808707405467430e+02
5.689543610637798343e-02 3.282371862835195770e+02
5.797915869764881658e-02 3.209587628640668981e+02
5.906288128891964972e-02 3.134788621156876616e+02
6.014660388019047593e-02 3.074355271205471922e+02
6.123032647146129520e-02 3.007126645887998393e+02
6.231404906273212835e-02 2.936304192348789570e+02
6.339777165400295456e-02 2.893304468836627734e+02
6.448149424527377382e-02 2.836648432239012436e+02
6.556521683654460697e-02 2.775336850844659011e+02
6.664893942781544012e-02 2.699364906371499728e+02
6.773266201908627326e-02 2.645860629936339592e+02
6.881638461035709253e-02 2.589554054460897419e+02
6.990010720162791180e-02 2.524512150485783195e+02
7.098382979289874495e-02 2.461186411254445545e+02
7.206755238416956422e-02 2.416468143804764850e+02
7.315127497544039736e-02 2.367090286587780383e+02
7.423499756671123051e-02 2.314052391600297369e+02
7.531872015798206366e-02 2.249107694286870753e+02
7.640244274925288293e-02 2.183992104687105495e+02
7.748616534052371607e-02 2.125723326404451257e+02
7.856988793179453534e-02 2.067309976415132553e+02
7.965361052306535461e-02 2.020691865549453610e+02
8.073733311433618776e-02 1.964281832017044565e+02
8.182105570560702090e-02 1.932751758749016346e+02
8.290477829687785405e-02 1.867637323150415227e+02
8.398850088814867332e-02 1.802450537266809647e+02
8.507222347941950646e-02 1.761849848652543926e+02
8.615594607069032573e-02 1.697794909489916790e+02
8.723966866196115888e-02 1.656288219096582850e+02
8.832339125323197815e-02 1.616162551864306351e+02
8.940711384450281130e-02 1.569436295794835132e+02
9.049083643577364444e-02 1.518494589595876221e+02
9.157455902704446371e-02 1.463537224022417718e+02
9.265828161831529686e-02 1.410606208529156333e+02
9.374200420958611613e-02 1.375861685638275276e+02
9.482572680085694927e-02 1.333467161333644242e+02
9.590944939212776854e-02 1.284014872588273874e+02
9.699317198339860169e-02 1.247021714964580497e+02
9.807689457466943483e-02 1.207132962861385295e+02
9.916061716594025410e-02 1.155001536713627388e+02
1.002443397572110872e-01 1.108162678468215177e+02
1.013280623484819065e-01 1.081470767805700177e+02
1.024117849397527397e-01 1.049616093698482189e+02
1.034955075310235728e-01 9.973722953543602898e+01
1.045792301222943782e-01 9.591720371132115019e+01
1.056629527135652113e-01 9.139601740978054067e+01
1.067466753048360445e-01 8.893076350291650556e+01
1.078303978961068776e-01 8.606419360317974565e+01
1.089141204873776969e-01 8.242199817061757017e+01
1.099978430786485301e-01 7.838839969848990563e+01
1.110815656699193632e-01 7.473217241095574082e+01
1.121652882611901964e-01 7.206424796565079305e+01
1.132490108524610017e-01 6.857898419717182037e+01
1.143327334437318349e-01 6.574280135818952431e+01
1.154164560350026680e-01 6.325616620007085089e+01
1.165001786262734873e-01 6.063095060009703730e+01
1.175839012175443204e-01 5.672065301350920663e+01
1.186676238088151536e-01 5.515785702659644585e+01
1.197513464000859867e-01 5.331088573556678512e+01
1.208350689913567921e-01 5.075800288026877638e+01
1.219187915826276253e-01 4.902286593178834551e+01
1.230025141738984584e-01 4.670425898956338528e+01
1.240862367651692777e-01 4.458171401445835613e+01
1.251699593564401247e-01 4.277393305365490050e+01
1.262536819477109440e-01 3.967264284201331748e+01
1.273374045389817633e-01 3.740360533534712317e+01
1.284211271302525825e-01 3.610504192543925228e+01
1.295048497215234018e-01 3.423708209441588224e+01
1.305885723127942488e-01 3.210074861908805133e+01
1.316722949040650681e-01 3.159469842634746328e+01
1.327560174953359151e-01 3.094692872048338472e+01
1.338397400866067344e-01 2.927905552335758443e+01
1.349234626778775537e-01 2.651001308166010517e+01
1.360071852691483729e-01 2.508630387858514155e+01
1.370909078604191922e-01 2.373884010850923687e+01
1.381746304516900392e-01 2.309520893189656476e+01
1.392583530429608585e-01 2.270399985124691966e+01
1.403420756342317055e-01 2.046707935959759084e+01
1.414257982255025248e-01 1.902258910134327152e+01
1.425095208167733440e-01 1.859900583211017988e+01
1.435932434080441633e-01 1.780558031171213429e+01
1.446769659993149826e-01 1.732871138638998332e+01
1.457606885905858296e-01 1.552475232272414019e+01
1.468444111818566489e-01 1.433440178222951999e+01
1.479281337731274959e-01 1.437330359389926571e+01
1.490118563643983152e-01 1.359151555323032312e+01
1.500955789556691622e-01 1.207660665466335104e+01
1.511793015469399537e-01 1.194110792684938360e+01
1.522630241382108007e-01 1.152570244355160867e+01
1.533467467294816200e-01 1.220050035349669315e+01
1.544304693207524393e-01 1.155141017905029344e+01
1.555141919120232863e-01 9.537717048563649769e+00
1.565979145032941056e-01 9.797395133280303980e+00
1.576816370945649526e-01 9.485685788542497221e+00
1.587653596858357441e-01 8.068718702795933950e+00
1.598490822771065911e-01 8.003607089816824782e+00
1.609328048683774104e-01 7.893575449366437624e+00
1.620165274596482297e-01 7.962128934652781709e+00
1.631002500509190767e-01 7.570721680135847009e+00
1.641839726421898960e-01 7.381342428012601431e+00
1.652676952334607430e-01 6.904403629953492327e+00
1.663514178247315345e-01 6.458523399010829280e+00
1.674351404160023815e-01 7.483206296506807575e+00
1.685188630072732008e-01 6.739854278973893997e+00
1.696025855985440201e-01 6.230881666782948969e+00
1.706863081898148671e-01 6.316175095609025902e+00
1.717700307810856863e-01 5.648680688505862690e+00
1.728537533723565334e-01 5.049379095902281733e+00
1.739374759636273526e-01 5.740319733133304680e+00
1.750211985548981719e-01 6.473977035608101005e+00
1.761049211461689912e-01 6.262960078703230238e+00
1.771886437374398104e-01 6.295340207809033473e+00
1.782723663287106575e-01 6.172764065900736341e+00
1.793560889199814767e-01 5.114009219959768870e+00
1.804398115112523238e-01 5.175710920804817761e+00
1.815235341025231430e-01 4.906842705687637363e+00
1.826072566937939623e-01 5.030827466626362821e+00
1.836909792850647816e-01 5.497051265794311803e+00
1.847747018763356008e-01 5.404328459056159772e+00
1.858584244676064479e-01 5.819296631231708261e+00
1.869421470588772671e-01 6.300186581893086668e+00
1.880258696501481142e-01 5.759478883259816939e+00
1.891095922414189334e-01 5.951639777079094529e+00
1.901933148326897527e-01 5.375530645651110717e+00
1.912770374239605720e-01 4.237648178633236284e+00
1.923607600152313912e-01 4.418565668378192868e+00
1.934444826065022383e-01 5.091393571572154997e+00
1.945282051977730575e-01 5.330741550588072641e+00
1.956119277890439045e-01 5.539012003676305085e+00
1.966956503803147238e-01 5.390750458061546624e+00
1.977793729715855431e-01 5.142562353819130294e+00
1.988630955628563624e-01 4.871904001102734583e+00
1.999468181541271816e-01 4.625892883318698523e+00
2.010305407453980286e-01 5.264314279476764113e+00
2.021142633366688757e-01 5.636733691833114790e+00
2.031979859279396949e-01 5.327557886925688990e+00
2.042817085192105420e-01 5.423038456196849211e+00
2.053654311104813335e-01 5.343568805938758715e+00
2.064491537017522083e-01 4.788644994833703095e+00
2.075328762930229998e-01 5.210549009039254997e+00
2.086165988842938190e-01 5.057280572051780609e+00
2.097003214755646661e-01 5.116053373614050770e+00
2.107840440668354853e-01 6.217832835506044376e+00
2.118677666581063324e-01 5.784936674812286128e+00
2.129514892493771239e-01 5.481128480879704057e+00
2.140352118406479986e-01 5.675678502763673805e+00
2.151189344319187902e-01 5.409065383918772341e+00
2.162026570231896372e-01 4.807106001637549753e+00
2.172863796144604565e-01 5.133648754121992397e+00
2.183701022057312757e-01 5.331629885069759212e+00
2.194538247970021227e-01 4.605363313318207474e+00
2.205375473882729143e-01 5.201995418444880670e+00
2.216212699795437890e-01 6.294798360752565713e+00
2.227049925708145806e-01 5.984229424947216103e+00
2.237887151620854276e-01 5.169694373010742083e+00
2.248724377533562468e-01 4.969684135600232366e+00
2.259561603446270661e-01 5.452621729352813418e+00
2.270398829358979131e-01 5.547992116608696733e+00
2.281236055271687047e-01 5.717403293260503006e+00
2.292073281184395794e-01 4.827778341858049771e+00
2.302910507097103709e-01 4.713442807711999194e+00
2.313747733009812180e-01 5.571355509678824092e+00
2.324584958922520372e-01 5.215264615027791706e+00
2.335422184835228565e-01 4.794782306560904317e+00
2.346259410747937035e-01 5.032041603372420013e+00
2.357096636660644950e-01 5.533615569987347271e+00
2.367933862573353698e-01 5.015576518235064896e+00
2.378771088486061613e-01 5.078545691819300600e+00
2.389608314398770084e-01 4.256614903474968514e+00
2.400445540311478276e-01 3.596867790154988143e+00
2.411282766224186469e-01 4.306387787338422868e+00
2.422119992136894939e-01 4.870047589616461892e+00
2.432957218049602854e-01 5.232402527177811180e+00
2.443794443962311602e-01 4.777804070467482234e+00
2.454631669875019517e-01 3.958237262014193902e+00
2.465468895787727988e-01 4.463141239689804252e+00
2.476306121700436180e-01 4.032258196995996968e+00
2.487143347613144373e-01 4.304523991902328817e+00
2.497980573525852843e-01 5.001391480236264897e+00
2.508817799438560758e-01 4.084729882713247662e+00
2.519655025351269506e-01 4.194782197777357169e+00
2.530492251263977699e-01 5.076812989997506520e+00
2.541329477176685891e-01 4.719057005660715731e+00
2.552166703089394084e-01 3.996675811665824085e+00
2.563003929002102277e-01 3.602642065987254227e+00
2.573841154914810470e-01 3.805228737364245717e+00
2.584678380827518662e-01 4.176023073945515307e+00
2.595515606740227410e-01 3.711371161937279339e+00
2.606352832652935603e-01 3.511743782974292571e+00
2.617190058565643795e-01 3.639561899764885311e+00
2.628027284478351988e-01 3.766050547032932627e+00
2.638864510391060181e-01 4.193520260707458647e+00
2.649701736303768373e-01 4.395631708089695167e+00
2.660538962216476566e-01 4.008425543258113066e+00
2.671376188129185314e-01 3.625937892911963445e+00
2.682213414041893507e-01 3.454741086571488040e+00
2.693050639954601699e-01 3.411482607547867474e+00
2.703887865867309892e-01 4.239796465650982782e+00
2.714725091780018085e-01 3.461333903751352636e+00
2.725562317692726277e-01 3.077957951214671084e+00
2.736399543605434470e-01 3.617337122402233263e+00
2.747236769518143218e-01 3.880056494660465205e+00
2.758073995430851411e-01 3.467997733428262563e+00
2.768911221343559603e-01 3.659052211254760323e+00
2.779748447256267796e-01 3.147884952257811619e+00
2.790585673168975989e-01 3.268598355270427191e+00
2.801422899081684181e-01 2.380457489512508573e+00
2.812260124994392374e-01 2.335589742729041518e+00
2.823097350907101122e-01 3.094791105002883569e+00
2.833934576819809315e-01 2.796331533955424220e+00
2.844771802732517507e-01 2.780758206900429741e+00
2.855609028645225700e-01 2.947836292278793735e+00
2.866446254557933893e-01 3.568763916312690299e+00
2.877283480470642085e-01 3.466683979375915214e+00
2.888120706383350278e-01 2.996592453111048826e+00
2.898957932296059026e-01 2.891435536911416193e+00
2.909795158208767218e-01 3.310392832971018606e+00
2.920632384121475411e-01 2.340798908658229038e+00
2.931469610034183604e-01 2.930409181224064241e+00
2.942306835946891796e-01 2.946766898439875604e+00
2.953144061859599989e-01 3.120146226679764823e+00
2.963981287772308182e-01 2.738476678826543775e+00
2.974818513685016930e-01 2.750323961923697880e+00
2.985655739597725122e-01 2.529513315196282974e+00
2.996492965510433315e-01 1.763498439934238604e+00
3.007330191423141508e-01 2.062057771568220232e+00
3.018167417335849700e-01 2.930586068226489260e+00
3.029004643248558448e-01 2.854285777337139507e+00
3.039841869161266086e-01 3.036183319650064050e+00
3.050679095073974834e-01 2.494223460645400792e+00
3.061516320986683026e-01 2.636683540014615801e+00
3.072353546899391219e-01 2.472999105113501628e+00
3.083190772812099412e-01 2.425802894422389500e+00
3.094027998724807604e-01 3.204001063454029463e+00
3.104865224637516352e-01 2.955481385702341868e+00
3.115702450550223990e-01 2.725079474716835648e+00
3.126539676462932738e-01 2.292680852534033420e+00
3.137376902375640930e-01 2.188889080557288480e+00
3.148214128288349123e-01 2.767297717876033403e+00
3.159051354201057316e-01 2.608297806888913328e+00
3.169888580113765508e-01 2.600623770906651089e+00
3.180725806026474256e-01 2.987114512849032621e+00
3.191563031939181894e-01 2.413483004170529966e+00
3.202400257851890641e-01 1.895900598329149034e+00
3.213237483764598834e-01 2.014894763875744843e+00
3.224074709677307027e-01 1.902101895218649474e+00
3.234911935590015220e-01 2.160807544497671984e+00
3.245749161502723412e-01 2.467662319758176181e+00
3.256586387415432160e-01 2.426794272079987991e+00
3.267423613328139798e-01 2.230207690083318539e+00
3.278260839240848545e-01 2.117451748062592287e+00
3.289098065153556738e-01 1.639384517237175487e+00
3.299935291066264931e-01 1.725985288897192049e+00
3.310772516978973123e-01 2.514128155252365104e+00
3.321609742891681316e-01 2.329588987630316410e+00
3.332446968804390064e-01 2.329576541683735513e+00
3.343284194717097701e-01 2.214926861191557350e+00
3.354121420629806449e-01 1.738542141213798686e+00
3.364958646542514642e-01 1.572944796714153881e+00
3.375795872455222835e-01 2.968317902665233987e+00
3.386633098367931027e-01 2.443555239502046561e+00
3.397470324280639220e-01 2.001002250802670801e+00
3.408307550193347968e-01 1.977932199211494435e+00
3.419144776106055605e-01 1.688911727992433498e+00
3.429982002018764353e-01 1.464268058542870676e+00
3.440819227931472546e-01 1.847934643193511306e+00
3.451656453844180739e-01 2.212255677710814439e+00
3.462493679756888931e-01 2.029166467226318105e+00
3.473330905669597679e-01 2.261032006610463441e+00
3.484168131582305872e-01 2.754032436245068993e+00
3.495005357495013509e-01 2.495829784041944777e+00
3.505842583407722257e-01 2.215301047394163447e+00
3.516679809320430450e-01 2.064599434318068916e+00
3.527517035233138643e-01 1.835474487694611412e+00
3.538354261145846835e-01 1.712200859055386104e+00
3.549191487058555583e-01 1.729307380845156672e+00
3.560028712971263776e-01 1.992113866346571172e+00
3.570865938883971413e-01 2.390959951499254998e+00
3.581703164796680161e-01 2.425184973606491212e+00
3.592540390709388354e-01 1.779369417770396922e+00
3.603377616622096546e-01 1.911984174670223524e+00
3.614214842534804739e-01 2.194272365477047515e+00
3.625052068447513487e-01 1.903226420595643731e+00
3.635889294360221680e-01 1.957829416436595693e+00
3.646726520272929317e-01 1.711000242633559765e+00
3.657563746185638065e-01 1.440910940037781529e+00
3.668400972098346258e-01 1.885502027844452755e+00
3.679238198011054450e-01 1.932246944988094128e+00
3.690075423923762643e-01 2.027994530884143387e+00
3.700912649836471391e-01 1.928201446372654004e+00
3.711749875749179584e-01 1.974072908891301381e+00
3.722587101661887221e-01 2.026543990491987302e+00
3.733424327574595969e-01 2.388208436157896131e+00
3.744261553487304162e-01 2.187597381460761881e+00
3.755098779400012354e-01 2.201930485384451686e+00
3.765936005312720547e-01 2.141437540917678461e+00
3.776773231225429295e-01 2.349574562583001125e+00
3.787610457138137487e-01 2.220537265697686280e+00
3.798447683050845125e-01 1.394844032667833744e+00
3.809284908963553873e-01 1.924128676532873783e+00
3.820122134876262066e-01 2.392443718073295145e+00
3.830959360788970258e-01 2.135153652224488496e+00
3.841796586701678451e-01 2.060656639275009638e+00
3.852633812614387199e-01 2.102085053339280307e+00
3.863471038527095391e-01 1.729576499763510355e+00
3.874308264439803029e-01 1.871128232070390141e+00
3.885145490352511777e-01 2.000935391326294166e+00
3.895982716265219969e-01 1.969304230348640772e+00
3.906819942177928162e-01 1.600772267991985132e+00
3.917657168090636355e-01 1.315716153190550131e+00
3.928494394003345103e-01 1.291380515355257330e+00
3.939331619916053295e-01 1.313914001676550924e+00
3.950168845828760933e-01 1.381320398012178430e+00
3.961006071741469681e-01 1.557390672994145575e+00
3.971843297654177873e-01 1.544248695550294315e+00
3.982680523566886066e-01 2.002284675360883170e+00
3.993517749479594259e-01 2.251847628969173343e+00
4.004354975392302451e-01 1.501181656776864770e+00
4.015192201305010089e-01 1.311259764572213271e+00
4.026029427217718837e-01 1.476475865169902590e+00
4.036866653130427030e-01 1.405364906100430744e+00
4.047703879043135777e-01 1.193671369960767947e+00
4.058541104955843415e-01 1.290849837129712796e+00
4.069378330868551608e-01 1.135747398383529116e+00
4.080215556781260355e-01 1.238203511361206210e+00
4.091052782693967993e-01 1.850512956943603626e+00
4.101890008606676741e-01 1.719832974055904629e+00
4.112727234519384933e-01 1.551168023510925309e+00
4.123564460432093681e-01 1.489095952985749705e+00
4.134401686344801319e-01 1.411178126703077851e+00
4.145238912257509512e-01 1.584557622089832307e+00
4.156076138170218259e-01 1.539957193300153904e+00
4.166913364082925897e-01 1.510302004057365366e+00
4.177750589995634645e-01 1.742196513702538141e+00
4.188587815908342837e-01 1.966108359271601103e+00
4.199425041821051585e-01 1.064165715054997463e+00
4.210262267733759223e-01 1.051240097835403731e+00
4.221099493646467415e-01 1.193352562569501174e+00
4.231936719559176163e-01 1.388220342865579937e+00
4.242773945471884911e-01 1.289034308954370545e+00
4.253611171384592549e-01 1.524336646548533736e+00
4.264448397297300741e-01 1.415436691085204757e+00
4.275285623210009489e-01 1.161700954121101859e+00
4.286122849122717127e-01 1.124839774877003151e+00
4.296960075035425319e-01 1.237640803802065648e+00
4.307797300948134067e-01 1.351756550027062076e+00
4.318634526860842815e-01 1.210321595604995082e+00
4.329471752773550453e-01 1.347874951590640080e+00
4.340308978686258645e-01 1.246679320310704497e+00
4.351146204598967393e-01 8.167166093155771023e-01
4.361983430511675031e-01 8.285336189045438005e-01
4.372820656424383223e-01 1.061487589328010017e+00
4.383657882337091971e-01 1.553914152269811666e+00
4.394495108249800719e-01 1.259276268425850276e+00
4.405332334162508356e-01 1.359493104099072980e+00
4.416169560075216549e-01 1.283606534568974666e+00
4.427006785987925297e-01 1.618190639550476817e+00
4.437844011900632935e-01 1.861653388237584750e+00
4.448681237813341127e-01 1.518143626313161576e+00
4.459518463726049875e-01 1.138978163616400252e+00
4.470355689638758623e-01 1.218792260578567266e+00
4.481192915551466260e-01 7.750808180441168815e-01
4.492030141464174453e-01 9.712966117772339203e-01
4.502867367376883201e-01 1.427065661982581446e+00
4.513704593289590838e-01 9.807122792545897028e-01
