# q (1/angstrom), Intensity (arb)
2.004886800316986462e-02 4.543101664111997025e+02
2.113259059444069429e-02 5.500333725756647709e+02
2.221631318571152050e-02 5.998039858682629983e+02
2.330003577698234671e-02 6.204246105370541500e+02
2.438375836825317292e-02 6.374819975612721237e+02
2.546748095952399912e-02 6.557831439371285569e+02
2.655120355079482186e-02 6.764733958802096367e+02
2.763492614206565501e-02 6.872644411175811001e+02
2.871864873333647775e-02 6.885364242153369787e+02
2.980237132460730742e-02 6.822524554840588280e+02
3.088609391587813363e-02 6.758021782572807297e+02
3.196981650714896678e-02 6.726923448668817400e+02
3.305353909841978605e-02 6.656596890531162671e+02
3.413726168969061919e-02 6.568404216322591083e+02
3.522098428096144540e-02 6.557143101039711155e+02
3.630470687223227161e-02 6.458477486727612131e+02
3.738842946350309782e-02 6.395621220896201748e+02
3.847215205477392402e-02 6.313785621136255486e+02
3.955587464604475717e-02 6.279690727389405538e+02
4.063959723731558338e-02 6.182030163301134280e+02
4.172331982858640959e-02 6.108792936888987697e+02
4.280704241985723579e-02 6.044213191232125837e+02
4.389076501112806894e-02 5.941341893785232742e+02
4.497448760239888821e-02 5.875135142140952667e+02
4.605821019366971442e-02 5.768143113417467021e+02
4.714193278494054756e-02 5.690779102237954703e+02
4.822565537621137377e-02 5.614327037518719408e+02
4.930937796748219998e-02 5.528126086095055598e+02
5.039310055875302619e-02 5.441618416690622553e+02
5.147682315002385933e-02 5.336526586412782081e+02
5.256054574129467860e-02 5.214675807079513561e+02
5.364426833256550481e-02 5.136285982362297773e+02
5.472799092383633796e-02 5.055838856477578247e+02
5.581171351510716416e-02 4.980332402217331946e+02
5.689543610637798343e-02 4.869801035113309808e+02
5.797915869764881658e-02 4.738203724073687226e+02
5.906288128891964972e-02 4.652682911245069022e+02
6.014660388019047593e-02 4.580443541216020549e+02
6.123032647146129520e-02 4.503964341473563309e+02
6.231404906273212835e-02 4.434034317977115052e+02
6.339777165400295456e-02 4.331964015399378809e+02
6.448149424527377382e-02 4.246491730000346934e+02
6.556521683654460697e-02 4.151118685439273008e+02
6.664893942781544012e-02 4.044867749191286066e+02
6.773266201908627326e-02 3.965821639853294300e+02
6.881638461035709253e-02 3.903337413077858287e+02
6.990010720162791180e-02 3.820437729166995950e+02
7.098382979289874495e-02 3.751615978047180988e+02
7.206755238416956422e-02 3.681731573979895984e+02
7.315127497544039736e-02 3.595591709389776724e+02
7.423499756671123051e-02 3.524935519856302903e+02
7.531872015798206366e-02 3.469624448727386152e+02
7.640244274925288293e-02 3.379233697241146501e+02
7.748616534052371607e-02 3.301881622109293062e+02
7.856988793179453534e-02 3.228092172454962565e+02
7.965361052306535461e-02 3.131187724106666792e+02
8.073733311433618776e-02 3.042571299888110161e+02
8.182105570560702090e-02 2.957730759586067961e+02
8.290477829687785405e-02 2.862183523074188543e+02
8.398850088814867332e-02 2.785252924970851609e+02
8.507222347941950646e-02 2.703252869378775358e+02
8.615594607069032573e-02 2.604032286718157820e+02
8.723966866196115888e-02 2.504664031686606052e+02
8.832339125323197815e-02 2.422288257810252503e+02
8.940711384450281130e-02 2.335413005729955955e+02
9.049083643577364444e-02 2.235447419855353814e+02
9.157455902704446371e-02 2.139324416469856089e+02
9.265828161831529686e-02 2.071399563659419698e+02
9.374200420958611613e-02 2.001883927617825236e+02
9.482572680085694927e-02 1.913462658398025837e+02
9.590944939212776854e-02 1.827067552831202306e+02
9.699317198339860169e-02 1.758719487867999476e+02
9.807689457466943483e-02 1.700607185167150703e+02
9.916061716594025410e-02 1.638090604453159358e+02
1.002443397572110872e-01 1.559676382301036597e+02
1.013280623484819065e-01 1.501340077426624191e+02
1.024117849397527397e-01 1.427218673228926775e+02
1.034955075310235728e-01 1.342672510119927551e+02
1.045792301222943782e-01 1.288895745806107982e+02
1.056629527135652113e-01 1.229449646644047220e+02
1.067466753048360445e-01 1.167305372368751932e+02
1.078303978961068776e-01 1.122407868192914009e+02
1.089141204873776969e-01 1.073473155253180664e+02
1.099978430786485301e-01 1.013338925130035477e+02
1.110815656699193632e-01 9.688468303367733370e+01
1.121652882611901964e-01 9.231669145414949185e+01
1.132490108524610017e-01 8.610810138397062019e+01
1.143327334437318349e-01 8.137410235429544514e+01
1.154164560350026680e-01 7.867259469341962586e+01
1.165001786262734873e-01 7.314425956974446308e+01
1.175839012175443204e-01 7.005813285176216709e+01
1.186676238088151536e-01 6.628831458102570195e+01
1.197513464000859867e-01 6.277518406762303016e+01
1.208350689913567921e-01 5.964290750694385679e+01
1.219187915826276253e-01 5.705370861858418152e+01
1.230025141738984584e-01 5.418836807477109119e+01
1.240862367651692777e-01 5.009418836464431024e+01
1.251699593564401247e-01 4.535931992251485667e+01
1.262536819477109440e-01 4.230658070832885187e+01
1.273374045389817633e-01 4.195183216261864345e+01
1.284211271302525825e-01 3.976713237028619119e+01
1.295048497215234018e-01 3.602572427039669378e+01
1.305885723127942488e-01 3.288369992178985513e+01
1.316722949040650681e-01 3.022835880037973766e+01
1.327560174953359151e-01 2.893760241504645592e+01
1.338397400866067344e-01 2.708236933973867622e+01
1.349234626778775537e-01 2.470846858929940026e+01
1.360071852691483729e-01 2.312113642190712426e+01
1.370909078604191922e-01 2.130342633885126702e+01
1.381746304516900392e-01 1.970980462290421542e+01
1.392583530429608585e-01 1.825170072749222072e+01
1.403420756342317055e-01 1.705044488044168816e+01
1.414257982255025248e-01 1.681119228006880917e+01
1.425095208167733440e-01 1.500713689820079821e+01
1.435932434080441633e-01 1.318837713199735617e+01
1.446769659993149826e-01 1.179679447177750262e+01
1.457606885905858296e-01 1.081754248737144053e+01
1.468444111818566489e-01 9.753587963942692340e+00
1.479281337731274959e-01 9.096526815294623702e+00
1.490118563643983152e-01 8.642857841840879018e+00
1.500955789556691622e-01 7.640113548873216587e+00
1.511793015469399537e-01 7.192047476098565539e+00
1.522630241382108007e-01 6.560198359823118608e+00
1.533467467294816200e-01 6.264153892022960690e+00
1.544304693207524393e-01 6.157281801762081841e+00
1.555141919120232863e-01 5.880378371260604808e+00
1.565979145032941056e-01 4.767263932077298705e+00
1.576816370945649526e-01 3.789268567225747120e+00
1.587653596858357441e-01 3.927826541099904034e+00
1.598490822771065911e-01 3.119866007505464722e+00
1.609328048683774104e-01 3.077995629597438665e+00
1.620165274596482297e-01 2.726475965987674499e+00
1.631002500509190767e-01 2.894746971242426525e+00
1.641839726421898960e-01 3.160988534008339457e+00
1.652676952334607430e-01 3.986196629340412301e+00
1.663514178247315345e-01 4.387330431550054755e+00
1.674351404160023815e-01 4.101453472817240709e+00
1.685188630072732008e-01 3.310247302384368595e+00
1.696025855985440201e-01 2.763888241151505554e+00
1.706863081898148671e-01 3.033217274183499512e+00
1.717700307810856863e-01 4.268515174936993617e+00
1.728537533723565334e-01 4.605952496843997324e+00
1.739374759636273526e-01 2.332677999094528332e+00
1.750211985548981719e-01 2.424556697885748235e+00
1.761049211461689912e-01 2.702421396918225582e+00
1.771886437374398104e-01 3.269159230567822760e+00
1.782723663287106575e-01 3.568700044459575338e+00
1.793560889199814767e-01 3.166400270476714240e+00
1.804398115112523238e-01 3.826506543320959963e+00
1.815235341025231430e-01 4.285872304918001419e+00
1.826072566937939623e-01 3.850153171116431849e+00
1.836909792850647816e-01 4.022154157902747329e+00
1.847747018763356008e-01 4.929878874952038359e+00
1.858584244676064479e-01 4.626302910259113332e+00
1.869421470588772671e-01 4.366255430306978269e+00
1.880258696501481142e-01 3.883186350818363053e+00
1.891095922414189334e-01 4.595537617616798798e+00
1.901933148326897527e-01 4.667989179224576901e+00
1.912770374239605720e-01 4.184225021614821571e+00
1.923607600152313912e-01 4.231044134060965689e+00
1.934444826065022383e-01 4.432103589720696846e+00
1.945282051977730575e-01 3.623239949920872505e+00
1.956119277890439045e-01 4.515103439631587889e+00
1.966956503803147238e-01 5.188170465528770592e+00
1.977793729715855431e-01 4.938809130172955975e+00
1.988630955628563624e-01 5.468838013260892694e+00
1.999468181541271816e-01 5.643242677762827952e+00
2.010305407453980286e-01 5.720519095719708957e+00
2.021142633366688757e-01 5.339229798413924755e+00
2.031979859279396949e-01 5.588200728170789944e+00
2.042817085192105420e-01 5.851351863611142790e+00
2.053654311104813335e-01 6.421485000746173455e+00
2.064491537017522083e-01 6.911080273297869780e+00
2.075328762930229998e-01 6.360519309559578005e+00
2.086165988842938190e-01 6.453836581907751224e+00
2.097003214755646661e-01 6.057476116978591563e+00
2.107840440668354853e-01 5.269277817474858239e+00
2.118677666581063324e-01 5.248466407385762977e+00
2.129514892493771239e-01 5.182176845422020506e+00
2.140352118406479986e-01 5.291240054713767904e+00
2.151189344319187902e-01 5.241758982946549850e+00
2.162026570231896372e-01 5.399929176483709625e+00
2.172863796144604565e-01 4.623876984956069691e+00
2.183701022057312757e-01 5.372621376570947405e+00
2.194538247970021227e-01 5.470608506706440721e+00
2.205375473882729143e-01 4.663208574327825318e+00
2.216212699795437890e-01 4.218718909056605071e+00
2.227049925708145806e-01 4.692402811869754942e+00
2.237887151620854276e-01 5.449013402525253014e+00
2.248724377533562468e-01 5.416794233984830953e+00
2.259561603446270661e-01 4.792603459575929037e+00
2.270398829358979131e-01 4.990111311784602321e+00
2.281236055271687047e-01 5.370950197517316838e+00
2.292073281184395794e-01 4.438491714480733208e+00
2.302910507097103709e-01 4.300053424772414701e+00
2.313747733009812180e-01 3.152056454927702589e+00
2.324584958922520372e-01 3.548201127239764219e+00
2.335422184835228565e-01 4.141999004762368486e+00
2.346259410747937035e-01 4.055921466298457290e+00
2.357096636660644950e-01 4.024213773155594254e+00
2.367933862573353698e-01 3.914662174114198478e+00
2.378771088486061613e-01 4.230582871930664624e+00
2.389608314398770084e-01 4.402890339200240533e+00
2.400445540311478276e-01 4.645906606568246389e+00
2.411282766224186469e-01 4.286948971582546619e+00
2.422119992136894939e-01 4.634006196690364732e+00
2.432957218049602854e-01 4.227232437322356873e+00
2.443794443962311602e-01 3.941043097518019067e+00
2.454631669875019517e-01 3.624837990398674492e+00
2.465468895787727988e-01 4.243121035326282708e+00
2.476306121700436180e-01 4.137366099859548285e+00
2.487143347613144373e-01 3.738024848153116864e+00
2.497980573525852843e-01 2.153710804780303079e+00
2.508817799438560758e-01 2.015609864171580057e+00
2.519655025351269506e-01 2.064819187014734325e+00
2.530492251263977699e-01 2.371218283753563583e+00
2.541329477176685891e-01 2.876773783192248857e+00
2.552166703089394084e-01 1.983981841486581743e+00
2.563003929002102277e-01 2.310515099908343473e+00
2.573841154914810470e-01 2.865808675586634990e+00
2.584678380827518662e-01 2.126655554680780824e+00
2.595515606740227410e-01 1.591497456803978139e+00
2.606352832652935603e-01 1.442494305999105109e+00
2.617190058565643795e-01 1.557703149753820071e+00
2.628027284478351988e-01 1.132585186292715207e+00
2.638864510391060181e-01 8.868685575764345685e-01
2.649701736303768373e-01 1.659725114493909359e+00
2.660538962216476566e-01 2.240881664563175946e+00
2.671376188129185314e-01 2.153246330705115952e+00
2.682213414041893507e-01 1.844801156222757754e+00
2.693050639954601699e-01 1.617738053031672507e+00
2.703887865867309892e-01 1.890617569169137369e+00
2.714725091780018085e-01 1.668303982552970410e+00
2.725562317692726277e-01 1.647322068599777367e+00
2.736399543605434470e-01 1.804605231977546964e+00
2.747236769518143218e-01 1.271164448678263170e+00
2.758073995430851411e-01 8.996966098879397578e-01
2.768911221343559603e-01 1.511159570442515587e+00
2.779748447256267796e-01 1.810500669116265726e+00
2.790585673168975989e-01 1.924997983394831635e+00
2.801422899081684181e-01 1.716593861155729428e+00
2.812260124994392374e-01 9.907293806914481138e-01
2.823097350907101122e-01 5.861264667333045963e-01
2.833934576819809315e-01 8.976918057337002210e-01
2.844771802732517507e-01 9.568991527297043831e-01
2.855609028645225700e-01 1.108359293734338280e+00
2.866446254557933893e-01 7.201859983181293501e-01
2.877283480470642085e-01 1.007479313380059693e+00
2.888120706383350278e-01 1.128750724077463019e+00
2.898957932296059026e-01 1.070726760892483753e+00
2.909795158208767218e-01 7.344905853651937377e-01
2.920632384121475411e-01 1.163909823567564672e+00
2.931469610034183604e-01 1.363552074097697187e+00
2.942306835946891796e-01 1.225062617289211175e+00
2.953144061859599989e-01 7.788896286142801273e-01
2.963981287772308182e-01 1.157158836898275922e+00
2.974818513685016930e-01 1.071086613733427839e+00
2.985655739597725122e-01 1.252759519790316745e+00
2.996492965510433315e-01 1.324955950426357276e+00
3.007330191423141508e-01 1.080961828964262850e+00
3.018167417335849700e-01 1.427228440780368146e+00
3.029004643248558448e-01 1.665326406367512391e+00
3.039841869161266086e-01 1.214325265085136607e+00
3.050679095073974834e-01 1.103692320870777621e+00
3.061516320986683026e-01 8.625841713583781711e-01
3.072353546899391219e-01 1.159361790340625475e+00
3.083190772812099412e-01 1.556900291307982798e+00
3.094027998724807604e-01 1.306390406364812407e+00
3.104865224637516352e-01 5.311754596390869665e-01
3.115702450550223990e-01 9.906822321377148910e-01
3.126539676462932738e-01 1.711323702188821017e+00
3.137376902375640930e-01 8.479501448617554615e-01
3.148214128288349123e-01 1.817125869930578119e-01
3.159051354201057316e-01 8.056720321927457462e-01
3.169888580113765508e-01 1.204192222458971173e+00
3.180725806026474256e-01 1.214676508398270016e+00
3.191563031939181894e-01 1.196605990747144688e+00
3.202400257851890641e-01 7.085748364216897244e-01
3.213237483764598834e-01 9.724904446021582771e-01
3.224074709677307027e-01 1.743488610501032099e+00
3.234911935590015220e-01 2.482782171818456618e+00
3.245749161502723412e-01 1.954700303838535547e+00
3.256586387415432160e-01 1.493518069890399147e+00
3.267423613328139798e-01 9.125289754623224781e-01
3.278260839240848545e-01 1.222487090077038374e+00
3.289098065153556738e-01 4.815180086204975396e-01
3.299935291066264931e-01 7.669013932991219917e-01
3.310772516978973123e-01 1.033307363821620584e+00
3.321609742891681316e-01 1.007369977273526729e+00
3.332446968804390064e-01 1.111964601130893016e+00
3.343284194717097701e-01 1.058602745492265740e+00
3.354121420629806449e-01 6.741589745221858720e-01
3.364958646542514642e-01 9.041664601085699360e-01
3.375795872455222835e-01 1.263420662616255186e+00
3.386633098367931027e-01 1.020695039602486531e+00
3.397470324280639220e-01 1.212234235588681486e+00
3.408307550193347968e-01 1.217034650847608646e+00
3.419144776106055605e-01 1.198099022842285422e+00
3.429982002018764353e-01 1.443924515780395268e+00
3.440819227931472546e-01 1.718799582565452511e+00
3.451656453844180739e-01 1.184741300511021223e+00
3.462493679756888931e-01 1.412290141848785652e+00
3.473330905669597679e-01 7.638783618479578763e-01
3.484168131582305872e-01 3.858790395582616384e-01
3.495005357495013509e-01 8.642325963519112975e-01
3.505842583407722257e-01 9.511728931039016288e-01
3.516679809320430450e-01 8.767028727070993455e-01
3.527517035233138643e-01 1.608460348898759662e+00
3.538354261145846835e-01 1.563311239642317219e+00
3.549191487058555583e-01 1.336198424963157549e+00
3.560028712971263776e-01 1.255086685335072616e+00
3.570865938883971413e-01 1.678912631716173109e+00
3.581703164796680161e-01 1.324602580968218035e+00
3.592540390709388354e-01 1.002668394712017630e+00
3.603377616622096546e-01 7.665204017575035778e-01
3.614214842534804739e-01 1.382458732864847661e+00
3.625052068447513487e-01 1.503255708111083777e+00
3.635889294360221680e-01 1.368615179067063536e+00
3.646726520272929317e-01 1.691217294598672538e+00
3.657563746185638065e-01 1.832043826615063153e+00
3.668400972098346258e-01 1.043185467358867413e+00
3.679238198011054450e-01 7.193561339027638724e-01
3.690075423923762643e-01 1.791173315587855086e+00
3.700912649836471391e-01 1.697744129272706459e+00
3.711749875749179584e-01 1.067504286740941666e+00
3.722587101661887221e-01 9.840443233330660178e-01
3.733424327574595969e-01 8.051872165045210750e-01
3.744261553487304162e-01 8.901348633890222573e-01
3.755098779400012354e-01 9.770684594206358042e-01
3.765936005312720547e-01 8.198383071297143943e-01
3.776773231225429295e-01 9.126520778745970119e-01
3.787610457138137487e-01 9.653982316408900033e-01
3.798447683050845125e-01 0.000000000000000000e+00
3.809284908963553873e-01 1.151189958094960275e-01
3.820122134876262066e-01 6.532553292418015189e-01
3.830959360788970258e-01 8.501043454692478463e-01
3.841796586701678451e-01 7.618169008747912585e-01
3.852633812614387199e-01 1.064958024117714785e+00
3.863471038527095391e-01 1.038133032480459406e+00
3.874308264439803029e-01 9.511838123296882941e-01
3.885145490352511777e-01 7.659597906473294415e-01
3.895982716265219969e-01 5.028713666109752012e-01
3.906819942177928162e-01 1.172859535575426548e+00
3.917657168090636355e-01 1.022096022342651622e+00
3.928494394003345103e-01 7.445603051245797133e-01
3.939331619916053295e-01 1.036951596124026764e+00
3.950168845828760933e-01 1.374651386471512637e+00
3.961006071741469681e-01 1.448224661127383683e+00
3.971843297654177873e-01 1.785477943775163112e+00
3.982680523566886066e-01 1.027738135159907529e+00
3.993517749479594259e-01 1.747294023562062648e-01
4.004354975392302451e-01 2.073226291581988789e-01
4.015192201305010089e-01 1.137164164965270174e+00
4.026029427217718837e-01 1.272074904318628796e+00
4.036866653130427030e-01 7.361500886130443178e-01
4.047703879043135777e-01 5.469726025836791905e-01
4.058541104955843415e-01 6.222428694853476827e-01
4.069378330868551608e-01 1.024036729502398657e+00
4.080215556781260355e-01 8.826657292721762360e-01
4.091052782693967993e-01 4.683890594986763745e-01
4.101890008606676741e-01 1.909451770041385998e-01
4.112727234519384933e-01 7.702074710421271675e-01
4.123564460432093681e-01 6.371431923967492139e-01
4.134401686344801319e-01 3.145882842353557862e-01
4.145238912257509512e-01 2.229100896736611048e-01
4.156076138170218259e-01 4.431387639581316762e-01
4.166913364082925897e-01 8.321942527156380720e-01
4.177750589995634645e-01 8.239357038350050288e-01
4.188587815908342837e-01 2.428109329165977215e-01
4.199425041821051585e-01 6.017540206612324027e-01
4.210262267733759223e-01 6.583546667527002683e-01
4.221099493646467415e-01 8.429483464669118575e-01
4.231936719559176163e-01 1.125720267419140441e+00
4.242773945471884911e-01 8.671613921335961095e-01
4.253611171384592549e-01 3.979804748107511614e-01
4.264448397297300741e-01 7.608668996479650559e-01
4.275285623210009489e-01 8.981491970564263738e-01
4.286122849122717127e-01 1.197799481601066418e+00
4.296960075035425319e-01 8.159160172361623609e-01
4.307797300948134067e-01 2.474249802330064085e-01
4.318634526860842815e-01 4.056079731350905604e-01
4.329471752773550453e-01 2.658364837939757308e-01
4.340308978686258645e-01 5.825918541756607283e-01
4.351146204598967393e-01 6.807891446715217398e-01
4.361983430511675031e-01 2.812496387714134016e-01
4.372820656424383223e-01 2.549474527961166359e-01
4.383657882337091971e-01 3.644418486725129469e-01
4.394495108249800719e-01 8.963299204163917011e-01
4.405332334162508356e-01 8.009500453116800145e-01
4.416169560075216549e-01 6.775414180502963291e-01
4.427006785987925297e-01 6.205330547032161803e-01
4.437844011900632935e-01 1.151927874382337791e+00
4.448681237813341127e-01 1.190382133150777122e+00
4.459518463726049875e-01 5.293497566990907899e-01
4.470355689638758623e-01 6.421118603845457073e-01
4.481192915551466260e-01 6.664685087245061368e-01
4.492030141464174453e-01 7.259322143958542028e-01
4.502867367376883201e-01 9.382926329243730379e-01
4.513704593289590838e-01 8.343332522088502401e-01
