# q (1/angstrom), Intensity (arb)
2.004886800316986462e-02 3.327283984066695552e+02
2.113259059444069429e-02 4.050800718919488759e+02
2.221631318571152050e-02 4.407210222026505448e+02
2.330003577698234671e-02 4.593614930302171615e+02
2.438375836825317292e-02 4.752044394488751777e+02
2.546748095952399912e-02 4.855061177010776419e+02
2.655120355079482186e-02 5.002411519719790363e+02
2.763492614206565501e-02 5.080336310509480313e+02
2.871864873333647775e-02 5.083504939682949271e+02
2.980237132460730742e-02 5.057773898317513499e+02
3.088609391587813363e-02 5.048546295976443048e+02
3.196981650714896678e-02 5.047609843317413834e+02
3.305353909841978605e-02 5.014806153535757858e+02
3.413726168969061919e-02 4.969928339770158345e+02
3.522098428096144540e-02 4.916254433031620579e+02
3.630470687223227161e-02 4.885103034066400483e+02
3.738842946350309782e-02 4.834217792733812189e+02
3.847215205477392402e-02 4.786114892552894275e+02
3.955587464604475717e-02 4.753210668103389480e+02
4.063959723731558338e-02 4.730221873976960296e+02
4.172331982858640959e-02 4.686007352122500720e+02
4.280704241985723579e-02 4.625902666017299225e+02
4.389076501112806894e-02 4.562946172353356360e+02
4.497448760239888821e-02 4.527780483228607409e+02
4.605821019366971442e-02 4.498310713098162523e+02
4.714193278494054756e-02 4.453147627406605125e+02
4.822565537621137377e-02 4.380422247840255636e+02
4.930937796748219998e-02 4.351834607049034389e+02
5.039310055875302619e-02 4.286176138451813245e+02
5.147682315002385933e-02 4.230490804965143070e+02
5.256054574129467860e-02 4.189676774918285673e+02
5.364426833256550481e-02 4.172819578563169216e+02
5.472799092383633796e-02 4.106012513994446067e+02
5.581171351510716416e-02 4.047021670032224279e+02
5.689543610637798343e-02 3.964570278009917388e+02
5.797915869764881658e-02 3.911181126009572608e+02
5.906288128891964972e-02 3.874780150128303831e+02
6.014660388019047593e-02 3.788474403981651903e+02
6.123032647146129520e-02 3.733623931602380708e+02
6.231404906273212835e-02 3.653422665764744579e+02
6.339777165400295456e-02 3.602503069996729437e+02
6.448149424527377382e-02 3.554466888642153890e+02
6.556521683654460697e-02 3.506272943192614093e+02
6.664893942781544012e-02 3.431729256444379530e+02
6.773266201908627326e-02 3.373495883799005242e+02
6.881638461035709253e-02 3.317894619175894491e+02
6.990010720162791180e-02 3.255246420441782220e+02
7.098382979289874495e-02 3.200756650879227436e+02
7.206755238416956422e-02 3.141478814221243283e+02
7.315127497544039736e-02 3.094150583090180930e+02
7.423499756671123051e-02 3.028517199837198746e+02
7.531872015798206366e-02 2.949846521397644210e+02
7.640244274925288293e-02 2.896164706752568918e+02
7.748616534052371607e-02 2.842030387339256663e+02
7.856988793179453534e-02 2.792076434811100398e+02
7.965361052306535461e-02 2.722473041264856874e+02
8.073733311433618776e-02 2.664534608951518067e+02
8.182105570560702090e-02 2.603352412462534176e+02
8.290477829687785405e-02 2.551392316878730071e+02
8.398850088814867332e-02 2.500214396395426206e+02
8.507222347941950646e-02 2.426332559509006046e+02
8.615594607069032573e-02 2.367561180270233194e+02
8.723966866196115888e-02 2.325296526383651781e+02
8.832339125323197815e-02 2.278645176152811587e+02
8.940711384450281130e-02 2.236457691381696691e+02
9.049083643577364444e-02 2.166331096189906589e+02
9.157455902704446371e-02 2.103216299535046687e+02
9.265828161831529686e-02 2.040948117965933761e+02
9.374200420958611613e-02 1.999565572783214975e+02
9.482572680085694927e-02 1.953171987865895005e+02
9.590944939212776854e-02 1.901519563325516629e+02
9.699317198339860169e-02 1.846279854779574237e+02
9.807689457466943483e-02 1.802803585007255265e+02
9.916061716594025410e-02 1.746701175568683766e+02
1.002443397572110872e-01 1.700967308459824494e+02
1.013280623484819065e-01 1.651665725501287625e+02
1.024117849397527397e-01 1.601500342459616490e+02
1.034955075310235728e-01 1.557320514341588478e+02
1.045792301222943782e-01 1.504059528949019864e+02
1.056629527135652113e-01 1.472777148674056491e+02
1.067466753048360445e-01 1.426558485411761126e+02
1.078303978961068776e-01 1.371709822434405623e+02
1.089141204873776969e-01 1.325933676392909888e+02
1.099978430786485301e-01 1.289570340242249813e+02
1.110815656699193632e-01 1.256775351853480061e+02
1.121652882611901964e-01 1.218819205387524960e+02
1.132490108524610017e-01 1.178910346877093502e+02
1.143327334437318349e-01 1.131350945416196510e+02
1.154164560350026680e-01 1.103787845525630757e+02
1.165001786262734873e-01 1.082086007934108665e+02
1.175839012175443204e-01 1.038816294707626469e+02
1.186676238088151536e-01 1.004795986463974771e+02
1.197513464000859867e-01 9.740544808116902686e+01
1.208350689913567921e-01 9.340727489170168951e+01
1.219187915826276253e-01 8.915570273605968055e+01
1.230025141738984584e-01 8.637467319715344161e+01
1.240862367651692777e-01 8.289460304163662840e+01
1.251699593564401247e-01 7.922153915239400135e+01
1.262536819477109440e-01 7.649812831446035943e+01
1.273374045389817633e-01 7.390232616100459495e+01
1.284211271302525825e-01 7.226368274929467361e+01
1.295048497215234018e-01 6.951125178375738756e+01
1.305885723127942488e-01 6.510575781216243740e+01
1.316722949040650681e-01 6.353898309822884016e+01
1.327560174953359151e-01 6.204062303447310001e+01
1.338397400866067344e-01 5.869319681851820292e+01
1.349234626778775537e-01 5.589501686613306219e+01
1.360071852691483729e-01 5.473867361791511144e+01
1.370909078604191922e-01 5.158770054103675307e+01
1.381746304516900392e-01 4.903704019372653988e+01
1.392583530429608585e-01 4.705504355226264579e+01
1.403420756342317055e-01 4.550429625943556289e+01
1.414257982255025248e-01 4.313885038008953643e+01
1.425095208167733440e-01 4.159002060611021534e+01
1.435932434080441633e-01 3.928356064838109774e+01
1.446769659993149826e-01 3.711907542050235520e+01
1.457606885905858296e-01 3.541133603709332078e+01
1.468444111818566489e-01 3.394760253004048423e+01
1.479281337731274959e-01 3.275843712486098980e+01
1.490118563643983152e-01 3.181765858372597222e+01
1.500955789556691622e-01 2.929805513360295777e+01
1.511793015469399537e-01 2.869929955663175747e+01
1.522630241382108007e-01 2.683053363139467251e+01
1.533467467294816200e-01 2.517000515902901725e+01
1.544304693207524393e-01 2.419460547098941561e+01
1.555141919120232863e-01 2.335664366506381384e+01
1.565979145032941056e-01 2.167507397265836744e+01
1.576816370945649526e-01 2.094356498879196238e+01
1.587653596858357441e-01 1.965591663874440087e+01
1.598490822771065911e-01 1.896045590779695544e+01
1.609328048683774104e-01 1.870781312645330274e+01
1.620165274596482297e-01 1.679626659486827123e+01
1.631002500509190767e-01 1.637555604901881168e+01
1.641839726421898960e-01 1.601683950111056731e+01
1.652676952334607430e-01 1.485392798805915504e+01
1.663514178247315345e-01 1.413527349387928211e+01
1.674351404160023815e-01 1.401256069027195394e+01
1.685188630072732008e-01 1.306702451405659815e+01
1.696025855985440201e-01 1.210246957787488498e+01
1.706863081898148671e-01 1.276460877269590810e+01
1.717700307810856863e-01 1.123061221850483093e+01
1.728537533723565334e-01 1.040509157391572614e+01
1.739374759636273526e-01 9.916869623417369439e+00
1.750211985548981719e-01 9.422007731985146961e+00
1.761049211461689912e-01 9.272735300089351540e+00
1.771886437374398104e-01 8.729644448506064691e+00
1.782723663287106575e-01 8.386894657395274066e+00
1.793560889199814767e-01 8.045855415938163446e+00
1.804398115112523238e-01 6.826188759619384427e+00
1.815235341025231430e-01 6.052180674243416547e+00
1.826072566937939623e-01 6.335309434539027507e+00
1.836909792850647816e-01 6.260379241296433861e+00
1.847747018763356008e-01 5.684759305442554478e+00
1.858584244676064479e-01 5.189250404064225108e+00
1.869421470588772671e-01 4.999384087708264701e+00
1.880258696501481142e-01 4.311791647025060570e+00
1.891095922414189334e-01 4.751480903070159911e+00
1.901933148326897527e-01 4.473551992640238950e+00
1.912770374239605720e-01 4.769498463209998818e+00
1.923607600152313912e-01 4.185813162769079554e+00
1.934444826065022383e-01 3.878748312730934344e+00
1.945282051977730575e-01 4.501993036038811624e+00
1.956119277890439045e-01 4.486330335811416603e+00
1.966956503803147238e-01 4.134260710870989897e+00
1.977793729715855431e-01 4.446235437958208081e+00
1.988630955628563624e-01 4.605217880963294874e+00
1.999468181541271816e-01 4.189096659226606789e+00
2.010305407453980286e-01 3.819793268726101587e+00
2.021142633366688757e-01 3.948965994736283847e+00
2.031979859279396949e-01 3.926402482784666859e+00
2.042817085192105420e-01 3.620532927018913938e+00
2.053654311104813335e-01 4.055824632023913523e+00
2.064491537017522083e-01 4.120587833058777960e+00
2.075328762930229998e-01 3.916079174589441436e+00
2.086165988842938190e-01 4.896680086754130912e+00
2.097003214755646661e-01 3.936954837518285899e+00
2.107840440668354853e-01 3.839594852906259348e+00
2.118677666581063324e-01 4.383708301265798468e+00
2.129514892493771239e-01 4.113164320968934362e+00
2.140352118406479986e-01 3.052232190797724343e+00
2.151189344319187902e-01 2.888364086574227940e+00
2.162026570231896372e-01 2.868541382599474332e+00
2.172863796144604565e-01 2.902552753074516545e+00
2.183701022057312757e-01 2.884921053682049319e+00
2.194538247970021227e-01 3.089299910961230466e+00
2.205375473882729143e-01 3.697993434333554319e+00
2.216212699795437890e-01 4.020009571709692864e+00
2.227049925708145806e-01 3.638851582750064040e+00
2.237887151620854276e-01 2.880970774766609566e+00
2.248724377533562468e-01 2.533029649976057840e+00
2.259561603446270661e-01 3.181820813279102822e+00
2.270398829358979131e-01 3.684099918850222366e+00
2.281236055271687047e-01 3.812880203057588346e+00
2.292073281184395794e-01 3.440579156152352880e+00
2.302910507097103709e-01 2.994043636296197519e+00
2.313747733009812180e-01 3.034884402781102608e+00
2.324584958922520372e-01 2.854926353777813119e+00
2.335422184835228565e-01 2.829201783715774354e+00
2.346259410747937035e-01 2.899834778992442352e+00
2.357096636660644950e-01 2.818037077138825452e+00
2.367933862573353698e-01 2.820748585700883382e+00
2.378771088486061613e-01 3.618519065045092020e+00
2.389608314398770084e-01 3.245314917143915068e+00
2.400445540311478276e-01 3.115746526922492876e+00
2.411282766224186469e-01 3.029477216802433759e+00
2.422119992136894939e-01 2.997983199131482479e+00
2.432957218049602854e-01 3.603308656479583760e+00
2.443794443962311602e-01 4.167584495502083541e+00
2.454631669875019517e-01 4.166353209458478091e+00
2.465468895787727988e-01 4.178765318829647413e+00
2.476306121700436180e-01 3.553361175832677077e+00
2.487143347613144373e-01 2.883509941494537543e+00
2.497980573525852843e-01 3.555823199577716309e+00
2.508817799438560758e-01 3.928604438710607383e+00
2.519655025351269506e-01 3.475960846330721665e+00
2.530492251263977699e-01 3.358778155524817066e+00
2.541329477176685891e-01 3.425699497469153698e+00
2.552166703089394084e-01 3.533647782027728113e+00
2.563003929002102277e-01 3.208944684611680032e+00
2.573841154914810470e-01 3.188492997472323509e+00
2.584678380827518662e-01 2.718666451953765772e+00
2.595515606740227410e-01 3.140153189341319262e+00
2.606352832652935603e-01 2.903958728253471122e+00
2.617190058565643795e-01 3.055441154808249848e+00
2.628027284478351988e-01 2.786389797522488720e+00
2.638864510391060181e-01 3.199178731046615098e+00
2.649701736303768373e-01 3.005018024024593615e+00
2.660538962216476566e-01 3.215895573066276825e+00
2.671376188129185314e-01 2.858119230641079866e+00
2.682213414041893507e-01 2.954324601175088105e+00
2.693050639954601699e-01 2.941146824145491223e+00
2.703887865867309892e-01 2.708974365951291929e+00
2.714725091780018085e-01 2.294792371472482273e+00
2.725562317692726277e-01 3.295244017387190638e+00
2.736399543605434470e-01 3.687648923327415673e+00
2.747236769518143218e-01 3.182489732221171153e+00
2.758073995430851411e-01 3.325478951107371017e+00
2.768911221343559603e-01 2.735168619019347602e+00
2.779748447256267796e-01 2.666406273527002213e+00
2.790585673168975989e-01 2.775577500370502548e+00
2.801422899081684181e-01 2.800060440517256666e+00
2.812260124994392374e-01 3.058438808436420686e+00
2.823097350907101122e-01 2.889210817711813206e+00
2.833934576819809315e-01 2.037447231012208704e+00
2.844771802732517507e-01 2.066373833128935189e+00
2.855609028645225700e-01 2.003431293634776011e+00
2.866446254557933893e-01 2.613098855497526074e+00
2.877283480470642085e-01 2.981684462396316349e+00
2.888120706383350278e-01 2.799218731682827865e+00
2.898957932296059026e-01 1.935621408019983392e+00
2.909795158208767218e-01 1.635222370388802915e+00
2.920632384121475411e-01 1.914274957933869814e+00
2.931469610034183604e-01 1.894861101236472223e+00
2.942306835946891796e-01 2.180427630432859587e+00
2.953144061859599989e-01 2.407847379673498267e+00
2.963981287772308182e-01 2.024120954073012513e+00
2.974818513685016930e-01 1.944439381305130610e+00
2.985655739597725122e-01 1.635635142743922188e+00
2.996492965510433315e-01 2.284736708901718316e+00
3.007330191423141508e-01 2.378001519543403219e+00
3.018167417335849700e-01 2.261456121235241312e+00
3.029004643248558448e-01 1.978993030639898620e+00
3.039841869161266086e-01 1.760052781481434181e+00
3.050679095073974834e-01 1.589025743172115313e+00
3.061516320986683026e-01 1.866829209978803306e+00
3.072353546899391219e-01 1.598871985036979027e+00
3.083190772812099412e-01 1.823484382322064334e+00
3.094027998724807604e-01 1.786747154281599137e+00
3.104865224637516352e-01 1.830454325601778010e+00
3.115702450550223990e-01 1.722489285148739668e+00
3.126539676462932738e-01 1.537140002970488695e+00
3.137376902375640930e-01 2.031117301688937005e+00
3.148214128288349123e-01 1.864575996632211741e+00
3.159051354201057316e-01 1.497866439570202601e+00
3.169888580113765508e-01 1.700712910752471885e+00
3.180725806026474256e-01 1.883360794315223075e+00
3.191563031939181894e-01 1.066804033670905483e+00
3.202400257851890641e-01 1.529151671060745343e+00
3.213237483764598834e-01 2.123689522686362352e+00
3.224074709677307027e-01 1.667979165136699748e+00
3.234911935590015220e-01 1.287397389988981899e+00
3.245749161502723412e-01 8.717062701114457468e-01
3.256586387415432160e-01 1.515777715088105992e+00
3.267423613328139798e-01 2.198975240389671626e+00
3.278260839240848545e-01 1.753226694231983629e+00
3.289098065153556738e-01 1.441540417312694444e+00
3.299935291066264931e-01 1.313669714681211076e+00
3.310772516978973123e-01 1.446910965017423223e+00
3.321609742891681316e-01 1.437109237550970420e+00
3.332446968804390064e-01 1.013551945174427260e+00
3.343284194717097701e-01 1.202536915466836831e+00
3.354121420629806449e-01 1.264258548006182536e+00
3.364958646542514642e-01 1.291188798530413351e+00
3.375795872455222835e-01 9.846566119384903004e-01
3.386633098367931027e-01 7.640919646147921185e-01
3.397470324280639220e-01 1.160961074469838650e+00
3.408307550193347968e-01 1.238906393584230159e+00
3.419144776106055605e-01 6.746618754704485355e-01
3.429982002018764353e-01 9.721803035978950902e-01
3.440819227931472546e-01 1.174598052026297523e+00
3.451656453844180739e-01 9.188907896897262617e-01
3.462493679756888931e-01 1.690891808406448149e+00
3.473330905669597679e-01 1.550774693441738350e+00
3.484168131582305872e-01 1.055138292262881805e+00
3.495005357495013509e-01 1.249383017702598409e+00
3.505842583407722257e-01 1.539821733502506618e+00
3.516679809320430450e-01 1.878755592283454234e+00
3.527517035233138643e-01 1.578934604132598452e+00
3.538354261145846835e-01 9.823896539351864021e-01
3.549191487058555583e-01 1.387635751614482160e+00
3.560028712971263776e-01 1.300192590640037338e+00
3.570865938883971413e-01 1.071071115133818807e+00
3.581703164796680161e-01 6.137255360978741692e-01
3.592540390709388354e-01 9.759504760357913256e-01
3.603377616622096546e-01 1.196328217800342486e+00
3.614214842534804739e-01 1.163084847992038817e+00
3.625052068447513487e-01 1.223809936813552213e+00
3.635889294360221680e-01 7.937108864362727445e-01
3.646726520272929317e-01 6.612568830671250453e-01
3.657563746185638065e-01 7.486635589127814683e-01
3.668400972098346258e-01 8.513382586471749391e-01
3.679238198011054450e-01 5.901956755889301576e-01
3.690075423923762643e-01 9.183075799839457432e-01
3.700912649836471391e-01 1.083987774415561489e+00
3.711749875749179584e-01 6.015076562356682643e-01
3.722587101661887221e-01 7.090858554996657404e-01
3.733424327574595969e-01 8.013277701635388439e-01
3.744261553487304162e-01 6.403764506895726072e-01
3.755098779400012354e-01 9.682610013850023734e-01
3.765936005312720547e-01 1.090049340278696377e+00
3.776773231225429295e-01 1.315561168434385309e+00
3.787610457138137487e-01 1.043559833375383050e+00
3.798447683050845125e-01 6.937910756916068067e-01
3.809284908963553873e-01 6.105056155155352826e-01
3.820122134876262066e-01 6.383633827499153313e-01
3.830959360788970258e-01 4.453169049388492340e-01
3.841796586701678451e-01 1.267393661481065692e+00
3.852633812614387199e-01 9.540337131408023197e-01
3.863471038527095391e-01 7.201353609680012369e-01
3.874308264439803029e-01 8.099355814675277543e-01
3.885145490352511777e-01 1.160504633347841263e+00
3.895982716265219969e-01 1.439521929061925221e+00
3.906819942177928162e-01 1.131146506443201361e+00
3.917657168090636355e-01 7.715426926724973100e-01
3.928494394003345103e-01 1.005463016580108615e+00
3.939331619916053295e-01 8.171976770070727980e-01
3.950168845828760933e-01 6.948368453513182885e-01
3.961006071741469681e-01 4.023590293824952369e-01
3.971843297654177873e-01 5.515892441193841478e-01
3.982680523566886066e-01 7.630503352947215490e-01
3.993517749479594259e-01 6.319539606606383586e-01
4.004354975392302451e-01 7.240856230128258630e-01
4.015192201305010089e-01 4.757829086526186302e-01
4.026029427217718837e-01 4.231292231707755036e-01
4.036866653130427030e-01 3.689893127686332264e-01
4.047703879043135777e-01 4.497635032864337745e-01
4.058541104955843415e-01 3.882313191059694191e-01
4.069378330868551608e-01 3.996357486764026135e-01
4.080215556781260355e-01 5.884019749196056637e-01
4.091052782693967993e-01 5.875616147472584316e-01
4.101890008606676741e-01 9.082795078200831540e-01
4.112727234519384933e-01 1.326148521387423784e+00
4.123564460432093681e-01 1.135755016108205950e+00
4.134401686344801319e-01 1.013642015426242438e+00
4.145238912257509512e-01 1.063725131802215174e+00
4.156076138170218259e-01 1.061274924642688688e+00
4.166913364082925897e-01 1.213736807504830040e+00
4.177750589995634645e-01 1.267673514137911184e+00
4.188587815908342837e-01 8.550926518603318982e-01
4.199425041821051585e-01 7.760070969030579136e-01
4.210262267733759223e-01 6.356506836134343530e-01
4.221099493646467415e-01 9.556356568656383388e-01
4.231936719559176163e-01 7.192687109577207138e-01
4.242773945471884911e-01 5.710554442656956553e-01
4.253611171384592549e-01 8.851924202147358756e-01
4.264448397297300741e-01 5.362226624622934423e-01
4.275285623210009489e-01 5.856012662434437743e-01
4.286122849122717127e-01 5.452657237721751926e-01
4.296960075035425319e-01 4.564072151992775161e-01
4.307797300948134067e-01 5.760227973888021324e-01
4.318634526860842815e-01 4.302509093464266243e-01
4.329471752773550453e-01 6.101953086808009630e-01
4.340308978686258645e-01 5.477701956086065138e-01
4.351146204598967393e-01 3.009047959576065523e-01
4.361983430511675031e-01 6.676526916352969465e-01
4.372820656424383223e-01 1.328391793958459743e+00
4.383657882337091971e-01 9.979738124280430611e-01
4.394495108249800719e-01 8.036737336514931940e-01
4.405332334162508356e-01 7.805883975399723340e-01
4.416169560075216549e-01 1.188957396851051840e+00
4.427006785987925297e-01 8.512684208190393065e-01
4.437844011900632935e-01 3.045385525159360895e-01
4.448681237813341127e-01 3.928349519855913741e-01
4.459518463726049875e-01 9.290711830985998176e-01
4.470355689638758623e-01 7.183717019481008492e-01
4.481192915551466260e-01 2.846441056230304412e-01
4.492030141464174453e-01 4.497961548234457041e-01
4.502867367376883201e-01 8.546822519593035850e-01
4.513704593289590838e-01 6.028214480470239778e-01
