# q (1/angstrom), Intensity (arb)
2.004886800316986462e-02 4.690441935271081775e+02
2.113259059444069429e-02 5.669152736029346897e+02
2.221631318571152050e-02 6.164224370075470461e+02
2.330003577698234671e-02 6.439103216659502777e+02
2.438375836825317292e-02 6.702799456734004480e+02
2.546748095952399912e-02 6.829859066365933131e+02
2.655120355079482186e-02 7.004734627817722412e+02
2.763492614206565501e-02 7.110657854015406656e+02
2.871864873333647775e-02 7.050305437735323721e+02
2.980237132460730742e-02 6.990248803942602080e+02
3.088609391587813363e-02 6.925073465407899675e+02
3.196981650714896678e-02 6.860661679804608184e+02
3.305353909841978605e-02 6.816938487187799183e+02
3.413726168969061919e-02 6.718937937203098727e+02
3.522098428096144540e-02 6.654958710735930936e+02
3.630470687223227161e-02 6.580541851189148019e+02
3.738842946350309782e-02 6.464973479158437613e+02
3.847215205477392402e-02 6.444304357591053076e+02
3.955587464604475717e-02 6.393311038357664984e+02
4.063959723731558338e-02 6.285966899547067896e+02
4.172331982858640959e-02 6.230234831146392480e+02
4.280704241985723579e-02 6.150003499429005842e+02
4.389076501112806894e-02 6.036563563165445885e+02
4.497448760239888821e-02 5.962790108832003853e+02
4.605821019366971442e-02 5.870697819141843183e+02
4.714193278494054756e-02 5.731471990974849859e+02
4.822565537621137377e-02 5.633076065050156558e+02
4.930937796748219998e-02 5.555352250901489697e+02
5.039310055875302619e-02 5.441522758754016422e+02
5.147682315002385933e-02 5.349036564951239825e+02
5.256054574129467860e-02 5.257120930086747421e+02
5.364426833256550481e-02 5.176624417933118139e+02
5.472799092383633796e-02 5.094964308494052148e+02
5.581171351510716416e-02 4.996959801141050548e+02
5.689543610637798343e-02 4.892834399102727048e+02
5.797915869764881658e-02 4.779322934432706234e+02
5.906288128891964972e-02 4.684011097929951006e+02
6.014660388019047593e-02 4.611972282120131013e+02
6.123032647146129520e-02 4.525016016437981534e+02
6.231404906273212835e-02 4.443339287452678832e+02
6.339777165400295456e-02 4.344122229182539741e+02
6.448149424527377382e-02 4.244079122618226165e+02
6.556521683654460697e-02 4.143660020422273647e+02
6.664893942781544012e-02 4.072589516696039027e+02
6.773266201908627326e-02 3.963266630337337233e+02
6.881638461035709253e-02 3.869994879937489713e+02
6.990010720162791180e-02 3.776112856584301198e+02
7.098382979289874495e-02 3.705920379416821220e+02
7.206755238416956422e-02 3.604261999316903484e+02
7.315127497544039736e-02 3.515119870255737169e+02
7.423499756671123051e-02 3.438699727259100314e+02
7.531872015798206366e-02 3.355257850232517285e+02
7.640244274925288293e-02 3.267567863403735942e+02
7.748616534052371607e-02 3.195338505158596263e+02
7.856988793179453534e-02 3.106293060718119818e+02
7.965361052306535461e-02 3.012923335522933712e+02
8.073733311433618776e-02 2.926166463286425028e+02
8.182105570560702090e-02 2.843084854571908409e+02
8.290477829687785405e-02 2.757533051273726414e+02
8.398850088814867332e-02 2.670928830621508041e+02
8.507222347941950646e-02 2.594057385922648109e+02
8.615594607069032573e-02 2.493912295946433630e+02
8.723966866196115888e-02 2.418017489797508119e+02
8.832339125323197815e-02 2.333299986609023620e+02
8.940711384450281130e-02 2.253622665414768562e+02
9.049083643577364444e-02 2.201169416702491333e+02
9.157455902704446371e-02 2.117591372763740480e+02
9.265828161831529686e-02 2.031087654332672798e+02
9.374200420958611613e-02 1.954796884322121571e+02
9.482572680085694927e-02 1.880763141667457887e+02
9.590944939212776854e-02 1.809086361654578070e+02
9.699317198339860169e-02 1.741524094095183841e+02
9.807689457466943483e-02 1.671642734651751425e+02
9.916061716594025410e-02 1.597637721415923693e+02
1.002443397572110872e-01 1.527297708497835629e+02
1.013280623484819065e-01 1.471933583793558569e+02
1.024117849397527397e-01 1.418276274328243005e+02
1.034955075310235728e-01 1.356277210580476549e+02
1.045792301222943782e-01 1.292517235812696299e+02
1.056629527135652113e-01 1.238479627070282447e+02
1.067466753048360445e-01 1.184604464200331222e+02
1.078303978961068776e-01 1.134678018139877906e+02
1.089141204873776969e-01 1.084685704262198840e+02
1.099978430786485301e-01 1.040455509471920550e+02
1.110815656699193632e-01 9.765442091252933210e+01
1.121652882611901964e-01 9.378351375416139035e+01
1.132490108524610017e-01 8.977132001853567544e+01
1.143327334437318349e-01 8.430248488241710447e+01
1.154164560350026680e-01 8.000219924690620132e+01
1.165001786262734873e-01 7.704193175895190393e+01
1.175839012175443204e-01 7.442151309013470950e+01
1.186676238088151536e-01 7.041101726051638821e+01
1.197513464000859867e-01 6.703575783583329439e+01
1.208350689913567921e-01 6.428762993789513303e+01
1.219187915826276253e-01 5.917898158771407680e+01
1.230025141738984584e-01 5.542810472812971057e+01
1.240862367651692777e-01 5.394484169462467094e+01
1.251699593564401247e-01 5.076851020746673271e+01
1.262536819477109440e-01 4.734766116197980068e+01
1.273374045389817633e-01 4.387594961063507526e+01
1.284211271302525825e-01 4.168150707978520586e+01
1.295048497215234018e-01 3.918059113527800719e+01
1.305885723127942488e-01 3.725948918472528248e+01
1.316722949040650681e-01 3.442302971613042928e+01
1.327560174953359151e-01 3.321770815572216407e+01
1.338397400866067344e-01 3.060019903382837470e+01
1.349234626778775537e-01 2.903941226130194764e+01
1.360071852691483729e-01 2.752469865385745607e+01
1.370909078604191922e-01 2.504304936013602401e+01
1.381746304516900392e-01 2.329865972886457826e+01
1.392583530429608585e-01 2.153823382835747680e+01
1.403420756342317055e-01 2.088829002683672798e+01
1.414257982255025248e-01 1.970835343711993914e+01
1.425095208167733440e-01 1.858348522059577590e+01
1.435932434080441633e-01 1.748286832417090864e+01
1.446769659993149826e-01 1.570787820606309992e+01
1.457606885905858296e-01 1.451556416176876496e+01
1.468444111818566489e-01 1.295551809838784152e+01
1.479281337731274959e-01 1.188765718485254297e+01
1.490118563643983152e-01 1.149982270994118494e+01
1.500955789556691622e-01 1.054463068179066454e+01
1.511793015469399537e-01 9.798747749739249002e+00
1.522630241382108007e-01 8.909059531473729976e+00
1.533467467294816200e-01 7.874054769273726606e+00
1.544304693207524393e-01 7.204348824448771893e+00
1.555141919120232863e-01 7.293150621532930700e+00
1.565979145032941056e-01 7.288574620655424496e+00
1.576816370945649526e-01 6.405874437757887563e+00
1.587653596858357441e-01 5.842000614779180978e+00
1.598490822771065911e-01 5.494585248436180791e+00
1.609328048683774104e-01 5.534944774935468104e+00
1.620165274596482297e-01 5.325238073308526054e+00
1.631002500509190767e-01 4.607368619131761989e+00
1.641839726421898960e-01 4.664028271828584593e+00
1.652676952334607430e-01 4.794629676722450995e+00
1.663514178247315345e-01 4.522854352530856659e+00
1.674351404160023815e-01 4.252827741388756522e+00
1.685188630072732008e-01 4.739194332955264599e+00
1.696025855985440201e-01 4.535184542543703401e+00
1.706863081898148671e-01 3.639004195985023671e+00
1.717700307810856863e-01 2.771178329143310748e+00
1.728537533723565334e-01 3.827644910201883022e+00
1.739374759636273526e-01 4.116707563091296151e+00
1.750211985548981719e-01 4.599254095637803630e+00
1.761049211461689912e-01 4.187938778331385947e+00
1.771886437374398104e-01 3.353097623294189589e+00
1.782723663287106575e-01 3.465504226465725424e+00
1.793560889199814767e-01 3.055683556950782531e+00
1.804398115112523238e-01 3.321101782706904260e+00
1.815235341025231430e-01 3.252129451557294715e+00
1.826072566937939623e-01 3.637981753617566483e+00
1.836909792850647816e-01 3.610507345128979750e+00
1.847747018763356008e-01 4.372773129303652695e+00
1.858584244676064479e-01 4.791319874328536343e+00
1.869421470588772671e-01 4.601330907481468557e+00
1.880258696501481142e-01 4.595832594220041756e+00
1.891095922414189334e-01 3.990123182587325346e+00
1.901933148326897527e-01 4.069993714507546656e+00
1.912770374239605720e-01 4.673328882428535280e+00
1.923607600152313912e-01 4.161725696316921130e+00
1.934444826065022383e-01 5.117525211606476887e+00
1.945282051977730575e-01 5.444950905098124849e+00
1.956119277890439045e-01 5.022180060470702756e+00
1.966956503803147238e-01 4.975452760052888834e+00
1.977793729715855431e-01 4.476059313651063576e+00
1.988630955628563624e-01 4.989527487567045227e+00
1.999468181541271816e-01 5.441618340155770284e+00
2.010305407453980286e-01 5.007529953881345364e+00
2.021142633366688757e-01 4.932160507227564494e+00
2.031979859279396949e-01 4.578493792779710247e+00
2.042817085192105420e-01 5.490852489671283365e+00
2.053654311104813335e-01 5.994421176338931900e+00
2.064491537017522083e-01 6.333599236582443837e+00
2.075328762930229998e-01 5.589110703878134245e+00
2.086165988842938190e-01 6.137099582999809400e+00
2.097003214755646661e-01 5.729806118852025065e+00
2.107840440668354853e-01 5.612356994233778096e+00
2.118677666581063324e-01 5.047524193919201707e+00
2.129514892493771239e-01 4.943090993816440459e+00
2.140352118406479986e-01 6.179727252553846029e+00
2.151189344319187902e-01 6.550257717374222466e+00
2.162026570231896372e-01 5.518593797110185051e+00
2.172863796144604565e-01 5.298547619279815990e+00
2.183701022057312757e-01 6.303010076770391379e+00
2.194538247970021227e-01 4.739694039445964791e+00
2.205375473882729143e-01 4.466775260137637815e+00
2.216212699795437890e-01 4.339752341221867482e+00
2.227049925708145806e-01 4.352337414924704717e+00
2.237887151620854276e-01 4.807149444906315239e+00
2.248724377533562468e-01 4.994472989686329356e+00
2.259561603446270661e-01 4.981416366633141024e+00
2.270398829358979131e-01 4.707628057936886989e+00
2.281236055271687047e-01 4.446499728713291688e+00
2.292073281184395794e-01 3.942024032190232674e+00
2.302910507097103709e-01 4.501819719967073752e+00
2.313747733009812180e-01 4.500018879313444131e+00
2.324584958922520372e-01 4.293959157382602143e+00
2.335422184835228565e-01 4.303542723796169867e+00
2.346259410747937035e-01 4.505437794860284839e+00
2.357096636660644950e-01 4.390002259568973386e+00
2.367933862573353698e-01 4.602191212446882673e+00
2.378771088486061613e-01 4.441205020515923252e+00
2.389608314398770084e-01 4.346100335128852521e+00
2.400445540311478276e-01 4.635412285758121698e+00
2.411282766224186469e-01 4.524133909896164596e+00
2.422119992136894939e-01 4.470510619537606090e+00
2.432957218049602854e-01 3.662554110924901352e+00
2.443794443962311602e-01 3.241624209731298834e+00
2.454631669875019517e-01 3.615701278182996248e+00
2.465468895787727988e-01 3.764958229183946514e+00
2.476306121700436180e-01 3.659361397002356853e+00
2.487143347613144373e-01 3.470641416851236727e+00
2.497980573525852843e-01 3.379251672542693541e+00
2.508817799438560758e-01 2.902566862480341570e+00
2.519655025351269506e-01 3.265239191002223151e+00
2.530492251263977699e-01 3.603425493006227498e+00
2.541329477176685891e-01 3.289920171484908451e+00
2.552166703089394084e-01 3.265162671649136428e+00
2.563003929002102277e-01 3.370668966251912479e+00
2.573841154914810470e-01 3.176933307696742759e+00
2.584678380827518662e-01 2.445813387923635673e+00
2.595515606740227410e-01 2.251374604904043508e+00
2.606352832652935603e-01 2.504700620332897643e+00
2.617190058565643795e-01 2.078549529375862903e+00
2.628027284478351988e-01 1.554624873176265965e+00
2.638864510391060181e-01 2.518637229243807951e+00
2.649701736303768373e-01 2.339980264361116724e+00
2.660538962216476566e-01 2.235258349335737194e+00
2.671376188129185314e-01 2.126493309003819832e+00
2.682213414041893507e-01 2.085184970233257218e+00
2.693050639954601699e-01 1.594433968741867602e+00
2.703887865867309892e-01 1.409487541439546021e+00
2.714725091780018085e-01 1.279151201567657381e+00
2.725562317692726277e-01 7.477954350643756243e-01
2.736399543605434470e-01 1.445097441836253438e+00
2.747236769518143218e-01 2.411773847967992879e+00
2.758073995430851411e-01 1.984922211492204269e+00
2.768911221343559603e-01 2.485918204137959719e+00
2.779748447256267796e-01 2.235894001569135980e+00
2.790585673168975989e-01 1.690283894672433007e+00
2.801422899081684181e-01 1.210203803409427792e+00
2.812260124994392374e-01 1.108655414082107882e+00
2.823097350907101122e-01 5.572019056284318594e-01
2.833934576819809315e-01 9.974904014600838309e-01
2.844771802732517507e-01 1.187613959892360072e+00
2.855609028645225700e-01 9.188951916093515138e-01
2.866446254557933893e-01 1.373447402374836201e+00
2.877283480470642085e-01 1.793512870884484300e+00
2.888120706383350278e-01 1.859073526035444957e+00
2.898957932296059026e-01 2.078246186960996056e+00
2.909795158208767218e-01 2.097502058795043922e+00
2.920632384121475411e-01 1.804230010094642012e+00
2.931469610034183604e-01 1.792852116963416620e+00
2.942306835946891796e-01 2.472520734953434385e+00
2.953144061859599989e-01 2.013501318766884651e+00
2.963981287772308182e-01 8.908919799386012528e-01
2.974818513685016930e-01 1.253918623684228351e+00
2.985655739597725122e-01 1.589900274733111019e+00
2.996492965510433315e-01 5.971639283577303559e-01
3.007330191423141508e-01 1.029743529314487205e+00
3.018167417335849700e-01 1.258462447640738446e+00
3.029004643248558448e-01 1.568384812783818916e+00
3.039841869161266086e-01 1.360520829755785144e+00
3.050679095073974834e-01 1.224081032776041411e+00
3.061516320986683026e-01 1.132750292100553224e+00
3.072353546899391219e-01 9.759624357425877861e-01
3.083190772812099412e-01 1.450751555774672852e+00
3.094027998724807604e-01 1.530011082230174679e+00
3.104865224637516352e-01 1.136947754758125484e+00
3.115702450550223990e-01 8.043560069196473705e-01
3.126539676462932738e-01 9.777343727106426741e-01
3.137376902375640930e-01 1.045782339588924970e+00
3.148214128288349123e-01 1.268250348114420945e+00
3.159051354201057316e-01 1.858248182522459047e+00
3.169888580113765508e-01 1.419760307788351383e+00
3.180725806026474256e-01 1.148220119892243929e+00
3.191563031939181894e-01 1.072100157302244838e+00
3.202400257851890641e-01 6.866034918199375170e-01
3.213237483764598834e-01 7.570940787212236955e-01
3.224074709677307027e-01 1.061789666023386758e+00
3.234911935590015220e-01 1.392543295858956753e+00
3.245749161502723412e-01 1.300167769681451091e+00
3.256586387415432160e-01 9.693691963000361511e-01
3.267423613328139798e-01 1.537050457079757848e+00
3.278260839240848545e-01 1.210482051389305980e+00
3.289098065153556738e-01 8.142725392319931643e-01
3.299935291066264931e-01 6.139931927682482637e-01
3.310772516978973123e-01 6.628812629527942590e-01
3.321609742891681316e-01 5.610101138605614324e-01
3.332446968804390064e-01 1.582717044899055736e+00
3.343284194717097701e-01 1.556891667280964953e+00
3.354121420629806449e-01 1.223752919585848531e+00
3.364958646542514642e-01 2.146334553402638790e+00
3.375795872455222835e-01 1.846877820995118213e+00
3.386633098367931027e-01 7.980279251480197900e-01
3.397470324280639220e-01 5.422234288498799515e-01
3.408307550193347968e-01 7.689650947327066888e-01
3.419144776106055605e-01 8.971308100213377656e-01
3.429982002018764353e-01 1.242669773990300541e+00
3.440819227931472546e-01 1.428308640199190904e+00
3.451656453844180739e-01 1.605824500987438341e+00
3.462493679756888931e-01 9.967551775794589730e-01
3.473330905669597679e-01 1.057751454818117054e+00
3.484168131582305872e-01 1.867458999547594090e+00
3.495005357495013509e-01 1.727728201503580863e+00
3.505842583407722257e-01 1.716422859641639320e+00
3.516679809320430450e-01 1.571098312670855535e+00
3.527517035233138643e-01 1.260438481768900942e+00
3.538354261145846835e-01 1.256140835531297739e+00
3.549191487058555583e-01 1.889861476225632941e+00
3.560028712971263776e-01 1.408175107171658169e+00
3.570865938883971413e-01 1.160156532865514123e+00
3.581703164796680161e-01 1.033011913210515331e+00
3.592540390709388354e-01 8.357569112459231064e-01
3.603377616622096546e-01 1.478959986455336661e+00
3.614214842534804739e-01 9.324002833597120343e-01
3.625052068447513487e-01 1.315008328692329087e+00
3.635889294360221680e-01 1.239276609926307060e+00
3.646726520272929317e-01 1.322758205998283643e+00
3.657563746185638065e-01 1.025134301751577937e+00
3.668400972098346258e-01 9.275855299821671451e-01
3.679238198011054450e-01 1.253524770815147349e+00
3.690075423923762643e-01 1.436069798350047222e+00
3.700912649836471391e-01 1.192633931591544183e+00
3.711749875749179584e-01 1.182187834907040269e+00
3.722587101661887221e-01 1.105364942076477064e+00
3.733424327574595969e-01 9.391424901987619478e-01
3.744261553487304162e-01 1.160193650864329129e+00
3.755098779400012354e-01 1.192646118322286952e+00
3.765936005312720547e-01 1.009228315001820420e+00
3.776773231225429295e-01 1.002533292043821689e+00
3.787610457138137487e-01 6.517508428426737055e-01
3.798447683050845125e-01 8.287155016377028005e-01
3.809284908963553873e-01 3.051916033795407657e-01
3.820122134876262066e-01 4.372411416368606751e-01
3.830959360788970258e-01 8.032527857442772756e-01
3.841796586701678451e-01 1.122858746066185631e+00
3.852633812614387199e-01 1.276829205018458424e+00
3.863471038527095391e-01 9.658929647453788903e-01
3.874308264439803029e-01 1.029020532968672796e+00
3.885145490352511777e-01 1.081515879320761542e+00
3.895982716265219969e-01 8.149499645213609256e-01
3.906819942177928162e-01 6.624311692077640146e-01
3.917657168090636355e-01 1.168355384313144896e+00
3.928494394003345103e-01 7.669429214271588080e-01
3.939331619916053295e-01 5.963276945900588544e-01
3.950168845828760933e-01 8.913337354730259676e-01
3.961006071741469681e-01 1.296434328664503255e+00
3.971843297654177873e-01 6.724058171067639478e-01
3.982680523566886066e-01 5.379162626687019610e-01
3.993517749479594259e-01 8.725924959678508230e-01
4.004354975392302451e-01 6.690938304265756642e-01
4.015192201305010089e-01 7.653466740797512102e-01
4.026029427217718837e-01 1.138935561893688941e+00
4.036866653130427030e-01 1.062323699955385337e+00
4.047703879043135777e-01 9.929269808007887832e-01
4.058541104955843415e-01 1.083082275576103370e+00
4.069378330868551608e-01 8.306205085400364396e-01
4.080215556781260355e-01 8.892522754398868301e-01
4.091052782693967993e-01 1.060090380175509495e+00
4.101890008606676741e-01 9.359374821280823653e-01
4.112727234519384933e-01 7.355894828169766697e-01
4.123564460432093681e-01 7.049023757139707413e-01
4.134401686344801319e-01 5.349093912483056101e-01
4.145238912257509512e-01 6.357720890518265833e-01
4.156076138170218259e-01 7.353764719022848340e-01
4.166913364082925897e-01 8.544613690958726693e-01
4.177750589995634645e-01 1.216984733863370138e+00
4.188587815908342837e-01 1.036347840596476999e+00
4.199425041821051585e-01 9.632622326324167261e-01
4.210262267733759223e-01 1.220384536018002564e+00
4.221099493646467415e-01 1.089689423576572835e+00
4.231936719559176163e-01 5.613952194419198349e-01
4.242773945471884911e-01 3.495673383142303692e-01
4.253611171384592549e-01 6.464425989869369005e-01
4.264448397297300741e-01 4.795499654868962125e-01
4.275285623210009489e-01 1.074653942024340836e+00
4.286122849122717127e-01 1.386123869347073878e+00
4.296960075035425319e-01 8.742082835354807457e-01
4.307797300948134067e-01 6.876763537845818064e-01
4.318634526860842815e-01 1.277307074399445241e+00
4.329471752773550453e-01 9.662168297169699827e-01
4.340308978686258645e-01 2.068241547324589646e-02
4.351146204598967393e-01 3.438025403746252096e-01
4.361983430511675031e-01 8.311513812055153494e-01
4.372820656424383223e-01 9.396183983054413602e-01
4.383657882337091971e-01 9.375608662777494828e-01
4.394495108249800719e-01 1.078867361453518470e+00
4.405332334162508356e-01 3.885221345495324385e-01
4.416169560075216549e-01 2.781339773023745465e-01
4.427006785987925297e-01 3.451240559589194845e-01
4.437844011900632935e-01 7.026790962156752585e-01
4.448681237813341127e-01 6.980714361014008773e-01
4.459518463726049875e-01 7.935304914418424005e-01
4.470355689638758623e-01 7.528338033142460972e-01
4.481192915551466260e-01 9.908139105285442838e-01
4.492030141464174453e-01 1.094414529173363348e+00
4.502867367376883201e-01 7.042106865808790417e-01
4.513704593289590838e-01 4.892735243050196914e-01
