# q (1/angstrom), Intensity (arb)
2.004886800316986462e-02 2.998015975497364707e+02
2.113259059444069429e-02 3.674188396702836599e+02
2.221631318571152050e-02 4.005685587614771634e+02
2.330003577698234671e-02 4.174818377705028070e+02
2.438375836825317292e-02 4.342343401311080129e+02
2.546748095952399912e-02 4.460912597796826731e+02
2.655120355079482186e-02 4.591828759752265228e+02
2.763492614206565501e-02 4.679103744567455010e+02
2.871864873333647775e-02 4.667446063502777633e+02
2.980237132460730742e-02 4.641136073047404693e+02
3.088609391587813363e-02 4.663895162685969353e+02
3.196981650714896678e-02 4.616518360770946288e+02
3.305353909841978605e-02 4.561644354241717565e+02
3.413726168969061919e-02 4.528214512459264824e+02
3.522098428096144540e-02 4.531499199984393158e+02
3.630470687223227161e-02 4.505948094070083698e+02
3.738842946350309782e-02 4.460925280396342600e+02
3.847215205477392402e-02 4.413346263774676572e+02
3.955587464604475717e-02 4.376696487874307877e+02
4.063959723731558338e-02 4.376298842661302615e+02
4.172331982858640959e-02 4.368547153058927961e+02
4.280704241985723579e-02 4.325434663266798339e+02
4.389076501112806894e-02 4.269263579902406605e+02
4.497448760239888821e-02 4.232296053818370751e+02
4.605821019366971442e-02 4.194829922242715838e+02
4.714193278494054756e-02 4.174023460105487402e+02
4.822565537621137377e-02 4.127019987141293313e+02
4.930937796748219998e-02 4.064746425181629661e+02
5.039310055875302619e-02 4.014474806772238367e+02
5.147682315002385933e-02 3.995347814225459047e+02
5.256054574129467860e-02 3.965790065220104452e+02
5.364426833256550481e-02 3.925242103871050290e+02
5.472799092383633796e-02 3.898854422183636075e+02
5.581171351510716416e-02 3.840374448888672987e+02
5.689543610637798343e-02 3.800411309488727625e+02
5.797915869764881658e-02 3.752169726734903747e+02
5.906288128891964972e-02 3.684510760294311922e+02
6.014660388019047593e-02 3.614777858010347700e+02
6.123032647146129520e-02 3.579618148618765190e+02
6.231404906273212835e-02 3.525078202083665815e+02
6.339777165400295456e-02 3.486330592717590093e+02
6.448149424527377382e-02 3.457754679436452534e+02
6.556521683654460697e-02 3.403155488868894736e+02
6.664893942781544012e-02 3.361227589734047569e+02
6.773266201908627326e-02 3.308158459132930602e+02
6.881638461035709253e-02 3.250020940684995026e+02
6.990010720162791180e-02 3.212763215884577903e+02
7.098382979289874495e-02 3.161496946947056017e+02
7.206755238416956422e-02 3.112696743587255241e+02
7.315127497544039736e-02 3.057192751737449044e+02
7.423499756671123051e-02 2.990881319004143961e+02
7.531872015798206366e-02 2.949338237866979853e+02
7.640244274925288293e-02 2.898719949621552132e+02
7.748616534052371607e-02 2.865924477594849122e+02
7.856988793179453534e-02 2.821553655974331605e+02
7.965361052306535461e-02 2.781015282160060451e+02
8.073733311433618776e-02 2.733511737975811684e+02
8.182105570560702090e-02 2.670732710206782485e+02
8.290477829687785405e-02 2.610964483958077835e+02
8.398850088814867332e-02 2.574991689373885606e+02
8.507222347941950646e-02 2.526701740089843895e+02
8.615594607069032573e-02 2.484802636660124335e+02
8.723966866196115888e-02 2.433632638506708190e+02
8.832339125323197815e-02 2.387405221697567015e+02
8.940711384450281130e-02 2.341874563885251064e+02
9.049083643577364444e-02 2.288777054442533938e+02
9.157455902704446371e-02 2.238704474002795735e+02
9.265828161831529686e-02 2.195419962182592144e+02
9.374200420958611613e-02 2.146860808539738059e+02
9.482572680085694927e-02 2.095584468435342274e+02
9.590944939212776854e-02 2.050365724031196351e+02
9.699317198339860169e-02 2.007915875264505985e+02
9.807689457466943483e-02 1.956192619919964386e+02
9.916061716594025410e-02 1.918797193668282262e+02
1.002443397572110872e-01 1.877469895603936152e+02
1.013280623484819065e-01 1.841115720910854066e+02
1.024117849397527397e-01 1.802370179025394918e+02
1.034955075310235728e-01 1.762886119963646365e+02
1.045792301222943782e-01 1.717494516525245842e+02
1.056629527135652113e-01 1.674741090901695202e+02
1.067466753048360445e-01 1.619244747053238314e+02
1.078303978961068776e-01 1.572968356222820319e+02
1.089141204873776969e-01 1.553682234424454975e+02
1.099978430786485301e-01 1.511547101251249501e+02
1.110815656699193632e-01 1.463791440631036949e+02
1.121652882611901964e-01 1.428125483468850518e+02
1.132490108524610017e-01 1.398697506169455096e+02
1.143327334437318349e-01 1.363369161444927897e+02
1.154164560350026680e-01 1.320894101676385901e+02
1.165001786262734873e-01 1.280958671372565618e+02
1.175839012175443204e-01 1.233801116583667294e+02
1.186676238088151536e-01 1.179546474287990634e+02
1.197513464000859867e-01 1.152104348019369411e+02
1.208350689913567921e-01 1.125663186322904323e+02
1.219187915826276253e-01 1.097808927927497678e+02
1.230025141738984584e-01 1.067175824498214354e+02
1.240862367651692777e-01 1.026877135421555067e+02
1.251699593564401247e-01 9.937666438916087941e+01
1.262536819477109440e-01 9.565159398001262048e+01
1.273374045389817633e-01 9.420814679844482953e+01
1.284211271302525825e-01 9.157652815314889949e+01
1.295048497215234018e-01 8.746839668841315074e+01
1.305885723127942488e-01 8.486248568439307860e+01
1.316722949040650681e-01 8.297910309189606437e+01
1.327560174953359151e-01 7.960776816670190215e+01
1.338397400866067344e-01 7.635265819916116925e+01
1.349234626778775537e-01 7.373732688036190552e+01
1.360071852691483729e-01 7.144353657023046367e+01
1.370909078604191922e-01 6.888775259272020435e+01
1.381746304516900392e-01 6.720679032090677651e+01
1.392583530429608585e-01 6.522265785229495805e+01
1.403420756342317055e-01 6.332274197618556855e+01
1.414257982255025248e-01 5.959744659275190770e+01
1.425095208167733440e-01 5.717045564826293003e+01
1.435932434080441633e-01 5.567759113551133510e+01
1.446769659993149826e-01 5.428600969809650678e+01
1.457606885905858296e-01 5.173362442083177370e+01
1.468444111818566489e-01 4.886370374784721093e+01
1.479281337731274959e-01 4.762220591792404889e+01
1.490118563643983152e-01 4.586865823929258568e+01
1.500955789556691622e-01 4.327554066282419853e+01
1.511793015469399537e-01 4.078014124661407891e+01
1.522630241382108007e-01 3.956920999462519717e+01
1.533467467294816200e-01 3.796276545360026944e+01
1.544304693207524393e-01 3.559775013384324893e+01
1.555141919120232863e-01 3.420497781984127528e+01
1.565979145032941056e-01 3.270441429265358124e+01
1.576816370945649526e-01 3.083984338294990835e+01
1.587653596858357441e-01 2.980270420693304345e+01
1.598490822771065911e-01 2.905352867349293433e+01
1.609328048683774104e-01 2.878339799108763941e+01
1.620165274596482297e-01 2.681189606554013949e+01
1.631002500509190767e-01 2.524856786659631780e+01
1.641839726421898960e-01 2.443967636372073571e+01
1.652676952334607430e-01 2.428077835587339450e+01
1.663514178247315345e-01 2.267892485557760551e+01
1.674351404160023815e-01 2.113489919318149646e+01
1.685188630072732008e-01 1.958229454789753277e+01
1.696025855985440201e-01 1.886698784763930803e+01
1.706863081898148671e-01 1.870067687403323475e+01
1.717700307810856863e-01 1.772040375046296390e+01
1.728537533723565334e-01 1.659713396211355985e+01
1.739374759636273526e-01 1.536782872309285608e+01
1.750211985548981719e-01 1.425558523855053750e+01
1.761049211461689912e-01 1.419604071289791136e+01
1.771886437374398104e-01 1.368315535566111407e+01
1.782723663287106575e-01 1.296159202274529321e+01
1.793560889199814767e-01 1.245205649786797153e+01
1.804398115112523238e-01 1.181567221673986978e+01
1.815235341025231430e-01 1.113988181915118503e+01
1.826072566937939623e-01 9.658376898348763007e+00
1.836909792850647816e-01 9.184163113430258818e+00
1.847747018763356008e-01 9.190626440589369395e+00
1.858584244676064479e-01 8.664189496008305014e+00
1.869421470588772671e-01 7.706359476234780459e+00
1.880258696501481142e-01 8.365097716336975964e+00
1.891095922414189334e-01 8.288440101383912406e+00
1.901933148326897527e-01 6.820991109266202557e+00
1.912770374239605720e-01 5.764831185383030743e+00
1.923607600152313912e-01 6.091700975598001833e+00
1.934444826065022383e-01 5.707108134747954864e+00
1.945282051977730575e-01 4.744756645802596040e+00
1.956119277890439045e-01 4.638077906841942877e+00
1.966956503803147238e-01 4.863564699221711862e+00
1.977793729715855431e-01 4.797033430253037523e+00
1.988630955628563624e-01 3.958139478706669934e+00
1.999468181541271816e-01 4.405700788200192619e+00
2.010305407453980286e-01 3.668353857559310427e+00
2.021142633366688757e-01 3.587243652055946086e+00
2.031979859279396949e-01 3.447628478058391011e+00
2.042817085192105420e-01 3.254754950794819024e+00
2.053654311104813335e-01 3.649697068186696924e+00
2.064491537017522083e-01 3.539751994725321538e+00
2.075328762930229998e-01 4.080153340263365180e+00
2.086165988842938190e-01 3.060134408530558403e+00
2.097003214755646661e-01 3.006247150228858800e+00
2.107840440668354853e-01 3.777537357009208563e+00
2.118677666581063324e-01 3.446741030907332970e+00
2.129514892493771239e-01 3.646825796291238930e+00
2.140352118406479986e-01 3.316846546513062322e+00
2.151189344319187902e-01 3.239979837893173453e+00
2.162026570231896372e-01 2.256197590937091491e+00
2.172863796144604565e-01 2.329757700954473876e+00
2.183701022057312757e-01 2.842301646328280640e+00
2.194538247970021227e-01 2.327288281299757955e+00
2.205375473882729143e-01 1.748304936258847420e+00
2.216212699795437890e-01 2.434513761021463552e+00
2.227049925708145806e-01 2.917292359610982544e+00
2.237887151620854276e-01 3.093086990429256389e+00
2.248724377533562468e-01 2.543298774101941717e+00
2.259561603446270661e-01 2.745665465394765192e+00
2.270398829358979131e-01 3.120586721526748875e+00
2.281236055271687047e-01 3.236691078748194172e+00
2.292073281184395794e-01 3.054466288810417041e+00
2.302910507097103709e-01 3.116142091851301643e+00
2.313747733009812180e-01 3.273678121268005725e+00
2.324584958922520372e-01 3.434592738639508980e+00
2.335422184835228565e-01 2.902536672007897778e+00
2.346259410747937035e-01 2.159254915436463307e+00
2.357096636660644950e-01 2.402098991233899028e+00
2.367933862573353698e-01 2.226845659719913328e+00
2.378771088486061613e-01 2.457951390670700675e+00
2.389608314398770084e-01 1.828163315876395245e+00
2.400445540311478276e-01 2.178309989942647462e+00
2.411282766224186469e-01 2.983191692686787633e+00
2.422119992136894939e-01 2.702469329461663961e+00
2.432957218049602854e-01 2.327100732958697904e+00
2.443794443962311602e-01 3.123691564472650839e+00
2.454631669875019517e-01 2.922332141185052024e+00
2.465468895787727988e-01 3.244175362721449574e+00
2.476306121700436180e-01 3.274810725418802804e+00
2.487143347613144373e-01 3.001286156817229767e+00
2.497980573525852843e-01 3.634068495658198117e+00
2.508817799438560758e-01 3.054443465736056851e+00
2.519655025351269506e-01 3.390210061960161170e+00
2.530492251263977699e-01 3.518176886672733872e+00
2.541329477176685891e-01 2.780871006772500209e+00
2.552166703089394084e-01 2.787244568958215041e+00
2.563003929002102277e-01 3.086019385331567833e+00
2.573841154914810470e-01 3.161966418477220486e+00
2.584678380827518662e-01 2.992736001023928338e+00
2.595515606740227410e-01 2.673235668755893357e+00
2.606352832652935603e-01 2.864677649023576578e+00
2.617190058565643795e-01 3.054254109440449838e+00
2.628027284478351988e-01 3.215695376436599418e+00
2.638864510391060181e-01 3.811367754360261983e+00
2.649701736303768373e-01 3.652111102149177668e+00
2.660538962216476566e-01 3.078843417277596473e+00
2.671376188129185314e-01 2.822418432017911982e+00
2.682213414041893507e-01 3.060174721814249210e+00
2.693050639954601699e-01 3.272371129046277360e+00
2.703887865867309892e-01 3.376012254757085884e+00
2.714725091780018085e-01 3.243462025526824277e+00
2.725562317692726277e-01 2.982032555336502355e+00
2.736399543605434470e-01 2.695301313042833158e+00
2.747236769518143218e-01 1.696012472637377755e+00
2.758073995430851411e-01 2.449522816022636107e+00
2.768911221343559603e-01 2.759842826662605830e+00
2.779748447256267796e-01 3.004122648959963726e+00
2.790585673168975989e-01 3.174322086770459350e+00
2.801422899081684181e-01 2.973850737926582610e+00
2.812260124994392374e-01 2.624558138074235103e+00
2.823097350907101122e-01 2.219748394410714809e+00
2.833934576819809315e-01 2.316041918137045741e+00
2.844771802732517507e-01 2.018245370784399029e+00
2.855609028645225700e-01 2.314604026942731707e+00
2.866446254557933893e-01 2.377889456406464319e+00
2.877283480470642085e-01 2.018464488265934165e+00
2.888120706383350278e-01 1.651572848623132472e+00
2.898957932296059026e-01 1.587234515382135669e+00
2.909795158208767218e-01 2.250105919653989872e+00
2.920632384121475411e-01 2.458907575978869886e+00
2.931469610034183604e-01 2.313320082960856894e+00
2.942306835946891796e-01 2.533620554202073549e+00
2.953144061859599989e-01 2.308236565194221157e+00
2.963981287772308182e-01 1.977446122913192994e+00
2.974818513685016930e-01 1.765032969684838804e+00
2.985655739597725122e-01 2.331898189208018835e+00
2.996492965510433315e-01 2.630457447537708049e+00
3.007330191423141508e-01 2.834765185199699999e+00
3.018167417335849700e-01 2.382215632551861972e+00
3.029004643248558448e-01 2.201999842841971144e+00
3.039841869161266086e-01 2.674710727647095609e+00
3.050679095073974834e-01 2.412657602701557380e+00
3.061516320986683026e-01 2.329678218033080839e+00
3.072353546899391219e-01 2.180819513461543124e+00
3.083190772812099412e-01 1.787037871283359891e+00
3.094027998724807604e-01 2.124807289294054158e+00
3.104865224637516352e-01 1.874348610045601049e+00
3.115702450550223990e-01 2.304001224430976436e+00
3.126539676462932738e-01 2.188020191686959492e+00
3.137376902375640930e-01 1.683499188288010373e+00
3.148214128288349123e-01 1.886870814057289181e+00
3.159051354201057316e-01 2.040040660094547320e+00
3.169888580113765508e-01 1.762599934898602783e+00
3.180725806026474256e-01 1.424655403359125216e+00
3.191563031939181894e-01 1.566662959880815720e+00
3.202400257851890641e-01 2.023610072686906847e+00
3.213237483764598834e-01 2.031242029771291868e+00
3.224074709677307027e-01 1.366052128163076418e+00
3.234911935590015220e-01 9.701847709609268122e-01
3.245749161502723412e-01 1.398909225832767333e+00
3.256586387415432160e-01 1.190438779973305827e+00
3.267423613328139798e-01 1.508893202023315894e+00
3.278260839240848545e-01 1.665713523064312085e+00
3.289098065153556738e-01 1.506187588693521207e+00
3.299935291066264931e-01 1.551025697797896896e+00
3.310772516978973123e-01 1.214482639570221068e+00
3.321609742891681316e-01 9.190874686026972995e-01
3.332446968804390064e-01 8.511734218186859380e-01
3.343284194717097701e-01 9.208684729212279763e-01
3.354121420629806449e-01 9.441850933302049498e-01
3.364958646542514642e-01 8.966478331606566599e-01
3.375795872455222835e-01 7.984532612083086178e-01
3.386633098367931027e-01 1.068557485668875984e+00
3.397470324280639220e-01 8.053586089899624767e-01
3.408307550193347968e-01 5.635787576105570906e-01
3.419144776106055605e-01 6.583556168542514797e-01
3.429982002018764353e-01 9.583846948005572131e-01
3.440819227931472546e-01 8.423440971802733657e-01
3.451656453844180739e-01 1.342658935252913466e+00
3.462493679756888931e-01 1.275360301403068775e+00
3.473330905669597679e-01 1.181975893022752189e+00
3.484168131582305872e-01 8.231331249225490865e-01
3.495005357495013509e-01 9.090024138919829966e-01
3.505842583407722257e-01 1.064914156117964694e+00
3.516679809320430450e-01 6.794451731669397532e-01
3.527517035233138643e-01 9.351818626186911843e-01
3.538354261145846835e-01 8.997863330028366136e-01
3.549191487058555583e-01 8.467350972757117233e-01
3.560028712971263776e-01 8.069832714396909523e-01
3.570865938883971413e-01 8.539580824381829416e-01
3.581703164796680161e-01 9.120867767956895023e-01
3.592540390709388354e-01 6.376958747809595707e-01
3.603377616622096546e-01 1.026960519085207579e+00
3.614214842534804739e-01 1.402871940885219715e+00
3.625052068447513487e-01 6.255557599899077559e-01
3.635889294360221680e-01 4.612762428223931011e-01
3.646726520272929317e-01 2.796596401009026067e-01
3.657563746185638065e-01 7.650838430671456081e-01
3.668400972098346258e-01 9.198316865724507352e-01
3.679238198011054450e-01 9.963483831937480772e-01
3.690075423923762643e-01 1.274318197539415110e+00
3.700912649836471391e-01 1.506366570396266980e+00
3.711749875749179584e-01 1.149197296726157447e+00
3.722587101661887221e-01 6.565701036548574621e-01
3.733424327574595969e-01 3.265814142261689312e-01
3.744261553487304162e-01 8.399123961544177064e-01
3.755098779400012354e-01 1.536063917885385877e+00
3.765936005312720547e-01 9.524606503915720168e-01
3.776773231225429295e-01 8.199894852047293625e-01
3.787610457138137487e-01 1.124723600721324601e+00
3.798447683050845125e-01 1.116547797308811596e+00
3.809284908963553873e-01 9.734703887658611166e-01
3.820122134876262066e-01 6.279230726887590208e-01
3.830959360788970258e-01 7.640584018435419011e-01
3.841796586701678451e-01 9.122570285647810806e-01
3.852633812614387199e-01 6.859720428449520568e-01
3.863471038527095391e-01 6.684541290560304105e-01
3.874308264439803029e-01 6.617802593889905438e-01
3.885145490352511777e-01 8.899762358413738639e-01
3.895982716265219969e-01 1.102927520942358797e+00
3.906819942177928162e-01 9.157631437097819571e-01
3.917657168090636355e-01 8.034361866129842156e-01
3.928494394003345103e-01 9.996949508925752070e-01
3.939331619916053295e-01 3.879557819124954676e-01
3.950168845828760933e-01 2.886492813945267244e-01
3.961006071741469681e-01 2.797027338593949253e-01
3.971843297654177873e-01 2.854143163074098766e-01
3.982680523566886066e-01 1.352521888274225148e-01
3.993517749479594259e-01 4.950562350771150477e-01
4.004354975392302451e-01 4.591906560130638582e-01
4.015192201305010089e-01 6.413931923976576854e-01
4.026029427217718837e-01 7.005057834130781202e-01
4.036866653130427030e-01 6.501079242793963431e-01
4.047703879043135777e-01 4.172291576835647220e-01
4.058541104955843415e-01 5.226728802752802494e-01
4.069378330868551608e-01 6.583195285854941403e-01
4.080215556781260355e-01 1.192699182214951747e+00
4.091052782693967993e-01 7.854794054380960233e-01
4.101890008606676741e-01 5.794171390437838909e-01
4.112727234519384933e-01 2.133937868061224208e-01
4.123564460432093681e-01 4.065638465398535573e-01
4.134401686344801319e-01 7.288024026646411357e-01
4.145238912257509512e-01 5.910435264379856335e-01
4.156076138170218259e-01 9.319978008275455750e-01
4.166913364082925897e-01 1.124299706900444562e+00
4.177750589995634645e-01 6.311408941731002642e-01
4.188587815908342837e-01 6.829162697873556453e-01
4.199425041821051585e-01 6.027704903961392802e-01
4.210262267733759223e-01 6.993453359344385944e-01
4.221099493646467415e-01 8.975315400236922869e-01
4.231936719559176163e-01 6.873010068227500824e-01
4.242773945471884911e-01 7.329324553660541142e-01
4.253611171384592549e-01 7.176705289892453266e-01
4.264448397297300741e-01 3.557907513532967414e-01
4.275285623210009489e-01 3.669512106295087506e-01
4.286122849122717127e-01 8.617524597214725190e-01
4.296960075035425319e-01 5.823487170453489625e-01
4.307797300948134067e-01 4.421094113635319900e-01
4.318634526860842815e-01 8.112944204418113259e-01
4.329471752773550453e-01 1.413105627164398470e+00
4.340308978686258645e-01 1.363730992282711441e+00
4.351146204598967393e-01 8.581700263020479724e-01
4.361983430511675031e-01 5.474882606355038206e-01
4.372820656424383223e-01 6.422375681653278434e-01
4.383657882337091971e-01 6.323884562459909375e-01
4.394495108249800719e-01 1.121307577103550557e+00
4.405332334162508356e-01 8.706062337108306792e-01
4.416169560075216549e-01 6.530481506832330751e-01
4.427006785987925297e-01 5.741897721748614458e-01
4.437844011900632935e-01 6.298765072916836516e-01
4.448681237813341127e-01 5.393175347806078435e-01
4.459518463726049875e-01 5.205819693104132284e-01
4.470355689638758623e-01 5.294809640562760933e-01
4.481192915551466260e-01 3.867338562034348115e-01
4.492030141464174453e-01 5.341339050519735565e-01
4.502867367376883201e-01 6.499978693449577349e-01
4.513704593289590838e-01 7.518182418524901323e-01
