# q (1/angstrom), Intensity (arb)
2.004886800316986462e-02 4.369772891998291016e+02
2.113259059444069429e-02 5.199950237274169922e+02
2.221631318571152050e-02 5.645310497283935547e+02
2.330003577698234671e-02 5.829000587463378906e+02
2.438375836825317292e-02 5.992590675354003906e+02
2.546748095952399912e-02 6.148028717041015625e+02
2.655120355079482186e-02 6.315352783203125000e+02
2.763492614206565501e-02 6.394408035278320312e+02
2.871864873333647775e-02 6.351202850341796875e+02
2.980237132460730742e-02 6.299871864318847656e+02
3.088609391587813363e-02 6.259657859802246094e+02
3.196981650714896678e-02 6.215699996948242188e+02
3.305353909841978605e-02 6.151145019531250000e+02
3.413726168969061919e-02 6.099774017333984375e+02
3.522098428096144540e-02 6.049065513610839844e+02
3.630470687223227161e-02 5.996867713928222656e+02
3.738842946350309782e-02 5.924019851684570312e+02
3.847215205477392402e-02 5.903089637756347656e+02
3.955587464604475717e-02 5.846102638244628906e+02
4.063959723731558338e-02 5.795621223449707031e+02
4.172331982858640959e-02 5.736566276550292969e+02
4.280704241985723579e-02 5.677759475708007812e+02
4.389076501112806894e-02 5.612379913330078125e+02
4.497448760239888821e-02 5.524447860717773438e+02
4.605821019366971442e-02 5.462941856384277344e+02
4.714193278494054756e-02 5.401291046142578125e+02
4.822565537621137377e-02 5.317844657897949219e+02
4.930937796748219998e-02 5.251290702819824219e+02
5.039310055875302619e-02 5.192769660949707031e+02
5.147682315002385933e-02 5.130235176086425781e+02
5.256054574129467860e-02 5.052921295166015625e+02
5.364426833256550481e-02 4.998971710205078125e+02
5.472799092383633796e-02 4.950790138244628906e+02
5.581171351510716416e-02 4.863100624084472656e+02
5.689543610637798343e-02 4.780388908386230469e+02
5.797915869764881658e-02 4.712245368957519531e+02
5.906288128891964972e-02 4.637692031860351562e+02
6.014660388019047593e-02 4.543349723815917969e+02
6.123032647146129520e-02 4.477951049804687500e+02
6.231404906273212835e-02 4.403759384155273438e+02
6.339777165400295456e-02 4.317858200073242188e+02
6.448149424527377382e-02 4.264120254516601562e+02
6.556521683654460697e-02 4.196643905639648438e+02
6.664893942781544012e-02 4.105943984985351562e+02
6.773266201908627326e-02 4.038674087524414062e+02
6.881638461035709253e-02 3.990197639465332031e+02
6.990010720162791180e-02 3.909769287109375000e+02
7.098382979289874495e-02 3.852307472229003906e+02
7.206755238416956422e-02 3.762324028015136719e+02
7.315127497544039736e-02 3.709510231018066406e+02
7.423499756671123051e-02 3.643961257934570312e+02
7.531872015798206366e-02 3.563106575012207031e+02
7.640244274925288293e-02 3.493931694030761719e+02
7.748616534052371607e-02 3.430653800964355469e+02
7.856988793179453534e-02 3.366816139221191406e+02
7.965361052306535461e-02 3.308900222778320312e+02
8.073733311433618776e-02 3.245827674865722656e+02
8.182105570560702090e-02 3.177679328918457031e+02
8.290477829687785405e-02 3.080744705200195312e+02
8.398850088814867332e-02 3.008265953063964844e+02
8.507222347941950646e-02 2.957753601074218750e+02
8.615594607069032573e-02 2.896162261962890625e+02
8.723966866196115888e-02 2.825878677368164062e+02
8.832339125323197815e-02 2.762316932678222656e+02
8.940711384450281130e-02 2.687841720581054688e+02
9.049083643577364444e-02 2.624219512939453125e+02
9.157455902704446371e-02 2.561613578796386719e+02
9.265828161831529686e-02 2.506140632629394531e+02
9.374200420958611613e-02 2.452141456604003906e+02
9.482572680085694927e-02 2.402888793945312500e+02
9.590944939212776854e-02 2.336739425659179688e+02
9.699317198339860169e-02 2.280151748657226562e+02
9.807689457466943483e-02 2.231638374328613281e+02
9.916061716594025410e-02 2.176127624511718750e+02
1.002443397572110872e-01 2.124998092651367188e+02
1.013280623484819065e-01 2.076694793701171875e+02
1.024117849397527397e-01 2.031302146911621094e+02
1.034955075310235728e-01 1.979385719299316406e+02
1.045792301222943782e-01 1.942151603698730469e+02
1.056629527135652113e-01 1.910030479431152344e+02
1.067466753048360445e-01 1.864314880371093750e+02
1.078303978961068776e-01 1.819152030944824219e+02
1.089141204873776969e-01 1.773065338134765625e+02
1.099978430786485301e-01 1.733358078002929688e+02
1.110815656699193632e-01 1.709080886840820312e+02
1.121652882611901964e-01 1.674133796691894531e+02
1.132490108524610017e-01 1.633409614562988281e+02
1.143327334437318349e-01 1.605657997131347656e+02
1.154164560350026680e-01 1.579017524719238281e+02
1.165001786262734873e-01 1.539288330078125000e+02
1.175839012175443204e-01 1.500253028869628906e+02
1.186676238088151536e-01 1.476487579345703125e+02
1.197513464000859867e-01 1.451030540466308594e+02
1.208350689913567921e-01 1.423249626159667969e+02
1.219187915826276253e-01 1.396945648193359375e+02
1.230025141738984584e-01 1.372203330993652344e+02
1.240862367651692777e-01 1.358447151184082031e+02
1.251699593564401247e-01 1.340120925903320312e+02
1.262536819477109440e-01 1.321924438476562500e+02
1.273374045389817633e-01 1.298300933837890625e+02
1.284211271302525825e-01 1.265068206787109375e+02
1.295048497215234018e-01 1.250773620605468750e+02
1.305885723127942488e-01 1.244118194580078125e+02
1.316722949040650681e-01 1.224006233215332031e+02
1.327560174953359151e-01 1.208202972412109375e+02
1.338397400866067344e-01 1.195430564880371094e+02
1.349234626778775537e-01 1.180987014770507812e+02
1.360071852691483729e-01 1.162456817626953125e+02
1.370909078604191922e-01 1.149408111572265625e+02
1.381746304516900392e-01 1.139590530395507812e+02
1.392583530429608585e-01 1.135409698486328125e+02
1.403420756342317055e-01 1.117919769287109375e+02
1.414257982255025248e-01 1.104691200256347656e+02
1.425095208167733440e-01 1.103015327453613281e+02
1.435932434080441633e-01 1.088821220397949219e+02
1.446769659993149826e-01 1.077702827453613281e+02
1.457606885905858296e-01 1.076853599548339844e+02
1.468444111818566489e-01 1.066990127563476562e+02
1.479281337731274959e-01 1.055048904418945312e+02
1.490118563643983152e-01 1.050212516784667969e+02
1.500955789556691622e-01 1.048396034240722656e+02
1.511793015469399537e-01 1.043150825500488281e+02
1.522630241382108007e-01 1.028549575805664062e+02
1.533467467294816200e-01 1.027315673828125000e+02
1.544304693207524393e-01 1.031537094116210938e+02
1.555141919120232863e-01 1.027158088684082031e+02
1.565979145032941056e-01 1.019921302795410156e+02
1.576816370945649526e-01 1.012276611328125000e+02
1.587653596858357441e-01 1.005880470275878906e+02
1.598490822771065911e-01 1.009563713073730469e+02
1.609328048683774104e-01 1.016259346008300781e+02
1.620165274596482297e-01 1.009248580932617188e+02
1.631002500509190767e-01 1.003445320129394531e+02
1.641839726421898960e-01 9.996856307983398438e+01
1.652676952334607430e-01 1.002602539062500000e+02
1.663514178247315345e-01 9.995072555541992188e+01
1.674351404160023815e-01 9.982095336914062500e+01
1.685188630072732008e-01 9.963386535644531250e+01
1.696025855985440201e-01 9.907224655151367188e+01
1.706863081898148671e-01 9.915542602539062500e+01
1.717700307810856863e-01 9.976992797851562500e+01
1.728537533723565334e-01 9.953648757934570312e+01
1.739374759636273526e-01 9.929285430908203125e+01
1.750211985548981719e-01 9.941575241088867188e+01
1.761049211461689912e-01 9.907102203369140625e+01
1.771886437374398104e-01 9.849372482299804688e+01
1.782723663287106575e-01 9.937698745727539062e+01
1.793560889199814767e-01 9.928044891357421875e+01
1.804398115112523238e-01 9.886814117431640625e+01
1.815235341025231430e-01 9.823122024536132812e+01
1.826072566937939623e-01 9.856021499633789062e+01
1.836909792850647816e-01 9.935318756103515625e+01
1.847747018763356008e-01 9.942285156250000000e+01
1.858584244676064479e-01 9.931258773803710938e+01
1.869421470588772671e-01 9.868619155883789062e+01
1.880258696501481142e-01 9.869626235961914062e+01
1.891095922414189334e-01 9.804408264160156250e+01
1.901933148326897527e-01 9.863184738159179688e+01
1.912770374239605720e-01 9.837054443359375000e+01
1.923607600152313912e-01 9.819266891479492188e+01
1.934444826065022383e-01 9.818241119384765625e+01
1.945282051977730575e-01 9.836844253540039062e+01
1.956119277890439045e-01 9.847021484375000000e+01
1.966956503803147238e-01 9.765978240966796875e+01
1.977793729715855431e-01 9.715829849243164062e+01
1.988630955628563624e-01 9.776992034912109375e+01
1.999468181541271816e-01 9.774163818359375000e+01
2.010305407453980286e-01 9.804770278930664062e+01
2.021142633366688757e-01 9.778180313110351562e+01
2.031979859279396949e-01 9.760499191284179688e+01
2.042817085192105420e-01 9.698400878906250000e+01
2.053654311104813335e-01 9.671070480346679688e+01
2.064491537017522083e-01 9.628560256958007812e+01
2.075328762930229998e-01 9.599244689941406250e+01
2.086165988842938190e-01 9.599911499023437500e+01
2.097003214755646661e-01 9.606797027587890625e+01
2.107840440668354853e-01 9.603531265258789062e+01
2.118677666581063324e-01 9.634586715698242188e+01
2.129514892493771239e-01 9.622101974487304688e+01
2.140352118406479986e-01 9.561796951293945312e+01
2.151189344319187902e-01 9.571772766113281250e+01
2.162026570231896372e-01 9.591166687011718750e+01
2.172863796144604565e-01 9.558364868164062500e+01
2.183701022057312757e-01 9.556631469726562500e+01
2.194538247970021227e-01 9.431729125976562500e+01
2.205375473882729143e-01 9.451131439208984375e+01
2.216212699795437890e-01 9.473017120361328125e+01
2.227049925708145806e-01 9.468989944458007812e+01
2.237887151620854276e-01 9.452075576782226562e+01
2.248724377533562468e-01 9.450015640258789062e+01
2.259561603446270661e-01 9.405432891845703125e+01
2.270398829358979131e-01 9.342387008666992188e+01
2.281236055271687047e-01 9.367340850830078125e+01
2.292073281184395794e-01 9.349144744873046875e+01
2.302910507097103709e-01 9.351784515380859375e+01
2.313747733009812180e-01 9.335360336303710938e+01
2.324584958922520372e-01 9.312860107421875000e+01
2.335422184835228565e-01 9.250874328613281250e+01
2.346259410747937035e-01 9.204976654052734375e+01
2.357096636660644950e-01 9.219317245483398438e+01
2.367933862573353698e-01 9.214666748046875000e+01
2.378771088486061613e-01 9.180620193481445312e+01
2.389608314398770084e-01 9.107779312133789062e+01
2.400445540311478276e-01 9.088373184204101562e+01
2.411282766224186469e-01 9.044764709472656250e+01
2.422119992136894939e-01 9.077042770385742188e+01
2.432957218049602854e-01 9.103818511962890625e+01
2.443794443962311602e-01 9.046855163574218750e+01
2.454631669875019517e-01 9.015117645263671875e+01
2.465468895787727988e-01 9.003845977783203125e+01
2.476306121700436180e-01 8.989167022705078125e+01
2.487143347613144373e-01 8.983325195312500000e+01
2.497980573525852843e-01 8.964480972290039062e+01
2.508817799438560758e-01 8.856992340087890625e+01
2.519655025351269506e-01 8.853493499755859375e+01
2.530492251263977699e-01 8.884269332885742188e+01
2.541329477176685891e-01 8.943940353393554688e+01
2.552166703089394084e-01 8.885773849487304688e+01
2.563003929002102277e-01 8.805032730102539062e+01
2.573841154914810470e-01 8.815304946899414062e+01
2.584678380827518662e-01 8.701888656616210938e+01
2.595515606740227410e-01 8.671674728393554688e+01
2.606352832652935603e-01 8.674860382080078125e+01
2.617190058565643795e-01 8.705171585083007812e+01
2.628027284478351988e-01 8.757809829711914062e+01
2.638864510391060181e-01 8.668663787841796875e+01
2.649701736303768373e-01 8.619741821289062500e+01
2.660538962216476566e-01 8.603605651855468750e+01
2.671376188129185314e-01 8.606286239624023438e+01
2.682213414041893507e-01 8.558179473876953125e+01
2.693050639954601699e-01 8.560383987426757812e+01
2.703887865867309892e-01 8.564736175537109375e+01
2.714725091780018085e-01 8.595221710205078125e+01
2.725562317692726277e-01 8.582038116455078125e+01
2.736399543605434470e-01 8.514705657958984375e+01
2.747236769518143218e-01 8.501318740844726562e+01
2.758073995430851411e-01 8.500703430175781250e+01
2.768911221343559603e-01 8.478808212280273438e+01
2.779748447256267796e-01 8.453842544555664062e+01
2.790585673168975989e-01 8.374341583251953125e+01
2.801422899081684181e-01 8.339683151245117188e+01
2.812260124994392374e-01 8.317466354370117188e+01
2.823097350907101122e-01 8.306093978881835938e+01
2.833934576819809315e-01 8.292486190795898438e+01
2.844771802732517507e-01 8.291130065917968750e+01
2.855609028645225700e-01 8.325992584228515625e+01
2.866446254557933893e-01 8.296031951904296875e+01
2.877283480470642085e-01 8.280694961547851562e+01
2.888120706383350278e-01 8.280164718627929688e+01
2.898957932296059026e-01 8.284572982788085938e+01
2.909795158208767218e-01 8.232594680786132812e+01
2.920632384121475411e-01 8.108442306518554688e+01
2.931469610034183604e-01 8.082352447509765625e+01
2.942306835946891796e-01 8.117023468017578125e+01
2.953144061859599989e-01 8.128000259399414062e+01
2.963981287772308182e-01 8.154559326171875000e+01
2.974818513685016930e-01 8.140641784667968750e+01
2.985655739597725122e-01 8.136606597900390625e+01
2.996492965510433315e-01 8.104964447021484375e+01
3.007330191423141508e-01 8.073646926879882812e+01
3.018167417335849700e-01 8.057538223266601562e+01
3.029004643248558448e-01 8.031113052368164062e+01
3.039841869161266086e-01 8.006704330444335938e+01
3.050679095073974834e-01 8.040108871459960938e+01
3.061516320986683026e-01 7.967341232299804688e+01
3.072353546899391219e-01 7.968135070800781250e+01
3.083190772812099412e-01 7.969899368286132812e+01
3.094027998724807604e-01 7.869215011596679688e+01
3.104865224637516352e-01 7.856475448608398438e+01
3.115702450550223990e-01 7.886903762817382812e+01
3.126539676462932738e-01 7.874135971069335938e+01
3.137376902375640930e-01 7.859307479858398438e+01
3.148214128288349123e-01 7.852511215209960938e+01
3.159051354201057316e-01 7.845040130615234375e+01
3.169888580113765508e-01 7.841072082519531250e+01
3.180725806026474256e-01 7.827050018310546875e+01
3.191563031939181894e-01 7.754270935058593750e+01
3.202400257851890641e-01 7.718461227416992188e+01
3.213237483764598834e-01 7.726163101196289062e+01
3.224074709677307027e-01 7.764226913452148438e+01
3.234911935590015220e-01 7.722034072875976562e+01
3.245749161502723412e-01 7.695894241333007812e+01
3.256586387415432160e-01 7.664544677734375000e+01
3.267423613328139798e-01 7.643517684936523438e+01
3.278260839240848545e-01 7.622297668457031250e+01
3.289098065153556738e-01 7.654500198364257812e+01
3.299935291066264931e-01 7.693623352050781250e+01
3.310772516978973123e-01 7.673207855224609375e+01
3.321609742891681316e-01 7.633708953857421875e+01
3.332446968804390064e-01 7.607326507568359375e+01
3.343284194717097701e-01 7.602517700195312500e+01
3.354121420629806449e-01 7.607005310058593750e+01
3.364958646542514642e-01 7.553552627563476562e+01
3.375795872455222835e-01 7.497580718994140625e+01
3.386633098367931027e-01 7.497989654541015625e+01
3.397470324280639220e-01 7.509048461914062500e+01
3.408307550193347968e-01 7.495109558105468750e+01
3.419144776106055605e-01 7.452125167846679688e+01
3.429982002018764353e-01 7.418685913085937500e+01
3.440819227931472546e-01 7.397249603271484375e+01
3.451656453844180739e-01 7.423820495605468750e+01
3.462493679756888931e-01 7.411989212036132812e+01
3.473330905669597679e-01 7.427414703369140625e+01
3.484168131582305872e-01 7.429684829711914062e+01
3.495005357495013509e-01 7.366998672485351562e+01
3.505842583407722257e-01 7.369862747192382812e+01
3.516679809320430450e-01 7.368503189086914062e+01
3.527517035233138643e-01 7.344814682006835938e+01
3.538354261145846835e-01 7.285727310180664062e+01
3.549191487058555583e-01 7.280561065673828125e+01
3.560028712971263776e-01 7.252450180053710938e+01
3.570865938883971413e-01 7.269540405273437500e+01
3.581703164796680161e-01 7.251668548583984375e+01
3.592540390709388354e-01 7.216948699951171875e+01
3.603377616622096546e-01 7.186441040039062500e+01
3.614214842534804739e-01 7.196398162841796875e+01
3.625052068447513487e-01 7.177762985229492188e+01
3.635889294360221680e-01 7.148135375976562500e+01
3.646726520272929317e-01 7.126085281372070312e+01
3.657563746185638065e-01 7.107172775268554688e+01
3.668400972098346258e-01 7.072178649902343750e+01
3.679238198011054450e-01 7.063869857788085938e+01
3.690075423923762643e-01 7.081346130371093750e+01
3.700912649836471391e-01 7.081944274902343750e+01
3.711749875749179584e-01 7.042273330688476562e+01
3.722587101661887221e-01 7.029613113403320312e+01
3.733424327574595969e-01 7.019189071655273438e+01
3.744261553487304162e-01 7.002375793457031250e+01
3.755098779400012354e-01 6.970556640625000000e+01
3.765936005312720547e-01 6.962763214111328125e+01
3.776773231225429295e-01 6.965774536132812500e+01
3.787610457138137487e-01 6.954008865356445312e+01
3.798447683050845125e-01 6.920586776733398438e+01
3.809284908963553873e-01 6.937951660156250000e+01
3.820122134876262066e-01 6.926184463500976562e+01
3.830959360788970258e-01 6.896433639526367188e+01
3.841796586701678451e-01 6.870162200927734375e+01
3.852633812614387199e-01 6.838566207885742188e+01
3.863471038527095391e-01 6.833076858520507812e+01
3.874308264439803029e-01 6.856017303466796875e+01
3.885145490352511777e-01 6.830384063720703125e+01
3.895982716265219969e-01 6.803686523437500000e+01
3.906819942177928162e-01 6.750916290283203125e+01
3.917657168090636355e-01 6.686749267578125000e+01
3.928494394003345103e-01 6.726478958129882812e+01
3.939331619916053295e-01 6.743109130859375000e+01
3.950168845828760933e-01 6.707783126831054688e+01
3.961006071741469681e-01 6.692327117919921875e+01
3.971843297654177873e-01 6.671422195434570312e+01
3.982680523566886066e-01 6.642553329467773438e+01
3.993517749479594259e-01 6.658868789672851562e+01
4.004354975392302451e-01 6.666004562377929688e+01
4.015192201305010089e-01 6.645606613159179688e+01
4.026029427217718837e-01 6.608989334106445312e+01
4.036866653130427030e-01 6.604018020629882812e+01
4.047703879043135777e-01 6.577844619750976562e+01
4.058541104955843415e-01 6.603639221191406250e+01
4.069378330868551608e-01 6.591164398193359375e+01
4.080215556781260355e-01 6.547026824951171875e+01
4.091052782693967993e-01 6.534667968750000000e+01
4.101890008606676741e-01 6.536926269531250000e+01
4.112727234519384933e-01 6.531888961791992188e+01
4.123564460432093681e-01 6.505659866333007812e+01
4.134401686344801319e-01 6.455595016479492188e+01
4.145238912257509512e-01 6.443586349487304688e+01
4.156076138170218259e-01 6.454034042358398438e+01
4.166913364082925897e-01 6.464265823364257812e+01
4.177750589995634645e-01 6.464072799682617188e+01
4.188587815908342837e-01 6.427381896972656250e+01
4.199425041821051585e-01 6.404290771484375000e+01
4.210262267733759223e-01 6.393214035034179688e+01
4.221099493646467415e-01 6.407230758666992188e+01
4.231936719559176163e-01 6.395691680908203125e+01
4.242773945471884911e-01 6.352157592773437500e+01
4.253611171384592549e-01 6.331330871582031250e+01
4.264448397297300741e-01 6.328731918334960938e+01
4.275285623210009489e-01 6.333178329467773438e+01
4.286122849122717127e-01 6.345632171630859375e+01
4.296960075035425319e-01 6.340965270996093750e+01
4.307797300948134067e-01 6.328532028198242188e+01
4.318634526860842815e-01 6.330701065063476562e+01
4.329471752773550453e-01 6.316260147094726562e+01
4.340308978686258645e-01 6.261381149291992188e+01
4.351146204598967393e-01 6.266732025146484375e+01
4.361983430511675031e-01 6.259262847900390625e+01
4.372820656424383223e-01 6.227083587646484375e+01
4.383657882337091971e-01 6.172045898437500000e+01
4.394495108249800719e-01 6.203992843627929688e+01
4.405332334162508356e-01 6.170434188842773438e+01
4.416169560075216549e-01 6.144419479370117188e+01
4.427006785987925297e-01 6.136786270141601562e+01
4.437844011900632935e-01 6.182292938232421875e+01
4.448681237813341127e-01 6.190770339965820312e+01
4.459518463726049875e-01 6.152978134155273438e+01
4.470355689638758623e-01 6.141052246093750000e+01
4.481192915551466260e-01 6.077445602416992188e+01
4.492030141464174453e-01 6.052713394165039062e+01
4.502867367376883201e-01 6.069598388671875000e+01
4.513704593289590838e-01 6.077957534790039062e+01
