# q (1/angstrom), Intensity (arb)
2.004886800316986462e-02 4.827577703880945137e+02
2.113259059444069429e-02 5.831294538952081439e+02
2.221631318571152050e-02 6.338812606402237861e+02
2.330003577698234671e-02 6.484964023362117587e+02
2.438375836825317292e-02 6.638466924646968437e+02
2.546748095952399912e-02 6.766957802451925090e+02
2.655120355079482186e-02 6.904767485507073843e+02
2.763492614206565501e-02 6.912966730020867772e+02
2.871864873333647775e-02 6.832661844704155101e+02
2.980237132460730742e-02 6.751891832970038649e+02
3.088609391587813363e-02 6.649821077821667359e+02
3.196981650714896678e-02 6.558574647189821007e+02
3.305353909841978605e-02 6.469578421388453080e+02
3.413726168969061919e-02 6.347014063067598499e+02
3.522098428096144540e-02 6.232431067497217327e+02
3.630470687223227161e-02 6.094328289723562193e+02
3.738842946350309782e-02 6.005650926198959496e+02
3.847215205477392402e-02 5.954463132736557327e+02
3.955587464604475717e-02 5.910688000818746559e+02
4.063959723731558338e-02 5.806395805767078855e+02
4.172331982858640959e-02 5.733965168907736825e+02
4.280704241985723579e-02 5.624226769683758675e+02
4.389076501112806894e-02 5.488946804057613917e+02
4.497448760239888821e-02 5.401664556231744427e+02
4.605821019366971442e-02 5.357494431919670888e+02
4.714193278494054756e-02 5.239481483747247239e+02
4.822565537621137377e-02 5.116224821917408576e+02
4.930937796748219998e-02 5.041799902848455304e+02
5.039310055875302619e-02 4.974172559600305021e+02
5.147682315002385933e-02 4.892736311144324191e+02
5.256054574129467860e-02 4.833937700802797508e+02
5.364426833256550481e-02 4.724693657845793950e+02
5.472799092383633796e-02 4.601308022972588674e+02
5.581171351510716416e-02 4.528999080125664136e+02
5.689543610637798343e-02 4.440080629669238306e+02
5.797915869764881658e-02 4.348674812961601219e+02
5.906288128891964972e-02 4.270494603756226866e+02
6.014660388019047593e-02 4.174526348832515623e+02
6.123032647146129520e-02 4.095652823254347368e+02
6.231404906273212835e-02 4.040680859713845621e+02
6.339777165400295456e-02 3.946973610208996206e+02
6.448149424527377382e-02 3.868742930100393096e+02
6.556521683654460697e-02 3.778289476575805566e+02
6.664893942781544012e-02 3.713891862962880168e+02
6.773266201908627326e-02 3.646330707743802577e+02
6.881638461035709253e-02 3.585176513884345582e+02
6.990010720162791180e-02 3.490406009106422971e+02
7.098382979289874495e-02 3.443525300945091203e+02
7.206755238416956422e-02 3.383729435342634702e+02
7.315127497544039736e-02 3.346247667564899757e+02
7.423499756671123051e-02 3.295045857433973424e+02
7.531872015798206366e-02 3.201100650580003730e+02
7.640244274925288293e-02 3.160225540501578507e+02
7.748616534052371607e-02 3.090326407781342937e+02
7.856988793179453534e-02 3.019323691056213192e+02
7.965361052306535461e-02 2.944785704509855009e+02
8.073733311433618776e-02 2.889227010624592822e+02
8.182105570560702090e-02 2.827721622513323609e+02
8.290477829687785405e-02 2.769425059428265854e+02
8.398850088814867332e-02 2.692665837575287924e+02
8.507222347941950646e-02 2.607385016543411211e+02
8.615594607069032573e-02 2.516624241485577613e+02
8.723966866196115888e-02 2.453758770664018698e+02
8.832339125323197815e-02 2.379157964449919405e+02
8.940711384450281130e-02 2.288514196668079990e+02
9.049083643577364444e-02 2.205428712402273277e+02
9.157455902704446371e-02 2.151996816738700602e+02
9.265828161831529686e-02 2.053585677411344932e+02
9.374200420958611613e-02 1.972426405174188346e+02
9.482572680085694927e-02 1.885550536190784783e+02
9.590944939212776854e-02 1.802334873818403764e+02
9.699317198339860169e-02 1.738383794684745283e+02
9.807689457466943483e-02 1.675446910536596761e+02
9.916061716594025410e-02 1.598224241252050319e+02
1.002443397572110872e-01 1.536875942908454817e+02
1.013280623484819065e-01 1.486694832488656743e+02
1.024117849397527397e-01 1.403108961790829312e+02
1.034955075310235728e-01 1.334008337247670113e+02
1.045792301222943782e-01 1.282731209699823296e+02
1.056629527135652113e-01 1.216483289356365276e+02
1.067466753048360445e-01 1.149677473074807494e+02
1.078303978961068776e-01 1.097639558997731797e+02
1.089141204873776969e-01 1.044021948416188934e+02
1.099978430786485301e-01 9.865971501957298528e+01
1.110815656699193632e-01 9.422334013563806820e+01
1.121652882611901964e-01 9.064552528188491465e+01
1.132490108524610017e-01 8.610539406815058783e+01
1.143327334437318349e-01 7.974312593929531090e+01
1.154164560350026680e-01 7.595048976741520619e+01
1.165001786262734873e-01 7.340365040095520044e+01
1.175839012175443204e-01 6.894693280449371287e+01
1.186676238088151536e-01 6.478818519229236017e+01
1.197513464000859867e-01 6.201815578583753563e+01
1.208350689913567921e-01 5.853228849367783937e+01
1.219187915826276253e-01 5.519712868188440780e+01
1.230025141738984584e-01 5.218460058579705674e+01
1.240862367651692777e-01 4.981985266251356848e+01
1.251699593564401247e-01 4.692810467552016007e+01
1.262536819477109440e-01 4.326190844078027453e+01
1.273374045389817633e-01 3.992991369044258931e+01
1.284211271302525825e-01 3.982565100473544817e+01
1.295048497215234018e-01 3.714439394888447055e+01
1.305885723127942488e-01 3.394252470791144560e+01
1.316722949040650681e-01 3.183393064214072865e+01
1.327560174953359151e-01 2.995616262532792007e+01
1.338397400866067344e-01 2.796939807455783011e+01
1.349234626778775537e-01 2.567674820349603237e+01
1.360071852691483729e-01 2.332216786105971096e+01
1.370909078604191922e-01 2.282388515895155479e+01
1.381746304516900392e-01 2.213902914533966282e+01
1.392583530429608585e-01 2.080326443081082743e+01
1.403420756342317055e-01 1.870472449050589603e+01
1.414257982255025248e-01 1.637049800263267230e+01
1.425095208167733440e-01 1.465998459113083641e+01
1.435932434080441633e-01 1.434349946302955914e+01
1.446769659993149826e-01 1.321298514027907345e+01
1.457606885905858296e-01 1.310552997376072426e+01
1.468444111818566489e-01 1.184096778560851249e+01
1.479281337731274959e-01 1.065419618149906000e+01
1.490118563643983152e-01 1.050467978046364692e+01
1.500955789556691622e-01 9.919518647091706498e+00
1.511793015469399537e-01 8.159333813012096925e+00
1.522630241382108007e-01 8.308970872255173390e+00
1.533467467294816200e-01 8.034921593800390838e+00
1.544304693207524393e-01 7.357971346441985361e+00
1.555141919120232863e-01 7.623049595391790945e+00
1.565979145032941056e-01 6.927937150226171070e+00
1.576816370945649526e-01 5.699969973094766829e+00
1.587653596858357441e-01 5.651302496462761837e+00
1.598490822771065911e-01 5.498072151638893956e+00
1.609328048683774104e-01 4.690711709676776309e+00
1.620165274596482297e-01 4.810429995487453425e+00
1.631002500509190767e-01 5.490013578210010792e+00
1.641839726421898960e-01 5.287604638890655906e+00
1.652676952334607430e-01 4.955364927969668543e+00
1.663514178247315345e-01 4.694702763276580981e+00
1.674351404160023815e-01 3.792005183861760997e+00
1.685188630072732008e-01 3.061734623122760013e+00
1.696025855985440201e-01 3.653257019245046422e+00
1.706863081898148671e-01 4.263598424018823607e+00
1.717700307810856863e-01 5.282401994872031992e+00
1.728537533723565334e-01 4.530020297833999621e+00
1.739374759636273526e-01 3.451165287347549793e+00
1.750211985548981719e-01 3.518895561442207054e+00
1.761049211461689912e-01 4.106078470878117059e+00
1.771886437374398104e-01 4.207604176117740735e+00
1.782723663287106575e-01 4.983886505475680906e+00
1.793560889199814767e-01 5.017785662312149952e+00
1.804398115112523238e-01 4.747039851499295082e+00
1.815235341025231430e-01 4.004547900765629720e+00
1.826072566937939623e-01 3.681916861583545142e+00
1.836909792850647816e-01 4.118592549780373702e+00
1.847747018763356008e-01 4.158132951938796396e+00
1.858584244676064479e-01 4.918392522158029578e+00
1.869421470588772671e-01 4.994376669155286663e+00
1.880258696501481142e-01 6.127723279568840553e+00
1.891095922414189334e-01 6.054434571649608188e+00
1.901933148326897527e-01 4.916372019483702616e+00
1.912770374239605720e-01 4.657181738760755252e+00
1.923607600152313912e-01 6.060734891794879786e+00
1.934444826065022383e-01 5.711026767848011332e+00
1.945282051977730575e-01 4.753362565750450131e+00
1.956119277890439045e-01 4.257693698942034644e+00
1.966956503803147238e-01 4.552942228867152608e+00
1.977793729715855431e-01 4.981523105148767172e+00
1.988630955628563624e-01 5.385994432956437095e+00
1.999468181541271816e-01 5.044920121401673896e+00
2.010305407453980286e-01 5.792574367696175841e+00
2.021142633366688757e-01 6.031416811924316335e+00
2.031979859279396949e-01 5.801636041773235775e+00
2.042817085192105420e-01 4.439298730900645751e+00
2.053654311104813335e-01 5.796516881466033055e+00
2.064491537017522083e-01 6.599124137979998750e+00
2.075328762930229998e-01 5.491287602869050488e+00
2.086165988842938190e-01 5.313687816785090945e+00
2.097003214755646661e-01 5.269424306199510966e+00
2.107840440668354853e-01 5.286462716078062840e+00
2.118677666581063324e-01 5.426557313534033256e+00
2.129514892493771239e-01 6.230307309736190291e+00
2.140352118406479986e-01 5.826128603438263553e+00
2.151189344319187902e-01 5.990052026969891585e+00
2.162026570231896372e-01 5.351779314965369849e+00
2.172863796144604565e-01 5.211941045878973000e+00
2.183701022057312757e-01 5.318560398012181167e+00
2.194538247970021227e-01 5.389819427741969093e+00
2.205375473882729143e-01 6.088556597549256821e+00
2.216212699795437890e-01 5.697613683991278322e+00
2.227049925708145806e-01 4.976623824896762471e+00
2.237887151620854276e-01 4.445541776908839893e+00
2.248724377533562468e-01 4.196579475754845134e+00
2.259561603446270661e-01 4.224659559940874942e+00
2.270398829358979131e-01 4.984744961954447717e+00
2.281236055271687047e-01 5.018698849345014423e+00
2.292073281184395794e-01 5.070800143823760209e+00
2.302910507097103709e-01 4.675159432928495562e+00
2.313747733009812180e-01 4.030853032463738828e+00
2.324584958922520372e-01 4.043784553814020910e+00
2.335422184835228565e-01 3.979723442077130358e+00
2.346259410747937035e-01 2.814219746316126702e+00
2.357096636660644950e-01 3.688611595458809234e+00
2.367933862573353698e-01 4.231523134074876680e+00
2.378771088486061613e-01 4.570687904874404239e+00
2.389608314398770084e-01 4.828190849028231924e+00
2.400445540311478276e-01 4.453179186292686609e+00
2.411282766224186469e-01 3.743238595956398740e+00
2.422119992136894939e-01 3.358771272987297607e+00
2.432957218049602854e-01 2.790782333053158482e+00
2.443794443962311602e-01 2.737086974798131678e+00
2.454631669875019517e-01 3.806657470717169645e+00
2.465468895787727988e-01 3.388042042371353091e+00
2.476306121700436180e-01 3.570970438378168410e+00
2.487143347613144373e-01 3.455168613090052077e+00
2.497980573525852843e-01 2.989229086440275296e+00
2.508817799438560758e-01 3.584193297426850222e+00
2.519655025351269506e-01 3.738535350275498104e+00
2.530492251263977699e-01 3.305164586448142927e+00
2.541329477176685891e-01 3.302155552869805888e+00
2.552166703089394084e-01 3.048993366488218726e+00
2.563003929002102277e-01 2.693759802963484162e+00
2.573841154914810470e-01 2.757482843707180109e+00
2.584678380827518662e-01 2.494961583398463745e+00
2.595515606740227410e-01 3.197227919934732654e+00
2.606352832652935603e-01 2.881147684003821041e+00
2.617190058565643795e-01 2.179205949468979497e+00
2.628027284478351988e-01 2.272414175051807206e+00
2.638864510391060181e-01 2.010489424080134313e+00
2.649701736303768373e-01 2.028853129139264411e+00
2.660538962216476566e-01 1.714967469159006441e+00
2.671376188129185314e-01 1.856717863342538521e+00
2.682213414041893507e-01 1.832281647292433036e+00
2.693050639954601699e-01 1.928864554670724374e+00
2.703887865867309892e-01 1.482712100367336916e+00
2.714725091780018085e-01 1.448476761220945264e+00
2.725562317692726277e-01 2.670846420597882798e+00
2.736399543605434470e-01 2.462822527307110931e+00
2.747236769518143218e-01 2.329409605863588695e+00
2.758073995430851411e-01 1.416922778650274495e+00
2.768911221343559603e-01 1.130625158989772672e+00
2.779748447256267796e-01 9.684043963380872810e-01
2.790585673168975989e-01 1.394276562619381821e+00
2.801422899081684181e-01 1.305332183284690473e+00
2.812260124994392374e-01 1.144354637816377362e+00
2.823097350907101122e-01 6.263805452208544011e-01
2.833934576819809315e-01 1.467502083498288812e+00
2.844771802732517507e-01 1.461784681293266885e+00
2.855609028645225700e-01 2.027493811931918799e+00
2.866446254557933893e-01 1.444365493129765809e+00
2.877283480470642085e-01 1.321910091795558628e+00
2.888120706383350278e-01 1.026158542530396289e+00
2.898957932296059026e-01 1.295446731126418172e+00
2.909795158208767218e-01 1.093482387734070471e+00
2.920632384121475411e-01 8.475685729747794994e-01
2.931469610034183604e-01 1.224317539262045784e+00
2.942306835946891796e-01 1.882840689967878234e+00
2.953144061859599989e-01 1.667701262294059461e+00
2.963981287772308182e-01 1.868583557644456050e+00
2.974818513685016930e-01 1.570075059944684881e+00
2.985655739597725122e-01 8.786368569472813306e-01
2.996492965510433315e-01 5.726817455306729698e-01
3.007330191423141508e-01 1.184835902429540511e+00
3.018167417335849700e-01 1.264224797747147022e+00
3.029004643248558448e-01 1.528731292120028229e+00
3.039841869161266086e-01 1.812366471240608234e+00
3.050679095073974834e-01 1.160744247634994508e+00
3.061516320986683026e-01 9.722184456338993641e-01
3.072353546899391219e-01 8.786212000501336661e-01
3.083190772812099412e-01 1.481476072543046030e+00
3.094027998724807604e-01 1.819843419402246809e+00
3.104865224637516352e-01 1.591951823894021345e+00
3.115702450550223990e-01 1.230079768041036914e+00
3.126539676462932738e-01 1.451706803380091060e+00
3.137376902375640930e-01 1.585246438792353274e+00
3.148214128288349123e-01 1.775731139386437007e+00
3.159051354201057316e-01 1.157422443992004446e+00
3.169888580113765508e-01 1.198766408121713312e+00
3.180725806026474256e-01 1.479613564788195390e+00
3.191563031939181894e-01 1.401791421973825891e+00
3.202400257851890641e-01 1.388225243440899703e+00
3.213237483764598834e-01 1.202638148443980981e+00
3.224074709677307027e-01 1.508836702895081316e+00
3.234911935590015220e-01 1.649415810643688474e+00
3.245749161502723412e-01 1.154867643758365148e+00
3.256586387415432160e-01 1.142736695677314174e+00
3.267423613328139798e-01 1.477825613977756802e+00
3.278260839240848545e-01 1.925988303679872615e+00
3.289098065153556738e-01 1.451597463079735917e+00
3.299935291066264931e-01 7.924432574122306505e-01
3.310772516978973123e-01 8.517901875261486566e-01
3.321609742891681316e-01 9.162372483124556766e-01
3.332446968804390064e-01 1.145630541425049387e+00
3.343284194717097701e-01 1.278009050283571924e+00
3.354121420629806449e-01 1.978970586379915630e+00
3.364958646542514642e-01 2.054505909123406582e+00
3.375795872455222835e-01 1.293393225420118142e+00
3.386633098367931027e-01 1.090397964139185660e+00
3.397470324280639220e-01 1.933940662674075384e+00
3.408307550193347968e-01 1.321019523488160985e+00
3.419144776106055605e-01 1.317958988603351145e+00
3.429982002018764353e-01 1.700340279817538658e+00
3.440819227931472546e-01 1.849535063940010104e+00
3.451656453844180739e-01 1.933530298696865657e+00
3.462493679756888931e-01 1.527351963810573920e+00
3.473330905669597679e-01 1.895412956243987423e+00
3.484168131582305872e-01 1.678258596849005357e+00
3.495005357495013509e-01 8.436741945196928327e-01
3.505842583407722257e-01 1.396589449204327593e+00
3.516679809320430450e-01 1.945798369552562690e+00
3.527517035233138643e-01 1.168056411273909134e+00
3.538354261145846835e-01 8.322678809763317531e-01
3.549191487058555583e-01 1.025124810010822785e+00
3.560028712971263776e-01 1.549231032496805938e+00
3.570865938883971413e-01 1.787174795439256059e+00
3.581703164796680161e-01 1.453399535823962196e+00
3.592540390709388354e-01 1.396048928132074707e+00
3.603377616622096546e-01 1.136026948578177098e+00
3.614214842534804739e-01 8.836478812103507607e-01
3.625052068447513487e-01 7.839423984514155563e-01
3.635889294360221680e-01 1.211882657600838797e+00
3.646726520272929317e-01 1.439960358174843691e+00
3.657563746185638065e-01 2.090393821268392571e+00
3.668400972098346258e-01 1.678840151570582861e+00
3.679238198011054450e-01 1.730623871784374046e+00
3.690075423923762643e-01 2.099337232856640867e+00
3.700912649836471391e-01 2.267155225716479094e+00
3.711749875749179584e-01 1.622845057424584070e+00
3.722587101661887221e-01 1.556219168594580538e+00
3.733424327574595969e-01 1.638653857502376354e+00
3.744261553487304162e-01 1.668093843482225225e+00
3.755098779400012354e-01 1.930972633551377271e+00
3.765936005312720547e-01 1.210803107684441215e+00
3.776773231225429295e-01 4.466422241853678088e-01
3.787610457138137487e-01 9.057242658460893381e-01
3.798447683050845125e-01 1.261732636177669065e+00
3.809284908963553873e-01 1.279403799963404254e+00
3.820122134876262066e-01 8.526878263383395051e-01
3.830959360788970258e-01 1.094325783439572319e+00
3.841796586701678451e-01 1.569331289430465404e+00
3.852633812614387199e-01 1.502767326354657484e+00
3.863471038527095391e-01 1.097296438416265119e+00
3.874308264439803029e-01 7.443012257907213325e-01
3.885145490352511777e-01 1.002781016953548487e+00
3.895982716265219969e-01 1.497218538121458664e+00
3.906819942177928162e-01 1.326340880967165958e+00
3.917657168090636355e-01 7.723061763974499172e-01
3.928494394003345103e-01 1.034286811035002529e+00
3.939331619916053295e-01 1.002345376495512141e+00
3.950168845828760933e-01 1.180080674798574591e+00
3.961006071741469681e-01 6.530225839076706507e-01
3.971843297654177873e-01 4.098152228330604885e-01
3.982680523566886066e-01 9.558271549403514200e-01
3.993517749479594259e-01 1.376417411972141736e+00
4.004354975392302451e-01 1.299195163595314284e+00
4.015192201305010089e-01 1.649518839258107050e+00
4.026029427217718837e-01 1.277920969565485620e+00
4.036866653130427030e-01 1.349250956210866548e+00
4.047703879043135777e-01 1.455508145544314402e+00
4.058541104955843415e-01 1.570076578417058499e+00
4.069378330868551608e-01 1.680875855464805113e+00
4.080215556781260355e-01 1.298496127322934512e+00
4.091052782693967993e-01 1.047801411882034017e+00
4.101890008606676741e-01 1.011881938969480643e+00
4.112727234519384933e-01 1.067434134285832670e+00
4.123564460432093681e-01 6.496875525900804860e-01
4.134401686344801319e-01 5.031344866969078566e-01
4.145238912257509512e-01 1.056659365713571219e+00
4.156076138170218259e-01 1.065329741051144197e+00
4.166913364082925897e-01 1.176935154881078915e+00
4.177750589995634645e-01 1.559101779634801233e+00
4.188587815908342837e-01 1.227977005837487923e+00
4.199425041821051585e-01 9.873065169870187674e-01
4.210262267733759223e-01 6.500756770611673119e-01
4.221099493646467415e-01 2.145836864526273757e-01
4.231936719559176163e-01 2.514082940189723558e-01
4.242773945471884911e-01 3.364611984959964275e-01
4.253611171384592549e-01 3.357667739919065752e-01
4.264448397297300741e-01 0.000000000000000000e+00
4.275285623210009489e-01 2.055076202202172908e-01
4.286122849122717127e-01 5.783829746116850856e-01
4.296960075035425319e-01 8.026043761173724533e-01
4.307797300948134067e-01 8.494130123096397256e-01
4.318634526860842815e-01 1.015376181221270713e+00
4.329471752773550453e-01 1.342970640649014058e+00
4.340308978686258645e-01 1.351897080802032747e+00
4.351146204598967393e-01 1.090262757907765945e+00
4.361983430511675031e-01 8.715975854997140004e-01
4.372820656424383223e-01 8.757535029480010280e-01
4.383657882337091971e-01 6.450808450267402350e-01
4.394495108249800719e-01 5.748831548312125506e-01
4.405332334162508356e-01 5.364104021501958641e-01
4.416169560075216549e-01 9.025452860654183951e-01
4.427006785987925297e-01 1.122083238445256370e+00
4.437844011900632935e-01 9.252000538558604603e-01
4.448681237813341127e-01 6.166052267433457246e-01
4.459518463726049875e-01 8.502493847529279947e-01
4.470355689638758623e-01 1.158150409185054741e+00
4.481192915551466260e-01 7.372842820326184210e-01
4.492030141464174453e-01 1.119333392594498378e+00
4.502867367376883201e-01 1.332553302059650946e+00
4.513704593289590838e-01 7.847753438399394099e-01
