# q (1/Angstrom), Intensity (arb)
2.078726924066784734e-02 1.135494545997061550e+03
2.212838338006469993e-02 1.697254996270920856e+03
2.346949751946154905e-02 2.344084751403025621e+03
2.481061165885840164e-02 3.379652988120442387e+03
2.615172579825525423e-02 3.898254809715103875e+03
2.749283993765210335e-02 4.109726963954686653e+03
2.883395407704895941e-02 4.276840425383148613e+03
3.017506821644580506e-02 4.362201982234983916e+03
3.151618235584265765e-02 4.364489719879441509e+03
3.285729649523951718e-02 4.343963065881785951e+03
3.419841063463636283e-02 4.310142743038096341e+03
3.553952477403321542e-02 4.254844426463641867e+03
3.688063891343006800e-02 4.204114157783374139e+03
3.822175305282692059e-02 4.137763059256501037e+03
3.956286719222376624e-02 4.080912866393134209e+03
4.090398133162062577e-02 4.020220217588180731e+03
4.224509547101747142e-02 3.948954254667326040e+03
4.358620961041432401e-02 3.873575351363200753e+03
4.492732374981117660e-02 3.801065965597023478e+03
4.626843788920802919e-02 3.747132521380844082e+03
4.760955202860488178e-02 3.684710230079267603e+03
4.895066616800172743e-02 3.606938361999030349e+03
5.029178030739858696e-02 3.527270482264537804e+03
5.163289444679544649e-02 3.451284535608937404e+03
5.297400858619229214e-02 3.368959007301877591e+03
5.431512272558913779e-02 3.291041796074514423e+03
5.565623686498599731e-02 3.203870798909091263e+03
5.699735100438284990e-02 3.100801912853447448e+03
5.833846514377969555e-02 3.016631389295315785e+03
5.967957928317654814e-02 2.934328702777076160e+03
6.102069342257340767e-02 2.844674238563356539e+03
6.236180756197025332e-02 2.755023111352214983e+03
6.370292170136709897e-02 2.669126646624391014e+03
6.504403584076395850e-02 2.584666745842317596e+03
6.638514998016080415e-02 2.499330621326036180e+03
6.772626411955766368e-02 2.409268988190207438e+03
6.906737825895450933e-02 2.313009335881081370e+03
7.040849239835136886e-02 2.221035072375326763e+03
7.174960653774821451e-02 2.135493992493580208e+03
7.309072067714506016e-02 2.045783803674755063e+03
7.443183481654190581e-02 1.957368236055686111e+03
7.577294895593877921e-02 1.874519286389429226e+03
7.711406309533562486e-02 1.791337869698611030e+03
7.845517723473247051e-02 1.708892297826862887e+03
7.979629137412933004e-02 1.626138682484140418e+03
8.113740551352617569e-02 1.548078673221319605e+03
8.247851965292302134e-02 1.475576348479950184e+03
8.381963379231988087e-02 1.402427370085989196e+03
8.516074793171674040e-02 1.330797287049877241e+03
8.650186207111358605e-02 1.265124806091234632e+03
8.784297621051043170e-02 1.199130099237277363e+03
8.918409034990729123e-02 1.135407448687571787e+03
9.052520448930413688e-02 1.072513133418941152e+03
9.186631862870098253e-02 1.013700553987781518e+03
9.320743276809784206e-02 9.565929138452459028e+02
9.454854690749470159e-02 9.013104409550885521e+02
9.588966104689154724e-02 8.484346798540683494e+02
9.723077518628839289e-02 7.970290826664587485e+02
9.857188932568525241e-02 7.477516557034263087e+02
9.991300346508209806e-02 7.013563573231650707e+02
1.012541176044789437e-01 6.569189542217930011e+02
1.025952317438758032e-01 6.143300872535908184e+02
1.039363458832726350e-01 5.718946410207295230e+02
1.052774600226694945e-01 5.324038410196232007e+02
1.066185741620663541e-01 4.973603520992404583e+02
1.079596883014631858e-01 4.624106678679366951e+02
1.093008024408600454e-01 4.292055998534830223e+02
1.106419165802569049e-01 3.989847159802492342e+02
1.119830307196537506e-01 3.716891931680495986e+02
1.133241448590506101e-01 3.442407687118067656e+02
1.146652589984474419e-01 3.179556571720340230e+02
1.160063731378443014e-01 2.938395562606497720e+02
1.173474872772411609e-01 2.712039777129577942e+02
1.186886014166380066e-01 2.504866808312324054e+02
1.200297155560348661e-01 2.288552699381446018e+02
1.213708296954317256e-01 2.099245970592749586e+02
1.227119438348285574e-01 1.936403609929278673e+02
1.240530579742254169e-01 1.781748620593788814e+02
1.253941721136222764e-01 1.657248368115934909e+02
1.267352862530191082e-01 1.527311831117357599e+02
1.280764003924159677e-01 1.401617930840566260e+02
1.294175145318128273e-01 1.282775742660828087e+02
1.307586286712096590e-01 1.182435362478828864e+02
1.320997428106065186e-01 1.090369750605477321e+02
1.334408569500033781e-01 9.878231295726588712e+01
1.347819710894002376e-01 9.051317999766233413e+01
1.361230852287970972e-01 8.455895517894474267e+01
1.374641993681939289e-01 7.839188108248724518e+01
1.388053135075907885e-01 7.254482608452912018e+01
1.401464276469876480e-01 6.799797197678675786e+01
1.414875417863844798e-01 6.305191926780625522e+01
1.428286559257813393e-01 5.901134609571080603e+01
1.441697700651781988e-01 5.545715815959761130e+01
1.455108842045750306e-01 5.279893394507045912e+01
1.468519983439718901e-01 4.990245258786401905e+01
1.481931124833687219e-01 4.751595153483705758e+01
1.495342266227655814e-01 4.615888577641823076e+01
1.508753407621624687e-01 4.462923653686878822e+01
1.522164549015593005e-01 4.299917810410828167e+01
1.535575690409561600e-01 4.157665878028281270e+01
1.548986831803530195e-01 4.078718930697000644e+01
1.562397973197498513e-01 3.967302488598160437e+01
1.575809114591467108e-01 3.889720503322973855e+01
1.589220255985435704e-01 3.836212936983673671e+01
1.602631397379404021e-01 3.873064265653577820e+01
1.616042538773372617e-01 3.920965853908671761e+01
1.629453680167341212e-01 3.813495253062835388e+01
1.642864821561309530e-01 3.853000625360252229e+01
1.656275962955278125e-01 3.818486926237919477e+01
1.669687104349246720e-01 3.741880873759062354e+01
1.683098245743215315e-01 3.780534828680644921e+01
1.696509387137183911e-01 3.882753457774289529e+01
1.709920528531152228e-01 3.869404971078316180e+01
1.723331669925120824e-01 3.825965558673075861e+01
1.736742811319089419e-01 3.810755552858948647e+01
1.750153952713057737e-01 3.776956734349635525e+01
1.763565094107026332e-01 3.780210081306345415e+01
1.776976235500994927e-01 3.795873116024785787e+01
1.790387376894963245e-01 3.783553224752373723e+01
1.803798518288931840e-01 3.838483455757565821e+01
1.817209659682900158e-01 3.746174371517300017e+01
1.830620801076868753e-01 3.700620276767464389e+01
1.844031942470837349e-01 3.698108838041736135e+01
1.857443083864805944e-01 3.689595129009466490e+01
1.870854225258774539e-01 3.658627690792942388e+01
1.884265366652743134e-01 3.567613162519877079e+01
1.897676508046711452e-01 3.511580300428155965e+01
1.911087649440680047e-01 3.490714149244562492e+01
1.924498790834648643e-01 3.416127081894312312e+01
1.937909932228616960e-01 3.346300885661502633e+01
1.951321073622585556e-01 3.387057092414219994e+01
1.964732215016554151e-01 3.339391004311431033e+01
1.978143356410522469e-01 3.189888184294772344e+01
1.991554497804491064e-01 3.081014893658780807e+01
2.004965639198459382e-01 3.009306293592469217e+01
2.018376780592427977e-01 2.952352721835745086e+01
2.031787921986396572e-01 2.910081802900988635e+01
2.045199063380365168e-01 2.751684212377411143e+01
2.058610204774333763e-01 2.726719277560307830e+01
2.072021346168302081e-01 2.653942210911625921e+01
2.085432487562270676e-01 2.540665885244207800e+01
2.098843628956239271e-01 2.445723476610328362e+01
2.112254770350207866e-01 2.405295235452067004e+01
2.125665911744176462e-01 2.357856277742771312e+01
2.139077053138144502e-01 2.319879236220197072e+01
2.152488194532113097e-01 2.314485416501076287e+01
2.165899335926081692e-01 2.161423666339349126e+01
2.179310477320050288e-01 2.088433544920101070e+01
2.192721618714018883e-01 1.981084491083190358e+01
2.206132760107987478e-01 1.927441970430356122e+01
2.219543901501955796e-01 1.917868865189185357e+01
2.232955042895924391e-01 1.820782822445924154e+01
2.246366184289892987e-01 1.705540707370843734e+01
2.259777325683861582e-01 1.687467166439218147e+01
2.273188467077830177e-01 1.600667138131759515e+01
2.286599608471798217e-01 1.564477739767865216e+01
2.300010749865766813e-01 1.514032027595452945e+01
2.313421891259735408e-01 1.440000234746225516e+01
2.326833032653704003e-01 1.403552039928656114e+01
2.340244174047672598e-01 1.407557680176633852e+01
2.353655315441641194e-01 1.285348186856777630e+01
2.367066456835609234e-01 1.259135465190419723e+01
2.380477598229577829e-01 1.227088511103013957e+01
2.393888739623546424e-01 1.225888498213383571e+01
2.407299881017515020e-01 1.165832830366021966e+01
2.420711022411483615e-01 1.050601812028730819e+01
2.434122163805451933e-01 9.736168254152708812e+00
2.447533305199420528e-01 9.561326852586013558e+00
2.460944446593389123e-01 9.894259512120754607e+00
2.474355587987357719e-01 1.020996763471152491e+01
2.487766729381326314e-01 1.004586244138696571e+01
2.501177870775294632e-01 9.181063020703497557e+00
2.514589012169263227e-01 8.708857454494648209e+00
2.528000153563231822e-01 8.856044457913426982e+00
2.541411294957200417e-01 8.532746296440549827e+00
2.554822436351169013e-01 8.699137512004099904e+00
2.568233577745137608e-01 8.226662688419160929e+00
2.581644719139106203e-01 8.171853708068105959e+00
2.595055860533074243e-01 7.435623986993817880e+00
2.608467001927042839e-01 7.314724176369097108e+00
2.621878143321011434e-01 7.708852518660833653e+00
2.635289284714980029e-01 7.558987452143483665e+00
2.648700426108948625e-01 7.113010509839618578e+00
2.662111567502916665e-01 7.473202600279527985e+00
2.675522708896885260e-01 7.405376246217535652e+00
2.688933850290853855e-01 7.039323288387905109e+00
2.702344991684822451e-01 6.804936598610403564e+00
2.715756133078791046e-01 6.638468650052743669e+00
2.729167274472759641e-01 6.819460966553990033e+00
2.742578415866727681e-01 6.934871993435521631e+00
2.755989557260696277e-01 6.445989253748450665e+00
2.769400698654664872e-01 6.282340915249484681e+00
2.782811840048633467e-01 6.932071722346634601e+00
2.796222981442602062e-01 7.060694750865884828e+00
2.809634122836570103e-01 7.039308399084596601e+00
2.823045264230538698e-01 6.816635542835243200e+00
2.836456405624507293e-01 6.057378446592963428e+00
2.849867547018475888e-01 5.605390239648926354e+00
2.863278688412444484e-01 5.968671002338631126e+00
2.876689829806413079e-01 6.504317716777791247e+00
2.890100971200381674e-01 5.893336648415392176e+00
2.903512112594350270e-01 5.521832804911774417e+00
2.916923253988318865e-01 5.624722154233403160e+00
2.930334395382287460e-01 5.612091780867046964e+00
2.943745536776256055e-01 5.889667919928349704e+00
2.957156678170224096e-01 5.835756818825423409e+00
2.970567819564192691e-01 5.658389850712353564e+00
2.983978960958161286e-01 5.550906687228710723e+00
2.997390102352129881e-01 5.153026391895551228e+00
3.010801243746098477e-01 5.173230660222614574e+00
3.024212385140067072e-01 4.853575939422199781e+00
3.037623526534035112e-01 4.838265037523697742e+00
3.051034667928003707e-01 5.074024142186047470e+00
3.064445809321972303e-01 4.777152324824484708e+00
3.077856950715940898e-01 4.257321876288528983e+00
3.091268092109909493e-01 4.577732567978458178e+00
3.104679233503877533e-01 4.104007765236055150e+00
3.118090374897846129e-01 3.975269571804389557e+00
3.131501516291814724e-01 4.386211201508444901e+00
3.144912657685783319e-01 4.695532528225605517e+00
3.158323799079751915e-01 4.205817186353733916e+00
3.171734940473720510e-01 3.855710516119223996e+00
3.185146081867689105e-01 4.003369785832724403e+00
3.198557223261657700e-01 3.682929524290592838e+00
3.211968364655626296e-01 3.597415800506567507e+00
3.225379506049594891e-01 4.021710025562363455e+00
3.238790647443563486e-01 3.774644364005006025e+00
3.252201788837532082e-01 3.784431425953698636e+00
3.265612930231500122e-01 3.488922369021572933e+00
3.279024071625468717e-01 3.034507537023763746e+00
3.292435213019437312e-01 3.030019316054442413e+00
3.305846354413405908e-01 3.046233925709714185e+00
3.319257495807374503e-01 3.095839008629916123e+00
3.332668637201342543e-01 2.951105936052194068e+00
3.346079778595311138e-01 2.591355180480327647e+00
3.359490919989279734e-01 2.423401024658488723e+00
3.372902061383248329e-01 2.695709811204906714e+00
3.386313202777216924e-01 2.791012722211036134e+00
3.399724344171185519e-01 3.098082843057163416e+00
3.413135485565153560e-01 2.948621361667747465e+00
3.426546626959122155e-01 2.677280823156692691e+00
3.439957768353090750e-01 2.595706078984001408e+00
3.453368909747059345e-01 2.612351539333488404e+00
3.466780051141027941e-01 2.541569180674279949e+00
3.480191192534995981e-01 2.276029135408514037e+00
3.493602333928964576e-01 2.284883288815649394e+00
3.507013475322933171e-01 2.278306749759913430e+00
3.520424616716901767e-01 2.088180348618294602e+00
3.533835758110870362e-01 1.876377977083095061e+00
3.547246899504838957e-01 1.946895312622871188e+00
3.560658040898807553e-01 1.538222632256754707e+00
3.574069182292776148e-01 1.570165007139429747e+00
3.587480323686744743e-01 1.731127787967174925e+00
3.600891465080713338e-01 2.069430510709629800e+00
3.614302606474681934e-01 1.974705136970662522e+00
3.627713747868649974e-01 1.589179016258462696e+00
3.641124889262618569e-01 1.551920711605049519e+00
3.654536030656587164e-01 1.736795382641069807e+00
3.667947172050555760e-01 1.933841075537600318e+00
3.681358313444524355e-01 1.738968999483581968e+00
3.694769454838492950e-01 1.463082088343860221e+00
3.708180596232460990e-01 1.569383596163845596e+00
3.721591737626429586e-01 1.737998006626163772e+00
3.735002879020398181e-01 1.511825530338938961e+00
3.748414020414366776e-01 1.337285068972946078e+00
3.761825161808335372e-01 1.645808101686441205e+00
3.775236303202303967e-01 1.439386674103886321e+00
3.788647444596272007e-01 9.232818527557213883e-01
3.802058585990240602e-01 1.221963229849883703e+00
3.815469727384209198e-01 1.485499762519054912e+00
3.828880868778177793e-01 1.096380310039926087e+00
3.842292010172146388e-01 1.006863253528962332e+00
3.855703151566114428e-01 1.204275518173027137e+00
3.869114292960083024e-01 1.555158436066129468e+00
3.882525434354051619e-01 1.215649646129875805e+00
3.895936575748020214e-01 1.362210560044978536e+00
3.909347717141988809e-01 1.241506897438824808e+00
3.922758858535957405e-01 1.148639694264659283e+00
3.936169999929926000e-01 9.781594549804566441e-01
3.949581141323894595e-01 1.050248370772649764e+00
3.962992282717863191e-01 1.067626037850942566e+00
3.976403424111831786e-01 6.859754373423072593e-01
3.989814565505800381e-01 8.546720163625920463e-01
4.003225706899768976e-01 1.219502565235515590e+00
4.016636848293737572e-01 1.181615104651797310e+00
4.030047989687706167e-01 1.402159454337372324e+00
4.043459131081674207e-01 1.186571402938326969e+00
4.056870272475643358e-01 1.088556851591228281e+00
4.070281413869611398e-01 9.845553338316648251e-01
4.083692555263580548e-01 7.792713323249600421e-01
4.097103696657548588e-01 6.962164618905148927e-01
4.110514838051517739e-01 5.805940278570105306e-01
4.123925979445485779e-01 8.380856569391355038e-01
4.137337120839453819e-01 7.612209472488373763e-01
4.150748262233422969e-01 1.093767728391668470e+00
4.164159403627391010e-01 9.057427656630210322e-01
4.177570545021360160e-01 9.927591723349706854e-01
4.190981686415328200e-01 7.277857400524680997e-01
4.204392827809296240e-01 9.504991967873550607e-01
4.217803969203265391e-01 9.760739850929240902e-01
4.231215110597233431e-01 7.015121419055887486e-01
4.244626251991202581e-01 5.937245501769297107e-01
4.258037393385170621e-01 6.294986771141992676e-01
4.271448534779138662e-01 9.776241445866062918e-01
4.284859676173107812e-01 8.971567044672141833e-01
4.298270817567075852e-01 7.054995685285021523e-01
4.311681958961045003e-01 5.617640070191569635e-01
4.325093100355013043e-01 6.559317511109199472e-01
4.338504241748981638e-01 7.490671114643561168e-01
4.351915383142950233e-01 9.554763480171075685e-01
4.365326524536918829e-01 1.237113204882582806e+00
4.378737665930887424e-01 9.288085292113805735e-01
4.392148807324856019e-01 9.650135463567082184e-01
4.405559948718824614e-01 7.705585130254419823e-01
4.418971090112793210e-01 7.059531296981731430e-01
4.432382231506761250e-01 5.229914929499557275e-01
4.445793372900730400e-01 1.783958917270638267e-01
4.459204514294698440e-01 3.755652666921633909e-01
4.472615655688667591e-01 7.584867431750055289e-01
4.486026797082635631e-01 4.257319637966574533e-01
4.499437938476603671e-01 4.844986119694922877e-01
4.512849079870572822e-01 9.079934395068605113e-01
4.526260221264540862e-01 3.267435596817307442e-01
4.539671362658510012e-01 3.544541824199356483e-01
4.553082504052478052e-01 5.477884814608273700e-01
4.566493645446446092e-01 6.428007393961863158e-01
4.579904786840415243e-01 6.426385461909873698e-01
4.593315928234383283e-01 6.536222011970025392e-01
4.606727069628352433e-01 5.553447605064079085e-01
4.620138211022320474e-01 1.724089075838790563e-01
4.633549352416289624e-01 2.576150413881990175e-01
4.646960493810257664e-01 5.130103369246228340e-01
4.660371635204225704e-01 5.959721658885257511e-01
4.673782776598194855e-01 3.189029592756753573e-01
4.687193917992162895e-01 5.893077290721464578e-01
4.700605059386132045e-01 6.107607505929806280e-01
4.714016200780100085e-01 6.464952643204426863e-01
4.727427342174068681e-01 2.958243332882872778e-01
4.740838483568037276e-01 5.683224967770854619e-01
4.754249624962005871e-01 4.154752574741138460e-01
4.767660766355974467e-01 4.112906055336367217e-01
4.781071907749943062e-01 4.144097347717945468e-01
4.794483049143911102e-01 2.623864172390923954e-01
4.807894190537880252e-01 3.097663199401097245e-01
4.821305331931848293e-01 1.113638598227453258e-01
4.834716473325817443e-01 3.984346565606671220e-01
4.848127614719785483e-01 5.954677118001114877e-01
4.861538756113753523e-01 6.558143727694485392e-01
4.874949897507722674e-01 6.924135157907969074e-01
4.888361038901690714e-01 3.823151402780595731e-01
4.901772180295659864e-01 2.206899469211194287e-01
4.915183321689627904e-01 2.005741545316439556e-01
4.928594463083597055e-01 1.625489809118647599e-01
4.942005604477565095e-01 2.955660484663340526e-01
4.955416745871533135e-01 4.910127214895751990e-01
4.968827887265502286e-01 3.361712918080712598e-01
4.982239028659470326e-01 3.434623444902200617e-01
4.995650170053439476e-01 2.252682441896638466e-01
5.009061311447408071e-01 0.000000000000000000e+00
5.022472452841375556e-01 4.411298142893329555e-01
5.035883594235345262e-01 3.639495052969294875e-01
5.049294735629312747e-01 3.473580641034388350e-01
5.062705877023282452e-01 1.954173419037132930e-01
5.076117018417249938e-01 1.874109897960067883e-01
5.089528159811218533e-01 2.030009077179357746e-01
5.102939301205187128e-01 2.289362615270107426e-01
5.116350442599155723e-01 3.253667149204417797e-01
5.129761583993124319e-01 3.385114829094959532e-01
5.143172725387092914e-01 3.492536153311718294e-01
5.156583866781061509e-01 3.984650012533990093e-01
5.169995008175030105e-01 3.609681769246364524e-01
5.183406149568997590e-01 5.934310453462288137e-01
5.196817290962967295e-01 6.256388436177147128e-01
5.210228432356934780e-01 9.401709989370345966e-01
5.223639573750904486e-01 6.646098116149303792e-01
5.237050715144871971e-01 7.205263307910811932e-01
5.250461856538840566e-01 6.420222846361056668e-01
5.263872997932809161e-01 5.020917049211632843e-01
5.277284139326777757e-01 3.491092197831235922e-01
5.290695280720746352e-01 4.082111461613919801e-01
5.304106422114714947e-01 7.325978236274153232e-01
5.317517563508683542e-01 7.611860862554706841e-01
5.330928704902652138e-01 6.986681768191900233e-01
5.344339846296620733e-01 6.181655167357646974e-01
5.357750987690589328e-01 7.380225844165693161e-01
5.371162129084557924e-01 5.480374389346351904e-01
5.384573270478525409e-01 1.885259485530355050e-01
5.397984411872495114e-01 1.774616265252788594e-01
5.411395553266462599e-01 2.581436862041996960e-01
5.424806694660432305e-01 4.697623940364152872e-01
5.438217836054399790e-01 2.555000750644680352e-01
5.451628977448369495e-01 3.070041890070527302e-01
5.465040118842336980e-01 6.175548071189425059e-01
5.478451260236305576e-01 4.210694840236115510e-01
5.491862401630274171e-01 2.132420382886976995e-01
5.505273543024242766e-01 3.065313527752948630e-01
5.518684684418211361e-01 4.445130001572792366e-01
5.532095825812179957e-01 4.592751286276381961e-01
5.545506967206147442e-01 4.308056521829541907e-01
