# q (1/Angstrom), Intensity (arb)
2.029070354705860696e-02 9.339744010046339326e+02
2.133125244372399004e-02 8.236684641552769790e+02
2.237180134038937659e-02 7.467301536972393023e+02
2.341235023705475968e-02 6.767042077855542175e+02
2.445289913372014276e-02 6.176764695041499635e+02
2.549344803038552584e-02 5.763796124786849759e+02
2.653399692705091240e-02 5.388620552367394794e+02
2.757454582371629548e-02 5.125168137275468325e+02
2.861509472038167856e-02 4.883033122142435332e+02
2.965564361704706164e-02 4.693302190924210322e+02
3.069619251371244473e-02 4.528196792242343918e+02
3.173674141037782781e-02 4.402728084979939922e+02
3.277729030704321089e-02 4.296476746513813509e+02
3.381783920370859398e-02 4.226111678879606757e+02
3.485838810037397706e-02 4.186077116643609770e+02
3.589893699703936014e-02 4.224109142312332779e+02
3.693948589370474322e-02 4.256710930506277464e+02
3.798003479037012631e-02 4.274162735770046311e+02
3.902058368703550939e-02 4.343986750258508778e+02
4.006113258370089247e-02 4.467262291303123902e+02
4.110168148036627556e-02 4.636958302209839076e+02
4.214223037703165864e-02 4.857706035440595542e+02
4.318277927369704866e-02 5.183341108943163817e+02
4.422332817036243174e-02 5.583460524735194213e+02
4.526387706702781483e-02 6.207321761963758036e+02
4.630442596369319791e-02 7.241823012469366176e+02
4.734497486035858099e-02 9.330719823572788982e+02
4.838552375702396408e-02 1.359181996796969997e+03
4.942607265368934716e-02 2.072795352233736594e+03
5.046662155035473024e-02 3.227959699835389983e+03
5.150717044702011332e-02 4.846073781167887319e+03
5.254771934368549641e-02 5.404533738524880391e+03
5.358826824035087949e-02 4.373921486956105582e+03
5.462881713701626257e-02 3.539134620409101444e+03
5.566936603368164566e-02 3.384347545448491928e+03
5.670991493034702874e-02 3.490966594509696733e+03
5.775046382701241182e-02 3.651268562853074400e+03
5.879101272367779490e-02 3.776678380358011509e+03
5.983156162034317799e-02 3.778899324646943569e+03
6.087211051700856107e-02 3.600030378317194391e+03
6.191265941367394415e-02 3.307880466631208037e+03
6.295320831033933417e-02 3.000313890856964008e+03
6.399375720700471726e-02 2.697748765174635537e+03
6.503430610367010034e-02 2.384775914776195805e+03
6.607485500033548342e-02 2.074919900724007675e+03
6.711540389700086651e-02 1.788300772009227330e+03
6.815595279366624959e-02 1.518516356838876391e+03
6.919650169033163267e-02 1.270574563962828279e+03
7.023705058699701576e-02 1.052639861333860381e+03
7.127759948366239884e-02 8.704807320490109532e+02
7.231814838032778192e-02 7.181797584904628593e+02
7.335869727699316500e-02 5.933080993382764063e+02
7.439924617365854809e-02 4.939984615252157596e+02
7.543979507032393117e-02 4.122190454251804681e+02
7.648034396698931425e-02 3.466585191963941952e+02
7.752089286365469734e-02 2.934922517239741637e+02
7.856144176032008042e-02 2.538747345724129048e+02
7.960199065698546350e-02 2.256935346242009075e+02
8.064253955365084658e-02 2.048772255794455077e+02
8.168308845031622967e-02 1.985859688944306072e+02
8.272363734698161275e-02 2.172414812101907557e+02
8.376418624364699583e-02 2.815567125030081570e+02
8.480473514031239279e-02 3.594900726705506031e+02
8.584528403697777588e-02 3.521909900632660992e+02
8.688583293364315896e-02 2.668500131731197484e+02
8.792638183030854204e-02 2.020437701797203829e+02
8.896693072697392513e-02 1.764465670175577827e+02
9.000747962363930821e-02 1.683007403516148486e+02
9.104802852030469129e-02 1.682665429683759157e+02
9.208857741697007437e-02 1.711472424890588968e+02
9.312912631363545746e-02 1.755400090753570623e+02
9.416967521030084054e-02 1.830091661952455695e+02
9.521022410696622362e-02 1.940378244342533662e+02
9.625077300363160671e-02 2.129953424350975411e+02
9.729132190029698979e-02 2.529226913800087289e+02
9.833187079696237287e-02 3.246802459812478219e+02
9.937241969362775595e-02 4.032505810184454162e+02
1.004129685902931390e-01 4.056261227923888555e+02
1.014535174869585221e-01 3.312246696972366635e+02
1.024940663836239052e-01 2.709002138442118621e+02
1.035346152802892883e-01 2.484775321082742892e+02
1.045751641769546714e-01 2.337571268921946626e+02
1.056157130736200545e-01 2.134814550053632445e+02
1.066562619702854375e-01 1.987804231093013527e+02
1.076968108669508206e-01 1.935015334228035044e+02
1.087373597636162037e-01 1.928281864386313202e+02
1.097779086602815868e-01 1.942467805779091918e+02
1.108184575569469699e-01 1.944803799781852263e+02
1.118590064536123529e-01 1.949857894027632312e+02
1.128995553502777360e-01 1.931967636748754273e+02
1.139401042469431191e-01 1.890187282137458453e+02
1.149806531436085022e-01 1.830196359540464357e+02
1.160212020402738853e-01 1.763653886983585721e+02
1.170617509369392684e-01 1.681791496077788963e+02
1.181022998336046514e-01 1.594320360242898857e+02
1.191428487302700345e-01 1.496496331554885160e+02
1.201833976269354176e-01 1.385404730759838401e+02
1.212239465236008007e-01 1.282529421054477439e+02
1.222644954202661838e-01 1.188992211701132931e+02
1.233050443169315669e-01 1.092596033943137286e+02
1.243455932135969499e-01 9.971333345279974480e+01
1.253861421102623330e-01 9.142920139024387538e+01
1.264266910069277161e-01 8.456320568457910269e+01
1.274672399035930992e-01 7.908774292532392280e+01
1.285077888002584823e-01 7.495639510814004325e+01
1.295483376969238654e-01 7.605684336418511293e+01
1.305888865935892484e-01 8.050182508984707397e+01
1.316294354902546315e-01 8.400220641730543036e+01
1.326699843869200146e-01 8.413239643515666444e+01
1.337105332835853977e-01 8.387299770193504855e+01
1.347510821802507808e-01 8.105161277572615575e+01
1.357916310769161639e-01 6.835852494392544543e+01
1.368321799735815469e-01 5.326205657783482650e+01
1.378727288702469300e-01 4.348184571912484131e+01
1.389132777669123131e-01 3.881608586334448319e+01
1.399538266635776962e-01 3.585340854438916836e+01
1.409943755602430793e-01 3.421305545955340222e+01
1.420349244569084624e-01 3.441520232055702166e+01
1.430754733535738454e-01 3.453534180544139787e+01
1.441160222502392285e-01 3.544338395343453385e+01
1.451565711469046116e-01 3.872403618707171802e+01
1.461971200435699947e-01 4.291681156089908455e+01
1.472376689402353778e-01 4.499866220269383632e+01
1.482782178369007609e-01 4.405948201459308677e+01
1.493187667335661439e-01 4.075417220677123709e+01
1.503593156302315270e-01 3.703072315800854142e+01
1.513998645268969101e-01 3.488216173305845302e+01
1.524404134235622932e-01 3.403443202743302720e+01
1.534809623202276763e-01 3.405034382764262091e+01
1.545215112168930593e-01 3.457136007993905480e+01
1.555620601135584424e-01 3.492229444644029002e+01
1.566026090102238255e-01 3.478116366795268988e+01
1.576431579068892086e-01 3.268344318051327946e+01
1.586837068035545917e-01 2.989599795380853209e+01
1.597242557002199748e-01 2.800992346090409768e+01
1.607648045968853578e-01 2.613370950088714295e+01
1.618053534935507409e-01 2.564875601988763876e+01
1.628459023902161240e-01 2.530717456297984924e+01
1.638864512868815071e-01 2.479142770693442088e+01
1.649270001835468902e-01 2.414498693413710839e+01
1.659675490802122733e-01 2.384681395228941270e+01
1.670080979768776563e-01 2.395403038808848351e+01
1.680486468735430672e-01 2.328567632080053329e+01
1.690891957702084503e-01 2.272962792437188284e+01
1.701297446668738333e-01 2.228349866029179438e+01
1.711702935635392164e-01 2.187080189778222916e+01
1.722108424602045995e-01 2.136314911053931809e+01
1.732513913568699826e-01 2.102348796037335887e+01
1.742919402535353657e-01 2.095132698255039472e+01
1.753324891502007488e-01 2.154246422732073896e+01
1.763730380468661318e-01 2.283546939746486260e+01
1.774135869435315149e-01 2.447668834767614499e+01
1.784541358401968980e-01 2.530637437847013516e+01
1.794946847368622811e-01 2.507744367016335829e+01
1.805352336335276642e-01 2.381718596891457551e+01
1.815757825301930473e-01 2.151902828454310423e+01
1.826163314268584303e-01 1.942159082934101377e+01
1.836568803235238134e-01 1.770415144173148647e+01
1.846974292201891965e-01 1.668093775135314516e+01
1.857379781168545796e-01 1.578854658874073991e+01
1.867785270135199627e-01 1.555146003841760205e+01
1.878190759101853458e-01 1.553084125173543839e+01
1.888596248068507288e-01 1.526141520464434009e+01
1.899001737035161119e-01 1.489199976874508025e+01
1.909407226001814950e-01 1.476142207355813696e+01
1.919812714968468781e-01 1.410395267758816829e+01
1.930218203935122612e-01 1.363583334951459847e+01
1.940623692901776443e-01 1.299892868290317338e+01
1.951029181868430273e-01 1.262744281846419625e+01
1.961434670835084104e-01 1.291641424392660653e+01
1.971840159801737935e-01 1.307240566997405296e+01
1.982245648768391766e-01 1.276241995226182624e+01
1.992651137735045597e-01 1.223234797539545937e+01
2.003056626701699428e-01 1.181611055609612038e+01
2.013462115668353813e-01 1.079006429729118821e+01
2.023867604635007644e-01 9.842662400936387002e+00
2.034273093601661475e-01 8.845287982147951311e+00
2.044678582568315306e-01 8.411540614173031116e+00
2.055084071534969137e-01 8.078845528130237597e+00
2.065489560501622968e-01 8.105584641309462768e+00
2.075895049468276798e-01 7.893195101193583696e+00
2.086300538434930629e-01 8.015578227630051344e+00
2.096706027401584460e-01 7.978590604920629659e+00
2.107111516368238291e-01 7.528697352003000276e+00
2.117517005334892122e-01 7.486700270270283397e+00
2.127922494301545953e-01 7.230783164447878164e+00
2.138327983268199783e-01 7.280643766869843603e+00
2.148733472234853614e-01 7.251999418573390699e+00
2.159138961201507445e-01 6.926614028184403082e+00
2.169544450168161276e-01 6.912894756418953790e+00
2.179949939134815107e-01 7.054585737382598865e+00
2.190355428101468938e-01 7.099517325925333466e+00
2.200760917068122768e-01 6.849786352224185748e+00
2.211166406034776599e-01 6.892998074068021452e+00
2.221571895001430430e-01 7.065479035302981714e+00
2.231977383968084261e-01 7.147668248721494422e+00
2.242382872934738092e-01 7.418542282213188344e+00
2.252788361901391923e-01 7.682708807217704106e+00
2.263193850868045753e-01 7.762820484463823334e+00
2.273599339834699584e-01 7.856060289205881730e+00
2.284004828801353415e-01 7.731196987650623242e+00
2.294410317768007246e-01 7.956134499784017322e+00
2.304815806734661077e-01 8.181107153402589205e+00
2.315221295701314908e-01 7.832773847050599869e+00
2.325626784667968738e-01 7.498072062929303172e+00
2.336032273634622569e-01 6.850551082503805844e+00
2.346437762601276400e-01 6.200585999079887500e+00
2.356843251567930231e-01 5.957205012609001926e+00
2.367248740534584062e-01 5.653849588486156819e+00
2.377654229501237892e-01 5.733947407449779377e+00
2.388059718467891723e-01 5.648687856533438634e+00
2.398465207434545554e-01 5.522246203783083729e+00
2.408870696401199385e-01 5.337229520472337896e+00
2.419276185367853216e-01 5.423319541764925589e+00
2.429681674334507047e-01 5.459765031121783352e+00
2.440087163301160877e-01 5.440347796927746060e+00
2.450492652267814708e-01 5.472218795119061951e+00
2.460898141234468539e-01 5.377341128545403137e+00
2.471303630201122370e-01 5.438502252381159252e+00
2.481709119167776201e-01 5.380251579148936258e+00
2.492114608134430032e-01 5.200050336258748018e+00
2.502520097101083585e-01 4.782641205326651601e+00
2.512925586067737416e-01 4.512981040875160943e+00
2.523331075034391247e-01 4.402153349546498617e+00
2.533736564001045077e-01 4.449756772359776846e+00
2.544142052967698908e-01 4.382987091032763516e+00
2.554547541934352739e-01 4.072979744894105636e+00
2.564953030901006570e-01 4.158328227055914539e+00
2.575358519867660401e-01 4.136712947219916003e+00
2.585764008834314231e-01 3.858852010888355721e+00
2.596169497800968062e-01 3.858438062938773783e+00
2.606574986767621893e-01 3.800701141730407073e+00
2.616980475734275724e-01 3.799030661746943593e+00
2.627385964700929555e-01 3.693269184670242566e+00
2.637791453667583386e-01 3.395578430851390550e+00
2.648196942634237216e-01 3.331831077258190277e+00
2.658602431600891047e-01 3.351442183568668298e+00
2.669007920567544878e-01 3.670377416947253835e+00
2.679413409534198709e-01 3.857421550706703783e+00
2.689818898500852540e-01 3.739537507813878392e+00
2.700224387467506371e-01 3.662018975156495770e+00
2.710629876434160201e-01 3.622746663235549391e+00
2.721035365400814032e-01 3.752341677422180055e+00
2.731440854367467863e-01 4.041761633301472756e+00
2.741846343334121694e-01 4.121797217653732304e+00
2.752251832300775525e-01 4.030703343907461544e+00
2.762657321267429356e-01 3.838816782323242194e+00
2.773062810234083186e-01 3.657828236067182104e+00
2.783468299200737017e-01 3.491960484361587902e+00
2.793873788167390848e-01 3.705871693700849789e+00
2.804279277134044679e-01 3.581649025156611543e+00
2.814684766100698510e-01 3.541026889692147961e+00
2.825090255067352341e-01 3.540041885576346914e+00
2.835495744034006171e-01 3.242209985270935846e+00
2.845901233000660002e-01 3.187758559045072104e+00
2.856306721967313833e-01 3.383471749590938771e+00
2.866712210933967664e-01 3.463150679982575753e+00
2.877117699900621495e-01 3.310105215537891610e+00
2.887523188867275326e-01 3.226935809212719164e+00
2.897928677833929156e-01 3.256461793842046148e+00
2.908334166800582987e-01 3.370490280343130252e+00
2.918739655767236818e-01 3.130644768383096022e+00
2.929145144733890649e-01 3.109186558760995922e+00
2.939550633700544480e-01 2.936690432736014600e+00
2.949956122667198311e-01 2.730641570116233652e+00
2.960361611633852141e-01 2.911596985940612115e+00
2.970767100600505972e-01 2.946306920678587460e+00
2.981172589567159803e-01 3.148774833630678671e+00
2.991578078533813634e-01 3.078745718296708844e+00
3.001983567500468020e-01 2.807835023017432263e+00
3.012389056467121851e-01 2.707157153911548875e+00
3.022794545433775681e-01 2.921176997543589948e+00
3.033200034400429512e-01 2.701879124313066427e+00
3.043605523367083343e-01 2.668439341683207289e+00
3.054011012333737174e-01 2.840764278803437293e+00
3.064416501300391005e-01 2.784387170481661400e+00
3.074821990267044836e-01 2.554475713447207141e+00
3.085227479233698666e-01 2.486040177798681583e+00
3.095632968200352497e-01 2.688703585505624716e+00
3.106038457167006328e-01 2.685205861711438047e+00
3.116443946133660159e-01 2.648129627135020314e+00
3.126849435100313990e-01 2.517656762829751926e+00
3.137254924066967821e-01 2.317364137135331958e+00
3.147660413033621651e-01 2.380424464321290401e+00
3.158065902000275482e-01 2.402783701535359029e+00
3.168471390966929313e-01 2.434185498296663752e+00
3.178876879933583144e-01 2.156226509942506198e+00
3.189282368900236975e-01 2.202762660092126623e+00
3.199687857866890806e-01 2.354542663146020232e+00
3.210093346833544636e-01 2.266569331432791046e+00
3.220498835800198467e-01 2.382163929204512698e+00
3.230904324766852298e-01 2.139698309678720989e+00
3.241309813733506129e-01 2.228238125130193481e+00
3.251715302700159960e-01 2.442790801713474735e+00
3.262120791666813790e-01 2.428252848725822588e+00
3.272526280633467621e-01 2.376740302838250329e+00
3.282931769600121452e-01 2.350475192890741027e+00
3.293337258566775283e-01 2.427170421090991681e+00
3.303742747533429114e-01 2.428628374225407782e+00
3.314148236500082945e-01 2.288153531773577498e+00
3.324553725466736775e-01 2.485074045433329104e+00
3.334959214433390606e-01 2.585674808994767204e+00
3.345364703400044437e-01 2.561203766733353149e+00
3.355770192366698268e-01 2.469951672433161605e+00
3.366175681333352099e-01 2.558395359835369476e+00
3.376581170300005930e-01 2.253217876693145882e+00
3.386986659266659760e-01 2.248102364287781540e+00
3.397392148233313591e-01 2.243090674369273785e+00
3.407797637199967422e-01 2.214949341064023969e+00
3.418203126166621253e-01 2.367573621619833091e+00
3.428608615133275084e-01 2.359036426697432631e+00
3.439014104099928915e-01 2.272411008491356910e+00
3.449419593066582745e-01 2.207166189076591678e+00
3.459825082033236576e-01 2.180604636592732959e+00
3.470230570999890407e-01 1.998924714180841278e+00
3.480636059966544238e-01 2.018881474250104446e+00
3.491041548933198069e-01 1.798570409533830627e+00
3.501447037899851900e-01 1.906515157024124107e+00
3.511852526866505730e-01 1.890529068187326800e+00
3.522258015833159561e-01 1.867315678609429597e+00
3.532663504799813392e-01 1.941560449329777782e+00
3.543068993766467223e-01 1.943468760092301295e+00
3.553474482733121054e-01 2.083218639660799454e+00
3.563879971699774885e-01 2.111463967323842894e+00
3.574285460666428715e-01 1.855314839836129437e+00
3.584690949633082546e-01 1.612832354773157562e+00
3.595096438599736377e-01 1.606132969779899611e+00
3.605501927566390208e-01 1.770138456706781938e+00
3.615907416533044039e-01 1.895629337956140859e+00
3.626312905499697870e-01 1.833205645203229039e+00
3.636718394466351700e-01 1.779504014325944183e+00
3.647123883433005531e-01 1.688540038102882335e+00
3.657529372399659362e-01 1.728097975553112065e+00
3.667934861366313193e-01 1.711814903491717388e+00
3.678340350332967024e-01 1.643278246683522070e+00
3.688745839299620854e-01 1.573663004699440648e+00
3.699151328266274685e-01 1.562619449035071995e+00
3.709556817232928516e-01 1.697996344435985350e+00
3.719962306199582347e-01 1.687970310768115212e+00
3.730367795166236178e-01 1.678765091075124616e+00
3.740773284132890009e-01 1.766374942756151256e+00
3.751178773099543839e-01 1.720048220069017475e+00
3.761584262066197670e-01 1.619710350829777212e+00
3.771989751032851501e-01 1.801053445930879349e+00
3.782395239999505332e-01 1.608389586227215062e+00
3.792800728966159163e-01 1.700983652096965670e+00
3.803206217932812994e-01 1.742845118192590803e+00
3.813611706899466824e-01 1.837611115109488935e+00
3.824017195866120655e-01 1.754981378631914168e+00
3.834422684832774486e-01 1.754028250392281052e+00
3.844828173799428317e-01 1.709757192264234504e+00
3.855233662766082148e-01 1.716445210291624335e+00
3.865639151732735979e-01 1.743596750247483840e+00
3.876044640699389809e-01 1.872336010648396609e+00
3.886450129666043640e-01 1.792443039377435099e+00
3.896855618632697471e-01 1.697678508259322427e+00
3.907261107599351302e-01 1.451832846616163408e+00
3.917666596566005133e-01 1.317624889720381276e+00
3.928072085532658964e-01 1.600285035661038080e+00
3.938477574499312794e-01 1.567492978430578887e+00
3.948883063465966625e-01 1.335368315892022650e+00
3.959288552432620456e-01 1.427320564577605921e+00
3.969694041399274287e-01 1.450682929769921969e+00
3.980099530365928118e-01 1.510301038289789233e+00
3.990505019332581949e-01 1.563643043490564821e+00
4.000910508299235779e-01 1.584046888025593347e+00
4.011315997265889610e-01 1.531862222613312952e+00
4.021721486232543441e-01 1.460694127521332319e+00
4.032126975199197272e-01 1.360928625473068365e+00
4.042532464165851103e-01 1.408400968491832828e+00
4.052937953132504934e-01 1.192458138155746639e+00
4.063343442099158764e-01 1.292319334866586900e+00
4.073748931065812595e-01 1.287270917943622806e+00
4.084154420032466426e-01 1.255647541622245456e+00
4.094559908999120257e-01 1.302033725482424131e+00
4.104965397965774088e-01 1.243346036008333044e+00
4.115370886932427918e-01 1.361092701393545212e+00
4.125776375899081749e-01 1.266617315923685538e+00
4.136181864865735580e-01 1.288059301267161061e+00
4.146587353832389411e-01 1.328935502801698476e+00
4.156992842799043242e-01 1.539687354139651632e+00
4.167398331765697073e-01 1.420153344565566300e+00
4.177803820732350903e-01 1.299822522620253551e+00
4.188209309699004734e-01 1.199036583241948506e+00
4.198614798665658565e-01 1.204293086874589136e+00
4.209020287632312396e-01 1.188671819045843847e+00
4.219425776598966227e-01 1.037436671975886071e+00
4.229831265565620058e-01 1.108484967222096884e+00
4.240236754532273888e-01 1.145946541994852907e+00
4.250642243498927719e-01 1.211195044826457234e+00
4.261047732465581550e-01 1.125289744510670431e+00
4.271453221432235381e-01 1.159659576833757200e+00
4.281858710398889212e-01 1.092491826736619487e+00
4.292264199365543043e-01 1.008780615197288455e+00
4.302669688332196873e-01 1.062773015779324481e+00
4.313075177298850704e-01 1.003815455854574878e+00
4.323480666265504535e-01 1.010194422068604325e+00
4.333886155232158366e-01 1.084792409829486104e+00
4.344291644198812197e-01 1.260348377988467661e+00
