# q (1/Angstrom), Intensity (arb)
2.029070354705860696e-02 9.296533957602700866e+02
2.133125244372399004e-02 8.234111815837693484e+02
2.237180134038937659e-02 7.443811279603625053e+02
2.341235023705475968e-02 6.727166988259148184e+02
2.445289913372014276e-02 6.173701066511305271e+02
2.549344803038552584e-02 5.748394360453344234e+02
2.653399692705091240e-02 5.351573777055308483e+02
2.757454582371629548e-02 5.058352884897323065e+02
2.861509472038167856e-02 4.846625853334560929e+02
2.965564361704706164e-02 4.675454378591021509e+02
3.069619251371244473e-02 4.476735632706283923e+02
3.173674141037782781e-02 4.368193328785592939e+02
3.277729030704321089e-02 4.285959114377610604e+02
3.381783920370859398e-02 4.203686347048840730e+02
3.485838810037397706e-02 4.190723114638454376e+02
3.589893699703936014e-02 4.182057883929776381e+02
3.693948589370474322e-02 4.199972365848760205e+02
3.798003479037012631e-02 4.244129892433178952e+02
3.902058368703550939e-02 4.317019946295507111e+02
4.006113258370089247e-02 4.439342759903504998e+02
4.110168148036627556e-02 4.610822267259813998e+02
4.214223037703165864e-02 4.809296082731128763e+02
4.318277927369704866e-02 5.095062248204783941e+02
4.422332817036243174e-02 5.481591925219054247e+02
4.526387706702781483e-02 6.113686313073719703e+02
4.630442596369319791e-02 7.117281015705801792e+02
4.734497486035858099e-02 9.088249720681003510e+02
4.838552375702396408e-02 1.308918036423463036e+03
4.942607265368934716e-02 1.991072594414077912e+03
5.046662155035473024e-02 3.090709249402239493e+03
5.150717044702011332e-02 4.677674325446453622e+03
5.254771934368549641e-02 5.322722580559306152e+03
5.358826824035087949e-02 4.357991387460591795e+03
5.462881713701626257e-02 3.500173554965469066e+03
5.566936603368164566e-02 3.320769784597626312e+03
5.670991493034702874e-02 3.418306175243347298e+03
5.775046382701241182e-02 3.570367967731027420e+03
5.879101272367779490e-02 3.702054326638998646e+03
5.983156162034317799e-02 3.719648377508456633e+03
6.087211051700856107e-02 3.560064608046088779e+03
6.191265941367394415e-02 3.280072034726952552e+03
6.295320831033933417e-02 2.974665639430584633e+03
6.399375720700471726e-02 2.673351898436203555e+03
6.503430610367010034e-02 2.365730102691361481e+03
6.607485500033548342e-02 2.064336161545043979e+03
6.711540389700086651e-02 1.778499891376597134e+03
6.815595279366624959e-02 1.510705162655210415e+03
6.919650169033163267e-02 1.263705615521653954e+03
7.023705058699701576e-02 1.049098751141376852e+03
7.127759948366239884e-02 8.666235438966723450e+02
7.231814838032778192e-02 7.173069005526358524e+02
7.335869727699316500e-02 5.919145176380242219e+02
7.439924617365854809e-02 4.919421265047243992e+02
7.543979507032393117e-02 4.098563567921080448e+02
7.648034396698931425e-02 3.458728888335718352e+02
7.752089286365469734e-02 2.938768055908867041e+02
7.856144176032008042e-02 2.528208922307188118e+02
7.960199065698546350e-02 2.218813776405976910e+02
8.064253955365084658e-02 2.020569052004262574e+02
8.168308845031622967e-02 1.950417942591767257e+02
8.272363734698161275e-02 2.119254374929654432e+02
8.376418624364699583e-02 2.708862549030453124e+02
8.480473514031239279e-02 3.486835495972226227e+02
8.584528403697777588e-02 3.526731952752571146e+02
8.688583293364315896e-02 2.723642260007987943e+02
8.792638183030854204e-02 2.040107815535929774e+02
8.896693072697392513e-02 1.756585315230409776e+02
9.000747962363930821e-02 1.663232831837564163e+02
9.104802852030469129e-02 1.656711931020196857e+02
9.208857741697007437e-02 1.691724188260800759e+02
9.312912631363545746e-02 1.735099515698956338e+02
9.416967521030084054e-02 1.795638663356962468e+02
9.521022410696622362e-02 1.891307774774021482e+02
9.625077300363160671e-02 2.079008012803611791e+02
9.729132190029698979e-02 2.443838163377047294e+02
9.833187079696237287e-02 3.103774251353622162e+02
9.937241969362775595e-02 3.890746016054139318e+02
1.004129685902931390e-01 4.030842051573919207e+02
1.014535174869585221e-01 3.346176332687351191e+02
1.024940663836239052e-01 2.708541364517568582e+02
1.035346152802892883e-01 2.464198637399040592e+02
1.045751641769546714e-01 2.327478370680131263e+02
1.056157130736200545e-01 2.129434192696839148e+02
1.066562619702854375e-01 1.971493716942829053e+02
1.076968108669508206e-01 1.911533169655659208e+02
1.087373597636162037e-01 1.909859910028822583e+02
1.097779086602815868e-01 1.912205483442401714e+02
1.108184575569469699e-01 1.915803226796872423e+02
1.118590064536123529e-01 1.911800187396885349e+02
1.128995553502777360e-01 1.891157603575773294e+02
1.139401042469431191e-01 1.859718469262092810e+02
1.149806531436085022e-01 1.813955548007814400e+02
1.160212020402738853e-01 1.743912208491679223e+02
1.170617509369392684e-01 1.664715510173667781e+02
1.181022998336046514e-01 1.575300203798850873e+02
1.191428487302700345e-01 1.485459274445481697e+02
1.201833976269354176e-01 1.392265726680794842e+02
1.212239465236008007e-01 1.289479431249644392e+02
1.222644954202661838e-01 1.180600313686703089e+02
1.233050443169315669e-01 1.082024300262209522e+02
1.243455932135969499e-01 9.925439315150231323e+01
1.253861421102623330e-01 9.117285523764314803e+01
1.264266910069277161e-01 8.403251677066482728e+01
1.274672399035930992e-01 7.838460131339965642e+01
1.285077888002584823e-01 7.480701496950698015e+01
1.295483376969238654e-01 7.535129186708556404e+01
1.305888865935892484e-01 7.863764792731974751e+01
1.316294354902546315e-01 8.211221496373910611e+01
1.326699843869200146e-01 8.304912829449010303e+01
1.337105332835853977e-01 8.359337530197005606e+01
1.347510821802507808e-01 8.152536755495391674e+01
1.357916310769161639e-01 7.082132851013069796e+01
1.368321799735815469e-01 5.547237118296137481e+01
1.378727288702469300e-01 4.451845359563741056e+01
1.389132777669123131e-01 3.895037176946687651e+01
1.399538266635776962e-01 3.615336281301468091e+01
1.409943755602430793e-01 3.444166395455171426e+01
1.420349244569084624e-01 3.381180408186889252e+01
1.430754733535738454e-01 3.417110094102376650e+01
1.441160222502392285e-01 3.536684528644491365e+01
1.451565711469046116e-01 3.803520391903349918e+01
1.461971200435699947e-01 4.186153720619992669e+01
1.472376689402353778e-01 4.485979324252687661e+01
1.482782178369007609e-01 4.466909059220773770e+01
1.493187667335661439e-01 4.101667115610754877e+01
1.503593156302315270e-01 3.708319645474951187e+01
1.513998645268969101e-01 3.500597463160070788e+01
1.524404134235622932e-01 3.376304623110748082e+01
1.534809623202276763e-01 3.319271711368750744e+01
1.545215112168930593e-01 3.396488403763247277e+01
1.555620601135584424e-01 3.462944756435669547e+01
1.566026090102238255e-01 3.434734629983429244e+01
1.576431579068892086e-01 3.304719059027104322e+01
1.586837068035545917e-01 3.032834261451911928e+01
1.597242557002199748e-01 2.851093639858320827e+01
1.607648045968853578e-01 2.666562236872424663e+01
1.618053534935507409e-01 2.566591259168457739e+01
1.628459023902161240e-01 2.495592426470273395e+01
1.638864512868815071e-01 2.471209281667631785e+01
1.649270001835468902e-01 2.451783417094855722e+01
1.659675490802122733e-01 2.392936554401124027e+01
1.670080979768776563e-01 2.340732256876192707e+01
1.680486468735430672e-01 2.299337721862053030e+01
1.690891957702084503e-01 2.259549471659953568e+01
1.701297446668738333e-01 2.240934461674640588e+01
1.711702935635392164e-01 2.237899575617898762e+01
1.722108424602045995e-01 2.164799963496922786e+01
1.732513913568699826e-01 2.110505789881809235e+01
1.742919402535353657e-01 2.115926213433690606e+01
1.753324891502007488e-01 2.161242791391095963e+01
1.763730380468661318e-01 2.259218715377052433e+01
1.774135869435315149e-01 2.377742105381348736e+01
1.784541358401968980e-01 2.477875636869720921e+01
1.794946847368622811e-01 2.505422373144435255e+01
1.805352336335276642e-01 2.382796117847030004e+01
1.815757825301930473e-01 2.191446241327501099e+01
1.826163314268584303e-01 1.958907671203752798e+01
1.836568803235238134e-01 1.782589355796646302e+01
1.846974292201891965e-01 1.640507319946401665e+01
1.857379781168545796e-01 1.556880665512416684e+01
1.867785270135199627e-01 1.506121213287393701e+01
1.878190759101853458e-01 1.491032543227344220e+01
1.888596248068507288e-01 1.465148943544068771e+01
1.899001737035161119e-01 1.452004254660279159e+01
1.909407226001814950e-01 1.429876844029822536e+01
1.919812714968468781e-01 1.399721537107473779e+01
1.930218203935122612e-01 1.348633520332761648e+01
1.940623692901776443e-01 1.287231631821277134e+01
1.951029181868430273e-01 1.240841532142758297e+01
1.961434670835084104e-01 1.244759024234314637e+01
1.971840159801737935e-01 1.264361339537416384e+01
1.982245648768391766e-01 1.259502029977852899e+01
1.992651137735045597e-01 1.226045426013994089e+01
2.003056626701699428e-01 1.131711864387206745e+01
2.013462115668353813e-01 1.047108302173812788e+01
2.023867604635007644e-01 9.635310676452917278e+00
2.034273093601661475e-01 8.986991314789477769e+00
2.044678582568315306e-01 8.804457539400736721e+00
2.055084071534969137e-01 8.420475358373963104e+00
2.065489560501622968e-01 8.267840277978471875e+00
2.075895049468276798e-01 7.979457408035926846e+00
2.086300538434930629e-01 7.667267235143231829e+00
2.096706027401584460e-01 7.664958216402567359e+00
2.107111516368238291e-01 7.650424376967201567e+00
2.117517005334892122e-01 7.299311334647260452e+00
2.127922494301545953e-01 7.260365379874947678e+00
2.138327983268199783e-01 7.337584909183309634e+00
2.148733472234853614e-01 7.077414266036566204e+00
2.159138961201507445e-01 6.809618440335057699e+00
2.169544450168161276e-01 6.692679811438772219e+00
2.179949939134815107e-01 6.709281521099587309e+00
2.190355428101468938e-01 6.799987330010655029e+00
2.200760917068122768e-01 6.634850847759985015e+00
2.211166406034776599e-01 6.722406610513662173e+00
2.221571895001430430e-01 6.787432751721045321e+00
2.231977383968084261e-01 7.118000269150158488e+00
2.242382872934738092e-01 7.159742453443264765e+00
2.252788361901391923e-01 7.129439380377654345e+00
2.263193850868045753e-01 7.262763891791099269e+00
2.273599339834699584e-01 7.609836005374294388e+00
2.284004828801353415e-01 7.573775849018471007e+00
2.294410317768007246e-01 7.480634674609188295e+00
2.304815806734661077e-01 7.407375846463615687e+00
2.315221295701314908e-01 7.889870817251015467e+00
2.325626784667968738e-01 7.755036763455937177e+00
2.336032273634622569e-01 7.052454842817923009e+00
2.346437762601276400e-01 6.408681594730300191e+00
2.356843251567930231e-01 6.033176417258136581e+00
2.367248740534584062e-01 5.600361397674813446e+00
2.377654229501237892e-01 5.495229103158980166e+00
2.388059718467891723e-01 5.370369269396224610e+00
2.398465207434545554e-01 5.165745540093219290e+00
2.408870696401199385e-01 5.241473810152044166e+00
2.419276185367853216e-01 5.153507598860752381e+00
2.429681674334507047e-01 5.065088091819710314e+00
2.440087163301160877e-01 5.023529819257856133e+00
2.450492652267814708e-01 4.840298048003106146e+00
2.460898141234468539e-01 5.049470034408884089e+00
2.471303630201122370e-01 5.224994618621327191e+00
2.481709119167776201e-01 5.260767737397294752e+00
2.492114608134430032e-01 5.184680534171821620e+00
2.502520097101083585e-01 5.079014157432311549e+00
2.512925586067737416e-01 4.654410746190894343e+00
2.523331075034391247e-01 4.169723981158384163e+00
2.533736564001045077e-01 4.171244853116988338e+00
2.544142052967698908e-01 4.166296856627422329e+00
2.554547541934352739e-01 3.919828239512867185e+00
2.564953030901006570e-01 3.921274676824463512e+00
2.575358519867660401e-01 3.742518787828434057e+00
2.585764008834314231e-01 3.650762720294597585e+00
2.596169497800968062e-01 3.661923751835576724e+00
2.606574986767621893e-01 3.566334225118961143e+00
2.616980475734275724e-01 3.613984475031973176e+00
2.627385964700929555e-01 3.540568762493734312e+00
2.637791453667583386e-01 3.359676241325228574e+00
2.648196942634237216e-01 3.334320118252904308e+00
2.658602431600891047e-01 3.318181074406837183e+00
2.669007920567544878e-01 3.339406344586212327e+00
2.679413409534198709e-01 3.454208688263197047e+00
2.689818898500852540e-01 3.342422561752329102e+00
2.700224387467506371e-01 3.457026472294352004e+00
2.710629876434160201e-01 3.545937101407481862e+00
2.721035365400814032e-01 3.460093338828414744e+00
2.731440854367467863e-01 3.488231195001326057e+00
2.741846343334121694e-01 3.619528037431340550e+00
2.752251832300775525e-01 3.706229372952162038e+00
2.762657321267429356e-01 3.504556492273003698e+00
2.773062810234083186e-01 3.480763571886949848e+00
2.783468299200737017e-01 3.504693682525061860e+00
2.793873788167390848e-01 3.040344970537770308e+00
2.804279277134044679e-01 3.103519389398972095e+00
2.814684766100698510e-01 3.241182445858651562e+00
2.825090255067352341e-01 3.200762968088479710e+00
2.835495744034006171e-01 3.368021411467019277e+00
2.845901233000660002e-01 3.184944290243095111e+00
2.856306721967313833e-01 3.129149469800008632e+00
2.866712210933967664e-01 3.161034782989585068e+00
2.877117699900621495e-01 3.167969015040657865e+00
2.887523188867275326e-01 3.087556997725165786e+00
2.897928677833929156e-01 3.088718792530819712e+00
2.908334166800582987e-01 3.208927438604984417e+00
2.918739655767236818e-01 3.098402857993885817e+00
2.929145144733890649e-01 2.813187858535432184e+00
2.939550633700544480e-01 2.899961034642526414e+00
2.949956122667198311e-01 3.193935466128493772e+00
2.960361611633852141e-01 2.884239984607813057e+00
2.970767100600505972e-01 3.041996479095441686e+00
2.981172589567159803e-01 2.835296943563452743e+00
2.991578078533813634e-01 2.985327783706900107e+00
3.001983567500468020e-01 3.062399518242592933e+00
3.012389056467121851e-01 2.727014516013557710e+00
3.022794545433775681e-01 2.582313889697520182e+00
3.033200034400429512e-01 2.411314470774673424e+00
3.043605523367083343e-01 2.450163494176326395e+00
3.054011012333737174e-01 2.735870379514167894e+00
3.064416501300391005e-01 2.582724144674774180e+00
3.074821990267044836e-01 2.449616430157266933e+00
3.085227479233698666e-01 2.380965984709316530e+00
3.095632968200352497e-01 2.296870115076931285e+00
3.106038457167006328e-01 2.163906966536075061e+00
3.116443946133660159e-01 2.284796815092587252e+00
3.126849435100313990e-01 2.232068530394673900e+00
3.137254924066967821e-01 2.198547363063003246e+00
3.147660413033621651e-01 2.263832274683153400e+00
3.158065902000275482e-01 2.190602386099669729e+00
3.168471390966929313e-01 2.195120891266846286e+00
3.178876879933583144e-01 2.082851346639973400e+00
3.189282368900236975e-01 1.960079944506180283e+00
3.199687857866890806e-01 2.190364898367114677e+00
3.210093346833544636e-01 2.293080208343674542e+00
3.220498835800198467e-01 2.538485518127128415e+00
3.230904324766852298e-01 2.573022933035822746e+00
3.241309813733506129e-01 2.537705729309713831e+00
3.251715302700159960e-01 2.146473060452418480e+00
3.262120791666813790e-01 2.250999494958239922e+00
3.272526280633467621e-01 2.272661885414063221e+00
3.282931769600121452e-01 2.347190537279324474e+00
3.293337258566775283e-01 2.560890038077580755e+00
3.303742747533429114e-01 2.287499851106712612e+00
3.314148236500082945e-01 2.188264741485088649e+00
3.324553725466736775e-01 2.226825035234352157e+00
3.334959214433390606e-01 2.325745060678638509e+00
3.345364703400044437e-01 2.363069031340803150e+00
3.355770192366698268e-01 2.015703103865966739e+00
3.366175681333352099e-01 2.004658862693059262e+00
3.376581170300005930e-01 2.146736224928154968e+00
3.386986659266659760e-01 1.995745074498024962e+00
3.397392148233313591e-01 2.052419009887604062e+00
3.407797637199967422e-01 1.997619930858629544e+00
3.418203126166621253e-01 1.954436213089195462e+00
3.428608615133275084e-01 2.040805686143919218e+00
3.439014104099928915e-01 2.027636642072668138e+00
3.449419593066582745e-01 2.023520686373128541e+00
3.459825082033236576e-01 1.952530035274786968e+00
3.470230570999890407e-01 1.781575760374654038e+00
3.480636059966544238e-01 1.883387080257516999e+00
3.491041548933198069e-01 2.052635936159088459e+00
3.501447037899851900e-01 2.082547054367228867e+00
3.511852526866505730e-01 2.083383530957242158e+00
3.522258015833159561e-01 1.833866141933786054e+00
3.532663504799813392e-01 1.633337983997503073e+00
3.543068993766467223e-01 1.649766308417966343e+00
3.553474482733121054e-01 1.759270857170648128e+00
3.563879971699774885e-01 1.794570786904756687e+00
3.574285460666428715e-01 1.556360537501213059e+00
3.584690949633082546e-01 1.568244551165513201e+00
3.595096438599736377e-01 1.567544685297168172e+00
3.605501927566390208e-01 1.482763287613686032e+00
3.615907416533044039e-01 1.467978640312040284e+00
3.626312905499697870e-01 1.601245021375742539e+00
3.636718394466351700e-01 1.738879544042408298e+00
3.647123883433005531e-01 1.518363102557902522e+00
3.657529372399659362e-01 1.561889798358173209e+00
3.667934861366313193e-01 1.604350925117010718e+00
3.678340350332967024e-01 1.559061681245669462e+00
3.688745839299620854e-01 1.578943912821902273e+00
3.699151328266274685e-01 1.619386843867953729e+00
3.709556817232928516e-01 1.594978545623064292e+00
3.719962306199582347e-01 1.525890283436819317e+00
3.730367795166236178e-01 1.591717814389383534e+00
3.740773284132890009e-01 1.332442342056406659e+00
3.751178773099543839e-01 1.392363730007165401e+00
3.761584262066197670e-01 1.610594201295473482e+00
3.771989751032851501e-01 1.538221796189855439e+00
3.782395239999505332e-01 1.500397772313576183e+00
3.792800728966159163e-01 1.615726435224011936e+00
3.803206217932812994e-01 1.722697290706076245e+00
3.813611706899466824e-01 1.818668925882445109e+00
3.824017195866120655e-01 1.588697441689728151e+00
3.834422684832774486e-01 1.434100313602378662e+00
3.844828173799428317e-01 1.352209861489669152e+00
3.855233662766082148e-01 1.584897895376720101e+00
3.865639151732735979e-01 1.618351561234149472e+00
3.876044640699389809e-01 1.473471074691364180e+00
3.886450129666043640e-01 1.604337971414128816e+00
3.896855618632697471e-01 1.535278404584104806e+00
3.907261107599351302e-01 1.374338312317760824e+00
3.917666596566005133e-01 1.309238337501135163e+00
3.928072085532658964e-01 1.493411393237511930e+00
3.938477574499312794e-01 1.414789337569526850e+00
3.948883063465966625e-01 1.288096490853320120e+00
3.959288552432620456e-01 1.427979042252026431e+00
3.969694041399274287e-01 1.509356921571235688e+00
3.980099530365928118e-01 1.287077655515005858e+00
3.990505019332581949e-01 1.242459972947123958e+00
4.000910508299235779e-01 1.192757020286656200e+00
4.011315997265889610e-01 1.282575748183013786e+00
4.021721486232543441e-01 1.436529823659395078e+00
4.032126975199197272e-01 1.378762533905756982e+00
4.042532464165851103e-01 1.366756531988301049e+00
4.052937953132504934e-01 1.276761931139287043e+00
4.063343442099158764e-01 1.077447769232612984e+00
4.073748931065812595e-01 1.209483962877165197e+00
4.084154420032466426e-01 1.394693341448167700e+00
4.094559908999120257e-01 1.071598971119048116e+00
4.104965397965774088e-01 1.069742111372313786e+00
4.115370886932427918e-01 1.195397655025708161e+00
4.125776375899081749e-01 1.253243855255021799e+00
4.136181864865735580e-01 1.370487086261135801e+00
4.146587353832389411e-01 1.234519064841045122e+00
4.156992842799043242e-01 1.127061100240840830e+00
4.167398331765697073e-01 9.425155267685916272e-01
4.177803820732350903e-01 9.318121461881716527e-01
4.188209309699004734e-01 1.010489931838478128e+00
4.198614798665658565e-01 1.113590948951948434e+00
4.209020287632312396e-01 1.062068219729898289e+00
4.219425776598966227e-01 1.133640381663340690e+00
4.229831265565620058e-01 1.146469913314970057e+00
4.240236754532273888e-01 1.023633414619872894e+00
4.250642243498927719e-01 1.135200920556602711e+00
4.261047732465581550e-01 1.249436368214411175e+00
4.271453221432235381e-01 1.138523295009900238e+00
4.281858710398889212e-01 1.088492559613293054e+00
4.292264199365543043e-01 1.050357971805830459e+00
4.302669688332196873e-01 1.096799692533501513e+00
4.313075177298850704e-01 1.094708575435490161e+00
4.323480666265504535e-01 8.831203324553982270e-01
4.333886155232158366e-01 9.712551033381977561e-01
4.344291644198812197e-01 9.188501689910282266e-01
