# q (1/Angstrom), Intensity (arb)
2.029070354705860696e-02 9.451620531386699895e+02
2.133125244372399004e-02 8.402733971669277935e+02
2.237180134038937659e-02 7.545219041361162908e+02
2.341235023705475968e-02 6.840860329357838054e+02
2.445289913372014276e-02 6.286652323321013682e+02
2.549344803038552584e-02 5.837716225113767905e+02
2.653399692705091240e-02 5.473336401493050971e+02
2.757454582371629548e-02 5.154426279597690836e+02
2.861509472038167856e-02 4.919402514248982357e+02
2.965564361704706164e-02 4.711871546238728001e+02
3.069619251371244473e-02 4.567808845318318163e+02
3.173674141037782781e-02 4.449819234192630688e+02
3.277729030704321089e-02 4.369038020955329102e+02
3.381783920370859398e-02 4.283707787251531727e+02
3.485838810037397706e-02 4.222979832248821026e+02
3.589893699703936014e-02 4.211725919887396117e+02
3.693948589370474322e-02 4.235066796132106219e+02
3.798003479037012631e-02 4.268273113604661830e+02
3.902058368703550939e-02 4.360374263341884102e+02
4.006113258370089247e-02 4.451604571072446674e+02
4.110168148036627556e-02 4.605881867801750786e+02
4.214223037703165864e-02 4.813526594337214419e+02
4.318277927369704866e-02 5.088691793021428680e+02
4.422332817036243174e-02 5.488051084799177488e+02
4.526387706702781483e-02 6.037615783512525240e+02
4.630442596369319791e-02 6.950306196188221293e+02
4.734497486035858099e-02 8.748929490634398007e+02
4.838552375702396408e-02 1.245287896759325577e+03
4.942607265368934716e-02 1.885792311321063380e+03
5.046662155035473024e-02 2.900840361245267559e+03
5.150717044702011332e-02 4.458413333826142662e+03
5.254771934368549641e-02 5.292497102035523312e+03
5.358826824035087949e-02 4.437918505650370207e+03
5.462881713701626257e-02 3.504778007047957090e+03
5.566936603368164566e-02 3.273535366381254335e+03
5.670991493034702874e-02 3.350469546759770765e+03
5.775046382701241182e-02 3.493685778904799463e+03
5.879101272367779490e-02 3.625188903534080509e+03
5.983156162034317799e-02 3.659615052109320914e+03
6.087211051700856107e-02 3.527059309887671589e+03
6.191265941367394415e-02 3.263617425802313392e+03
6.295320831033933417e-02 2.970002559490745170e+03
6.399375720700471726e-02 2.680244459514854043e+03
6.503430610367010034e-02 2.379887572309530242e+03
6.607485500033548342e-02 2.078370072180135139e+03
6.711540389700086651e-02 1.798902185212332370e+03
6.815595279366624959e-02 1.531378520652360748e+03
6.919650169033163267e-02 1.284006699457573177e+03
7.023705058699701576e-02 1.068375191000303403e+03
7.127759948366239884e-02 8.853113238580559710e+02
7.231814838032778192e-02 7.317735120990645328e+02
7.335869727699316500e-02 6.058461517059274684e+02
7.439924617365854809e-02 5.021966277651431483e+02
7.543979507032393117e-02 4.184511703983383200e+02
7.648034396698931425e-02 3.512272960059565889e+02
7.752089286365469734e-02 2.978932949216902557e+02
7.856144176032008042e-02 2.562248803890465183e+02
7.960199065698546350e-02 2.252531719410437745e+02
8.064253955365084658e-02 2.042208071573660391e+02
8.168308845031622967e-02 1.953344666593174566e+02
8.272363734698161275e-02 2.061831020593086237e+02
8.376418624364699583e-02 2.578905109618812048e+02
8.480473514031239279e-02 3.432483439283356006e+02
8.584528403697777588e-02 3.676170240886369243e+02
8.688583293364315896e-02 2.913131154846430491e+02
8.792638183030854204e-02 2.149214907860285848e+02
8.896693072697392513e-02 1.791765142912457236e+02
9.000747962363930821e-02 1.683440387240089535e+02
9.104802852030469129e-02 1.670916219365720963e+02
9.208857741697007437e-02 1.687493823008123854e+02
9.312912631363545746e-02 1.730216816962181667e+02
9.416967521030084054e-02 1.796156529992996411e+02
9.521022410696622362e-02 1.884574934306261866e+02
9.625077300363160671e-02 2.038271322855607934e+02
9.729132190029698979e-02 2.348991780231522455e+02
9.833187079696237287e-02 2.936295309543836538e+02
9.937241969362775595e-02 3.745365833963444402e+02
1.004129685902931390e-01 4.055695384840926749e+02
1.014535174869585221e-01 3.469375658830459770e+02
1.024940663836239052e-01 2.797636421838392380e+02
1.035346152802892883e-01 2.486193813172884859e+02
1.045751641769546714e-01 2.360951799470725518e+02
1.056157130736200545e-01 2.166799455414989382e+02
1.066562619702854375e-01 1.979649720236685084e+02
1.076968108669508206e-01 1.905702377197092403e+02
1.087373597636162037e-01 1.892328883060607438e+02
1.097779086602815868e-01 1.886854734572031020e+02
1.108184575569469699e-01 1.885534246269582184e+02
1.118590064536123529e-01 1.893833622579855955e+02
1.128995553502777360e-01 1.886624517824109830e+02
1.139401042469431191e-01 1.861464882369689349e+02
1.149806531436085022e-01 1.815630374758745802e+02
1.160212020402738853e-01 1.755151479728051243e+02
1.170617509369392684e-01 1.676738768699019886e+02
1.181022998336046514e-01 1.591380851471452900e+02
1.191428487302700345e-01 1.495719219526440327e+02
1.201833976269354176e-01 1.396092505967490638e+02
1.212239465236008007e-01 1.294972368569803791e+02
1.222644954202661838e-01 1.199426645272942693e+02
1.233050443169315669e-01 1.098396800312387001e+02
1.243455932135969499e-01 1.006908796466297815e+02
1.253861421102623330e-01 9.252019732272411545e+01
1.264266910069277161e-01 8.557833762883294071e+01
1.274672399035930992e-01 7.963768590718089513e+01
1.285077888002584823e-01 7.616895803565282108e+01
1.295483376969238654e-01 7.618470867163296134e+01
1.305888865935892484e-01 7.902325368908839209e+01
1.316294354902546315e-01 8.236176194768822256e+01
1.326699843869200146e-01 8.379937816264427397e+01
1.337105332835853977e-01 8.522322951139616976e+01
1.347510821802507808e-01 8.421004781124334215e+01
1.357916310769161639e-01 7.501720916259397143e+01
1.368321799735815469e-01 5.964339717876731584e+01
1.378727288702469300e-01 4.748796291241662004e+01
1.389132777669123131e-01 4.094259290402769125e+01
1.399538266635776962e-01 3.759468784143248854e+01
1.409943755602430793e-01 3.550941232307216922e+01
1.420349244569084624e-01 3.497055039654302533e+01
1.430754733535738454e-01 3.486202987827367394e+01
1.441160222502392285e-01 3.553354985084385476e+01
1.451565711469046116e-01 3.682289371976960979e+01
1.461971200435699947e-01 3.997458393513593933e+01
1.472376689402353778e-01 4.448752390450106020e+01
1.482782178369007609e-01 4.567982250657716747e+01
1.493187667335661439e-01 4.301266360294836488e+01
1.503593156302315270e-01 3.861651235401805593e+01
1.513998645268969101e-01 3.619531529748027054e+01
1.524404134235622932e-01 3.438548602778228513e+01
1.534809623202276763e-01 3.397115602165237647e+01
1.545215112168930593e-01 3.372098877952529961e+01
1.555620601135584424e-01 3.418691488701353620e+01
1.566026090102238255e-01 3.505746276644086379e+01
1.576431579068892086e-01 3.382337079061191076e+01
1.586837068035545917e-01 3.145472155063489694e+01
1.597242557002199748e-01 2.908567890412084722e+01
1.607648045968853578e-01 2.737898196866942158e+01
1.618053534935507409e-01 2.655572332120765466e+01
1.628459023902161240e-01 2.574552412951487312e+01
1.638864512868815071e-01 2.520829904812901034e+01
1.649270001835468902e-01 2.483890854049046482e+01
1.659675490802122733e-01 2.422826961995762929e+01
1.670080979768776563e-01 2.376452428451042920e+01
1.680486468735430672e-01 2.333137833440122577e+01
1.690891957702084503e-01 2.329453907101274268e+01
1.701297446668738333e-01 2.288370162844425337e+01
1.711702935635392164e-01 2.222959723036874280e+01
1.722108424602045995e-01 2.178330231804217121e+01
1.732513913568699826e-01 2.163391412437064076e+01
1.742919402535353657e-01 2.140062019872848964e+01
1.753324891502007488e-01 2.131185669873688227e+01
1.763730380468661318e-01 2.232580358920637664e+01
1.774135869435315149e-01 2.353059250232008992e+01
1.784541358401968980e-01 2.510598596612832978e+01
1.794946847368622811e-01 2.597829129059523723e+01
1.805352336335276642e-01 2.503420676241687559e+01
1.815757825301930473e-01 2.306759794522897877e+01
1.826163314268584303e-01 2.074671443678907679e+01
1.836568803235238134e-01 1.891075438487474258e+01
1.846974292201891965e-01 1.761682332752866742e+01
1.857379781168545796e-01 1.646832669403959315e+01
1.867785270135199627e-01 1.584205068355444368e+01
1.878190759101853458e-01 1.522309448153082556e+01
1.888596248068507288e-01 1.516060028763333278e+01
1.899001737035161119e-01 1.514098315482228685e+01
1.909407226001814950e-01 1.482396802611919640e+01
1.919812714968468781e-01 1.422758742014329059e+01
1.930218203935122612e-01 1.338427661585177830e+01
1.940623692901776443e-01 1.316058938045082627e+01
1.951029181868430273e-01 1.287899821385485311e+01
1.961434670835084104e-01 1.288904743085385363e+01
1.971840159801737935e-01 1.328569768027159270e+01
1.982245648768391766e-01 1.334416640478526972e+01
1.992651137735045597e-01 1.286968377350933679e+01
2.003056626701699428e-01 1.240458519929983439e+01
2.013462115668353813e-01 1.148134532253240536e+01
2.023867604635007644e-01 1.036498692020721180e+01
2.034273093601661475e-01 9.720659859012126702e+00
2.044678582568315306e-01 9.361671336127322718e+00
2.055084071534969137e-01 8.459390826133112995e+00
2.065489560501622968e-01 8.275250165764120425e+00
2.075895049468276798e-01 8.195972853170438555e+00
2.086300538434930629e-01 8.115362184665347201e+00
2.096706027401584460e-01 8.082963046246714356e+00
2.107111516368238291e-01 7.798274358522121474e+00
2.117517005334892122e-01 7.719264355631942465e+00
2.127922494301545953e-01 7.705368494790210576e+00
2.138327983268199783e-01 7.478726617369190421e+00
2.148733472234853614e-01 7.245250739645445748e+00
2.159138961201507445e-01 7.262226888136240177e+00
2.169544450168161276e-01 7.319810226500550243e+00
2.179949939134815107e-01 7.062613875959193876e+00
2.190355428101468938e-01 7.017685285502302861e+00
2.200760917068122768e-01 7.196628988167152130e+00
2.211166406034776599e-01 7.151907079628671227e+00
2.221571895001430430e-01 7.200924306505935846e+00
2.231977383968084261e-01 7.328136057772969281e+00
2.242382872934738092e-01 7.435682959796434233e+00
2.252788361901391923e-01 7.567556504711497212e+00
2.263193850868045753e-01 7.708612437365164993e+00
2.273599339834699584e-01 7.969138775587357060e+00
2.284004828801353415e-01 7.661892515212734622e+00
2.294410317768007246e-01 7.544355287444034275e+00
2.304815806734661077e-01 7.622421843127085594e+00
2.315221295701314908e-01 7.809003867998661974e+00
2.325626784667968738e-01 7.812525920196552676e+00
2.336032273634622569e-01 7.452488227330562154e+00
2.346437762601276400e-01 7.022369218820635695e+00
2.356843251567930231e-01 6.451393911938954062e+00
2.367248740534584062e-01 5.911805542088682586e+00
2.377654229501237892e-01 5.515729966975108312e+00
2.388059718467891723e-01 5.589466535074333109e+00
2.398465207434545554e-01 5.391125883039489253e+00
2.408870696401199385e-01 4.996631415816601418e+00
2.419276185367853216e-01 5.099566975492717091e+00
2.429681674334507047e-01 5.072882818757644685e+00
2.440087163301160877e-01 5.417333643102022478e+00
2.450492652267814708e-01 5.432873039360810452e+00
2.460898141234468539e-01 5.447428374099391846e+00
2.471303630201122370e-01 5.392059239356520095e+00
2.481709119167776201e-01 5.298095259592095374e+00
2.492114608134430032e-01 5.339537530387428177e+00
2.502520097101083585e-01 5.026063457131019874e+00
2.512925586067737416e-01 4.562424972099574205e+00
2.523331075034391247e-01 4.382833512495718509e+00
2.533736564001045077e-01 4.418769921896696928e+00
2.544142052967698908e-01 4.161037130057092526e+00
2.554547541934352739e-01 4.079268447470585812e+00
2.564953030901006570e-01 4.072586675197904071e+00
2.575358519867660401e-01 4.059841288288087213e+00
2.585764008834314231e-01 3.818165677072073549e+00
2.596169497800968062e-01 4.006079282897967886e+00
2.606574986767621893e-01 3.740124997092941328e+00
2.616980475734275724e-01 3.420421027257798841e+00
2.627385964700929555e-01 3.457776010101319741e+00
2.637791453667583386e-01 3.883534593402725221e+00
2.648196942634237216e-01 3.742040228595104878e+00
2.658602431600891047e-01 3.432762642132203723e+00
2.669007920567544878e-01 3.122793971122582946e+00
2.679413409534198709e-01 3.333191325875763056e+00
2.689818898500852540e-01 3.535734381172719765e+00
2.700224387467506371e-01 3.389565747144626329e+00
2.710629876434160201e-01 3.374902538949282160e+00
2.721035365400814032e-01 3.812668674817345504e+00
2.731440854367467863e-01 3.841587250670336573e+00
2.741846343334121694e-01 3.943929591354113029e+00
2.752251832300775525e-01 3.856135840294964368e+00
2.762657321267429356e-01 3.949905591672770555e+00
2.773062810234083186e-01 3.969327815570373730e+00
2.783468299200737017e-01 3.938507363346928969e+00
2.793873788167390848e-01 3.669745447563659724e+00
2.804279277134044679e-01 3.577024986317780986e+00
2.814684766100698510e-01 3.476638185756073085e+00
2.825090255067352341e-01 3.379460792343646602e+00
2.835495744034006171e-01 3.279713658432466872e+00
2.845901233000660002e-01 3.603402426370500677e+00
2.856306721967313833e-01 3.601144437526794917e+00
2.866712210933967664e-01 3.521383662729430597e+00
2.877117699900621495e-01 3.255380253999543783e+00
2.887523188867275326e-01 3.154397847566180246e+00
2.897928677833929156e-01 3.276810549738026879e+00
2.908334166800582987e-01 3.266515523692572032e+00
2.918739655767236818e-01 3.132258400036960211e+00
2.929145144733890649e-01 2.695003253370746421e+00
2.939550633700544480e-01 2.689875469404565678e+00
2.949956122667198311e-01 2.967928672345799157e+00
2.960361611633852141e-01 3.338409528031004214e+00
2.970767100600505972e-01 3.151303265773961471e+00
2.981172589567159803e-01 3.171716598842358792e+00
2.991578078533813634e-01 3.136621156228112994e+00
3.001983567500468020e-01 3.113258797732896710e+00
3.012389056467121851e-01 3.081577746410978591e+00
3.022794545433775681e-01 2.984528105517441077e+00
3.033200034400429512e-01 2.858176588465543233e+00
3.043605523367083343e-01 2.882958821977723574e+00
3.054011012333737174e-01 2.695827844773532433e+00
3.064416501300391005e-01 2.633398652032806098e+00
3.074821990267044836e-01 2.697055801114988327e+00
3.085227479233698666e-01 2.521487542615144406e+00
3.095632968200352497e-01 2.584506860607231005e+00
3.106038457167006328e-01 2.623522420505342012e+00
3.116443946133660159e-01 2.579859994981838156e+00
3.126849435100313990e-01 2.513145471218937388e+00
3.137254924066967821e-01 2.234038080284800998e+00
3.147660413033621651e-01 2.300899483945343604e+00
3.158065902000275482e-01 2.266006527283224159e+00
3.168471390966929313e-01 2.161218672927240902e+00
3.178876879933583144e-01 2.129892128772972626e+00
3.189282368900236975e-01 2.207048356055562266e+00
3.199687857866890806e-01 2.313650056102211749e+00
3.210093346833544636e-01 2.433571129398799826e+00
3.220498835800198467e-01 2.239442220778293802e+00
3.230904324766852298e-01 2.100579391529500128e+00
3.241309813733506129e-01 2.304011592147169551e+00
3.251715302700159960e-01 2.182713296706410233e+00
3.262120791666813790e-01 2.278663369303881581e+00
3.272526280633467621e-01 2.120528763549540230e+00
3.282931769600121452e-01 2.199694146892657187e+00
3.293337258566775283e-01 2.444255168874679640e+00
3.303742747533429114e-01 2.555700209420418645e+00
3.314148236500082945e-01 2.482316903730126256e+00
3.324553725466736775e-01 2.549055767991387000e+00
3.334959214433390606e-01 2.196533623040100025e+00
3.345364703400044437e-01 2.300077314155789310e+00
3.355770192366698268e-01 2.312795215403525617e+00
3.366175681333352099e-01 2.154658685914309757e+00
3.376581170300005930e-01 2.279779038963869908e+00
3.386986659266659760e-01 2.142061555928993499e+00
3.397392148233313591e-01 2.124548737216034766e+00
3.407797637199967422e-01 2.150231682157670576e+00
3.418203126166621253e-01 2.107365811029502822e+00
3.428608615133275084e-01 2.086413619564140731e+00
3.439014104099928915e-01 2.130070434230511012e+00
3.449419593066582745e-01 2.187379469668456977e+00
3.459825082033236576e-01 2.117897832172001671e+00
3.470230570999890407e-01 2.237534680632524697e+00
3.480636059966544238e-01 2.255559378920700908e+00
3.491041548933198069e-01 2.055055364165575327e+00
3.501447037899851900e-01 1.910358639282826232e+00
3.511852526866505730e-01 1.918951664829879888e+00
3.522258015833159561e-01 1.855778403260007536e+00
3.532663504799813392e-01 1.772152096979169755e+00
3.543068993766467223e-01 1.912726788897082031e+00
3.553474482733121054e-01 2.032118151969413589e+00
3.563879971699774885e-01 2.138185169027778443e+00
3.574285460666428715e-01 1.896532816286313761e+00
3.584690949633082546e-01 1.668554282370774189e+00
3.595096438599736377e-01 1.612796474775585409e+00
3.605501927566390208e-01 1.875181311737435408e+00
3.615907416533044039e-01 1.744882359017182694e+00
3.626312905499697870e-01 1.791743539670434870e+00
3.636718394466351700e-01 2.120038182894273149e+00
3.647123883433005531e-01 1.917573632745845913e+00
3.657529372399659362e-01 1.746473190347455073e+00
3.667934861366313193e-01 1.929467753971447763e+00
3.678340350332967024e-01 1.864822542140462502e+00
3.688745839299620854e-01 1.884124854147518846e+00
3.699151328266274685e-01 1.736550786156069393e+00
3.709556817232928516e-01 1.685653318373663723e+00
3.719962306199582347e-01 1.588284284723918915e+00
3.730367795166236178e-01 1.632389456898991398e+00
3.740773284132890009e-01 1.777293597049368401e+00
3.751178773099543839e-01 1.802667051053443714e+00
3.761584262066197670e-01 1.628663036569374611e+00
3.771989751032851501e-01 1.641175932416071959e+00
3.782395239999505332e-01 1.805671808942811651e+00
3.792800728966159163e-01 1.864687932866388564e+00
3.803206217932812994e-01 1.661542252331646097e+00
3.813611706899466824e-01 1.769114925045883524e+00
3.824017195866120655e-01 1.805913682496086636e+00
3.834422684832774486e-01 1.519710100064941116e+00
3.844828173799428317e-01 1.410527909389351464e+00
3.855233662766082148e-01 1.456373025225939699e+00
3.865639151732735979e-01 1.575364425168789495e+00
3.876044640699389809e-01 1.809366039966416650e+00
3.886450129666043640e-01 1.618827342612775055e+00
3.896855618632697471e-01 1.430115423916483053e+00
3.907261107599351302e-01 1.671547856944034294e+00
3.917666596566005133e-01 1.702585636066004326e+00
3.928072085532658964e-01 1.659293838355416995e+00
3.938477574499312794e-01 1.539178251207001580e+00
3.948883063465966625e-01 1.327823399837260610e+00
3.959288552432620456e-01 1.487292415119533473e+00
3.969694041399274287e-01 1.472247446641478774e+00
3.980099530365928118e-01 1.528125857522226738e+00
3.990505019332581949e-01 1.463357569342097264e+00
4.000910508299235779e-01 1.272167529729131275e+00
4.011315997265889610e-01 1.169888275785332610e+00
4.021721486232543441e-01 1.171375063218729196e+00
4.032126975199197272e-01 1.153698511601966459e+00
4.042532464165851103e-01 1.246205014574126579e+00
4.052937953132504934e-01 1.206897879775578275e+00
4.063343442099158764e-01 1.127994892479264877e+00
4.073748931065812595e-01 6.102163956643700260e-01
4.084154420032466426e-01 7.198325742260145432e-01
4.094559908999120257e-01 1.366959452325765767e+00
4.104965397965774088e-01 1.240230953003411685e+00
4.115370886932427918e-01 1.091484709797050812e+00
4.125776375899081749e-01 1.185760364996074401e+00
4.136181864865735580e-01 1.381681754554961117e+00
4.146587353832389411e-01 1.299291476459458750e+00
4.156992842799043242e-01 1.306882951692760031e+00
4.167398331765697073e-01 1.360892525824301202e+00
4.177803820732350903e-01 1.275991877300580057e+00
4.188209309699004734e-01 1.068238241557200041e+00
4.198614798665658565e-01 9.726968595923395355e-01
4.209020287632312396e-01 1.328747846127789956e+00
4.219425776598966227e-01 1.288448561003043835e+00
4.229831265565620058e-01 1.112880123203996874e+00
4.240236754532273888e-01 1.232632017683915393e+00
4.250642243498927719e-01 1.364298459859409007e+00
4.261047732465581550e-01 1.359040223542109516e+00
4.271453221432235381e-01 1.243430023460533107e+00
4.281858710398889212e-01 1.174469054098793208e+00
4.292264199365543043e-01 1.094264873710663721e+00
4.302669688332196873e-01 1.188458035638856103e+00
4.313075177298850704e-01 1.046748592546318690e+00
4.323480666265504535e-01 1.159992790374698046e+00
4.333886155232158366e-01 1.258405511024960788e+00
4.344291644198812197e-01 1.206641750259233703e+00
