# q (1/Angstrom), Intensity (arb)
2.029070354705860696e-02 9.457899999187598041e+02
2.133125244372399004e-02 8.425125692380739792e+02
2.237180134038937659e-02 7.563168846465457591e+02
2.341235023705475968e-02 6.862909140257984291e+02
2.445289913372014276e-02 6.315448794998574158e+02
2.549344803038552584e-02 5.880394313681470067e+02
2.653399692705091240e-02 5.530844442215951631e+02
2.757454582371629548e-02 5.204718409225339428e+02
2.861509472038167856e-02 4.923417694562899669e+02
2.965564361704706164e-02 4.728217106036791506e+02
3.069619251371244473e-02 4.564251213890585177e+02
3.173674141037782781e-02 4.408077963876061176e+02
3.277729030704321089e-02 4.348088669404995699e+02
3.381783920370859398e-02 4.289027763475721713e+02
3.485838810037397706e-02 4.221833736792151512e+02
3.589893699703936014e-02 4.210064910276475416e+02
3.693948589370474322e-02 4.223112841048942983e+02
3.798003479037012631e-02 4.252344984764148990e+02
3.902058368703550939e-02 4.340931196287823468e+02
4.006113258370089247e-02 4.433950163955416315e+02
4.110168148036627556e-02 4.556952925330047037e+02
4.214223037703165864e-02 4.787067103571939697e+02
4.318277927369704866e-02 5.088049187198413392e+02
4.422332817036243174e-02 5.463116606645163529e+02
4.526387706702781483e-02 6.016622260537537841e+02
4.630442596369319791e-02 6.899780195225126818e+02
4.734497486035858099e-02 8.631055137240123258e+02
4.838552375702396408e-02 1.222318570978093248e+03
4.942607265368934716e-02 1.848178703135605701e+03
5.046662155035473024e-02 2.833161526245822643e+03
5.150717044702011332e-02 4.352952095672636460e+03
5.254771934368549641e-02 5.220810077769140662e+03
5.358826824035087949e-02 4.430686718450636363e+03
5.462881713701626257e-02 3.489439769481265103e+03
5.566936603368164566e-02 3.232409382001974336e+03
5.670991493034702874e-02 3.302048717824753567e+03
5.775046382701241182e-02 3.451524207851063238e+03
5.879101272367779490e-02 3.583570545003931784e+03
5.983156162034317799e-02 3.629677920966750207e+03
6.087211051700856107e-02 3.503094311660708172e+03
6.191265941367394415e-02 3.244475021698444834e+03
6.295320831033933417e-02 2.949909493632260364e+03
6.399375720700471726e-02 2.660922482129310083e+03
6.503430610367010034e-02 2.368795340266083258e+03
6.607485500033548342e-02 2.070994676296919806e+03
6.711540389700086651e-02 1.787356897843733805e+03
6.815595279366624959e-02 1.522020841117359851e+03
6.919650169033163267e-02 1.280240818222252528e+03
7.023705058699701576e-02 1.066594629068222275e+03
7.127759948366239884e-02 8.836610610769629375e+02
7.231814838032778192e-02 7.295061998960785559e+02
7.335869727699316500e-02 6.029282713663234290e+02
7.439924617365854809e-02 5.004910896036347481e+02
7.543979507032393117e-02 4.168730293915207881e+02
7.648034396698931425e-02 3.495982947807722212e+02
7.752089286365469734e-02 2.957947204547930937e+02
7.856144176032008042e-02 2.546204800999555289e+02
7.960199065698546350e-02 2.241496616345250175e+02
8.064253955365084658e-02 2.031976081307027187e+02
8.168308845031622967e-02 1.927825782173783296e+02
8.272363734698161275e-02 2.033625262669984863e+02
8.376418624364699583e-02 2.523042109835764677e+02
8.480473514031239279e-02 3.355777541349654598e+02
8.584528403697777588e-02 3.654190725771484267e+02
8.688583293364315896e-02 2.949329932228579878e+02
8.792638183030854204e-02 2.160600055914176210e+02
8.896693072697392513e-02 1.803262820888481031e+02
9.000747962363930821e-02 1.672965937874339772e+02
9.104802852030469129e-02 1.644674791520878898e+02
9.208857741697007437e-02 1.669421998690389159e+02
9.312912631363545746e-02 1.720508712732917331e+02
9.416967521030084054e-02 1.781583262048023073e+02
9.521022410696622362e-02 1.865508250735981051e+02
9.625077300363160671e-02 1.999694306931376957e+02
9.729132190029698979e-02 2.295118478960268646e+02
9.833187079696237287e-02 2.869112690461355442e+02
9.937241969362775595e-02 3.667165995639878702e+02
1.004129685902931390e-01 4.031707255465230446e+02
1.014535174869585221e-01 3.522172793248372500e+02
1.024940663836239052e-01 2.806804555977203677e+02
1.035346152802892883e-01 2.466095096652698544e+02
1.045751641769546714e-01 2.333143991790900884e+02
1.056157130736200545e-01 2.158791300646685727e+02
1.066562619702854375e-01 1.982365204487577728e+02
1.076968108669508206e-01 1.894811298476349180e+02
1.087373597636162037e-01 1.871464939646765515e+02
1.097779086602815868e-01 1.879711857410455309e+02
1.108184575569469699e-01 1.882684581233499728e+02
1.118590064536123529e-01 1.875578271879948602e+02
1.128995553502777360e-01 1.865246803080634663e+02
1.139401042469431191e-01 1.838636842038324914e+02
1.149806531436085022e-01 1.798068646559331967e+02
1.160212020402738853e-01 1.745247739184502223e+02
1.170617509369392684e-01 1.662080632367084263e+02
1.181022998336046514e-01 1.569420881480953653e+02
1.191428487302700345e-01 1.482604609801269646e+02
1.201833976269354176e-01 1.376304127337163266e+02
1.212239465236008007e-01 1.286652830728973811e+02
1.222644954202661838e-01 1.186003085693850210e+02
1.233050443169315669e-01 1.089631510288407270e+02
1.243455932135969499e-01 1.006843768561063115e+02
1.253861421102623330e-01 9.251697979774098712e+01
1.264266910069277161e-01 8.550582312258077877e+01
1.274672399035930992e-01 7.909346600919407422e+01
1.285077888002584823e-01 7.488483005284395233e+01
1.295483376969238654e-01 7.448812795739456760e+01
1.305888865935892484e-01 7.758705190135907515e+01
1.316294354902546315e-01 8.221743915186803520e+01
1.326699843869200146e-01 8.366890092882296415e+01
1.337105332835853977e-01 8.416834742146718895e+01
1.347510821802507808e-01 8.383256129155176950e+01
1.357916310769161639e-01 7.609175375460779378e+01
1.368321799735815469e-01 6.101303594327134761e+01
1.378727288702469300e-01 4.817228548605774563e+01
1.389132777669123131e-01 4.108492982103190627e+01
1.399538266635776962e-01 3.752179356818243861e+01
1.409943755602430793e-01 3.541351871959007269e+01
1.420349244569084624e-01 3.469514030366268287e+01
1.430754733535738454e-01 3.411903569847939366e+01
1.441160222502392285e-01 3.466229893567231102e+01
1.451565711469046116e-01 3.676817424865235751e+01
1.461971200435699947e-01 3.981492349538413578e+01
1.472376689402353778e-01 4.341891279404441661e+01
1.482782178369007609e-01 4.524964149465626662e+01
1.493187667335661439e-01 4.272866194096360459e+01
1.503593156302315270e-01 3.901816699817939593e+01
1.513998645268969101e-01 3.575298826920705153e+01
1.524404134235622932e-01 3.417411926833494107e+01
1.534809623202276763e-01 3.409544650729287696e+01
1.545215112168930593e-01 3.367657756538731206e+01
1.555620601135584424e-01 3.395156744416487982e+01
1.566026090102238255e-01 3.424054721931881318e+01
1.576431579068892086e-01 3.363279576542220184e+01
1.586837068035545917e-01 3.173846558539502993e+01
1.597242557002199748e-01 2.934908896248401078e+01
1.607648045968853578e-01 2.798464400072180069e+01
1.618053534935507409e-01 2.722152143695423732e+01
1.628459023902161240e-01 2.632640960317715439e+01
1.638864512868815071e-01 2.556175867966226889e+01
1.649270001835468902e-01 2.447788214764711512e+01
1.659675490802122733e-01 2.401806103126147462e+01
1.670080979768776563e-01 2.378117676714855122e+01
1.680486468735430672e-01 2.388748004373346490e+01
1.690891957702084503e-01 2.305895681473876024e+01
1.701297446668738333e-01 2.272615341453037985e+01
1.711702935635392164e-01 2.250323062308475386e+01
1.722108424602045995e-01 2.213360459935032409e+01
1.732513913568699826e-01 2.137247249688996220e+01
1.742919402535353657e-01 2.083620532206697717e+01
1.753324891502007488e-01 2.125558234523878554e+01
1.763730380468661318e-01 2.230768667970118813e+01
1.774135869435315149e-01 2.368840925556987997e+01
1.784541358401968980e-01 2.516895919677842031e+01
1.794946847368622811e-01 2.602579145911866831e+01
1.805352336335276642e-01 2.466517053862932940e+01
1.815757825301930473e-01 2.287937410489984558e+01
1.826163314268584303e-01 2.119931117996347680e+01
1.836568803235238134e-01 1.912076340210601444e+01
1.846974292201891965e-01 1.718711097857692494e+01
1.857379781168545796e-01 1.615901972283084476e+01
1.867785270135199627e-01 1.542462421106700887e+01
1.878190759101853458e-01 1.502505087159383024e+01
1.888596248068507288e-01 1.438363795463993711e+01
1.899001737035161119e-01 1.422284986114863869e+01
1.909407226001814950e-01 1.437811229937556945e+01
1.919812714968468781e-01 1.401720560503025581e+01
1.930218203935122612e-01 1.338655681865143521e+01
1.940623692901776443e-01 1.295509914429094422e+01
1.951029181868430273e-01 1.305006980826986052e+01
1.961434670835084104e-01 1.265276360490502228e+01
1.971840159801737935e-01 1.260526679388896554e+01
1.982245648768391766e-01 1.274820881350298052e+01
1.992651137735045597e-01 1.228006569806667514e+01
2.003056626701699428e-01 1.192686591091304393e+01
2.013462115668353813e-01 1.114893211292588759e+01
2.023867604635007644e-01 1.038115308913811319e+01
2.034273093601661475e-01 9.537629919329869921e+00
2.044678582568315306e-01 8.992617964387356722e+00
2.055084071534969137e-01 8.621241493722134663e+00
2.065489560501622968e-01 8.523010562241733368e+00
2.075895049468276798e-01 8.290277690225678953e+00
2.086300538434930629e-01 8.018798386710262349e+00
2.096706027401584460e-01 7.929422748343807115e+00
2.107111516368238291e-01 7.650730848155454566e+00
2.117517005334892122e-01 7.728801973683768978e+00
2.127922494301545953e-01 7.675805645145455713e+00
2.138327983268199783e-01 7.634329025520433021e+00
2.148733472234853614e-01 7.376676008305075527e+00
2.159138961201507445e-01 7.439666083049672807e+00
2.169544450168161276e-01 7.429693244953362807e+00
2.179949939134815107e-01 7.469642151590573320e+00
2.190355428101468938e-01 7.304076049186782882e+00
2.200760917068122768e-01 7.124359442113970431e+00
2.211166406034776599e-01 7.233266540811563061e+00
2.221571895001430430e-01 7.048390127909737402e+00
2.231977383968084261e-01 7.030658076276253610e+00
2.242382872934738092e-01 7.564477749299548748e+00
2.252788361901391923e-01 7.544480474096275202e+00
2.263193850868045753e-01 7.785853933039142305e+00
2.273599339834699584e-01 7.758522718656411854e+00
2.284004828801353415e-01 7.853769460712751282e+00
2.294410317768007246e-01 7.699912139348707996e+00
2.304815806734661077e-01 7.905007574000343595e+00
2.315221295701314908e-01 7.860577274388834468e+00
2.325626784667968738e-01 7.797259482388941620e+00
2.336032273634622569e-01 7.534917691613507884e+00
2.346437762601276400e-01 6.932667670080032707e+00
2.356843251567930231e-01 6.508523525296645573e+00
2.367248740534584062e-01 6.513080255069429114e+00
2.377654229501237892e-01 6.020821663201644469e+00
2.388059718467891723e-01 5.581882704802559658e+00
2.398465207434545554e-01 5.503072463275479720e+00
2.408870696401199385e-01 5.414915051569053617e+00
2.419276185367853216e-01 5.229751585170618000e+00
2.429681674334507047e-01 5.062670596103647114e+00
2.440087163301160877e-01 5.017467734644725397e+00
2.450492652267814708e-01 4.817530557183971496e+00
2.460898141234468539e-01 5.048429998135254948e+00
2.471303630201122370e-01 5.155611625531211217e+00
2.481709119167776201e-01 5.132489606060335774e+00
2.492114608134430032e-01 4.964832656712530934e+00
2.502520097101083585e-01 5.069819710698070026e+00
2.512925586067737416e-01 4.573785094253800310e+00
2.523331075034391247e-01 4.391822010997564973e+00
2.533736564001045077e-01 4.116202610885267177e+00
2.544142052967698908e-01 3.751461022561063174e+00
2.554547541934352739e-01 3.717469214479201867e+00
2.564953030901006570e-01 3.529266246466399082e+00
2.575358519867660401e-01 3.596357851395548977e+00
2.585764008834314231e-01 3.736055493960794394e+00
2.596169497800968062e-01 3.719140474149519093e+00
2.606574986767621893e-01 3.949360195912291260e+00
2.616980475734275724e-01 3.617712183169128792e+00
2.627385964700929555e-01 3.719622602184038840e+00
2.637791453667583386e-01 3.679420383599808275e+00
2.648196942634237216e-01 3.552958809565943454e+00
2.658602431600891047e-01 3.387551457477567141e+00
2.669007920567544878e-01 3.463972742677810857e+00
2.679413409534198709e-01 3.320772977916369939e+00
2.689818898500852540e-01 3.552446786598846273e+00
2.700224387467506371e-01 3.597608785394594832e+00
2.710629876434160201e-01 3.466891045996227660e+00
2.721035365400814032e-01 3.709882838218817369e+00
2.731440854367467863e-01 3.759949560356364628e+00
2.741846343334121694e-01 3.541916879951941155e+00
2.752251832300775525e-01 3.637113346181692464e+00
2.762657321267429356e-01 3.608993800052544998e+00
2.773062810234083186e-01 3.738394762261897597e+00
2.783468299200737017e-01 3.461491738660992468e+00
2.793873788167390848e-01 3.376376940212217903e+00
2.804279277134044679e-01 3.547787875604772267e+00
2.814684766100698510e-01 3.453758585753874399e+00
2.825090255067352341e-01 3.507700246503940633e+00
2.835495744034006171e-01 3.672167720694744730e+00
2.845901233000660002e-01 3.599318347047731237e+00
2.856306721967313833e-01 3.574285766101819917e+00
2.866712210933967664e-01 3.283975463983509258e+00
2.877117699900621495e-01 3.273658352378440384e+00
2.887523188867275326e-01 3.342354802024221527e+00
2.897928677833929156e-01 3.436962795576175012e+00
2.908334166800582987e-01 3.142483921866443097e+00
2.918739655767236818e-01 2.905931240300770213e+00
2.929145144733890649e-01 3.077640341514193523e+00
2.939550633700544480e-01 2.853477428348259792e+00
2.949956122667198311e-01 2.863245791514824390e+00
2.960361611633852141e-01 2.693507401378358423e+00
2.970767100600505972e-01 2.777482298545525197e+00
2.981172589567159803e-01 2.702214147698747126e+00
2.991578078533813634e-01 2.692764796495140445e+00
3.001983567500468020e-01 3.019180673210854593e+00
3.012389056467121851e-01 2.946452860776435756e+00
3.022794545433775681e-01 2.789275656953456917e+00
3.033200034400429512e-01 2.495460736861705442e+00
3.043605523367083343e-01 2.414217923693851020e+00
3.054011012333737174e-01 2.273739789719503079e+00
3.064416501300391005e-01 2.409855412181457268e+00
3.074821990267044836e-01 2.593389621134249978e+00
3.085227479233698666e-01 2.359651199992871540e+00
3.095632968200352497e-01 2.205035323893241639e+00
3.106038457167006328e-01 2.158332812062905504e+00
3.116443946133660159e-01 2.076717970875435526e+00
3.126849435100313990e-01 2.229785089802128084e+00
3.137254924066967821e-01 2.268066437936052893e+00
3.147660413033621651e-01 2.309439549257966462e+00
3.158065902000275482e-01 2.195836492403245188e+00
3.168471390966929313e-01 2.099811151679901400e+00
3.178876879933583144e-01 1.986568197994451168e+00
3.189282368900236975e-01 2.225040622556104353e+00
3.199687857866890806e-01 2.273394199645814240e+00
3.210093346833544636e-01 2.147688855643977490e+00
3.220498835800198467e-01 1.976641461339028183e+00
3.230904324766852298e-01 2.326768099226601549e+00
3.241309813733506129e-01 2.021263980601496257e+00
3.251715302700159960e-01 2.107070151821513804e+00
3.262120791666813790e-01 2.209410589622063270e+00
3.272526280633467621e-01 2.053153099030598838e+00
3.282931769600121452e-01 1.990380109094136429e+00
3.293337258566775283e-01 2.183882599655380119e+00
3.303742747533429114e-01 2.066793102837173990e+00
3.314148236500082945e-01 2.101199290744357739e+00
3.324553725466736775e-01 1.974755637293871047e+00
3.334959214433390606e-01 1.887169928899272264e+00
3.345364703400044437e-01 1.916430093608695984e+00
3.355770192366698268e-01 2.004458183726814724e+00
3.366175681333352099e-01 2.209833277803184615e+00
3.376581170300005930e-01 2.164744247271777056e+00
3.386986659266659760e-01 2.157695492009235494e+00
3.397392148233313591e-01 2.195369429900335234e+00
3.407797637199967422e-01 2.286255804716130768e+00
3.418203126166621253e-01 2.288359466850405255e+00
3.428608615133275084e-01 2.204625480280274274e+00
3.439014104099928915e-01 2.218954050114088972e+00
3.449419593066582745e-01 2.173455659254702965e+00
3.459825082033236576e-01 2.262759635238641209e+00
3.470230570999890407e-01 2.311161418246001631e+00
3.480636059966544238e-01 2.207724509207032781e+00
3.491041548933198069e-01 2.004927480310520593e+00
3.501447037899851900e-01 1.991909125235864053e+00
3.511852526866505730e-01 1.829968745213847114e+00
3.522258015833159561e-01 1.840625863665184880e+00
3.532663504799813392e-01 1.974900730827883422e+00
3.543068993766467223e-01 2.142050277046614326e+00
3.553474482733121054e-01 2.045447105834988122e+00
3.563879971699774885e-01 1.675583356180183614e+00
3.574285460666428715e-01 1.599609690996992128e+00
3.584690949633082546e-01 1.617770647095230885e+00
3.595096438599736377e-01 1.657396995962795216e+00
3.605501927566390208e-01 1.614791196468171819e+00
3.615907416533044039e-01 1.777242782363202878e+00
3.626312905499697870e-01 1.743203406286024659e+00
3.636718394466351700e-01 1.690718461692206631e+00
3.647123883433005531e-01 1.691560373214390012e+00
3.657529372399659362e-01 1.773582194125182809e+00
3.667934861366313193e-01 1.698603576116607172e+00
3.678340350332967024e-01 1.748173585319108270e+00
3.688745839299620854e-01 1.650259581185096636e+00
3.699151328266274685e-01 1.828756508049423246e+00
3.709556817232928516e-01 1.563035373144877838e+00
3.719962306199582347e-01 1.363849279555132910e+00
3.730367795166236178e-01 1.405594252831971147e+00
3.740773284132890009e-01 1.418544619546704411e+00
3.751178773099543839e-01 1.582218478814333196e+00
3.761584262066197670e-01 1.574834321304116713e+00
3.771989751032851501e-01 1.593959644438527334e+00
3.782395239999505332e-01 1.590161348591990986e+00
3.792800728966159163e-01 1.386869352319383353e+00
3.803206217932812994e-01 1.479057349509613317e+00
3.813611706899466824e-01 1.563894823462518957e+00
3.824017195866120655e-01 1.565092956814606140e+00
3.834422684832774486e-01 1.866354957023915517e+00
3.844828173799428317e-01 1.709406700163388138e+00
3.855233662766082148e-01 1.614266415397171528e+00
3.865639151732735979e-01 1.470067132193655368e+00
3.876044640699389809e-01 1.757784313261776532e+00
3.886450129666043640e-01 1.613410673792273542e+00
3.896855618632697471e-01 1.583466307572347631e+00
3.907261107599351302e-01 1.660301980297472113e+00
3.917666596566005133e-01 1.873714249552747901e+00
3.928072085532658964e-01 1.705141894212616194e+00
3.938477574499312794e-01 1.387510928156114431e+00
3.948883063465966625e-01 1.377727305301689853e+00
3.959288552432620456e-01 1.545842989011120494e+00
3.969694041399274287e-01 1.458091343609037693e+00
3.980099530365928118e-01 1.277493671491654936e+00
3.990505019332581949e-01 1.348892679071095557e+00
4.000910508299235779e-01 1.366629049141867114e+00
4.011315997265889610e-01 1.241563294607807677e+00
4.021721486232543441e-01 1.235912002141464683e+00
4.032126975199197272e-01 1.164224036944290219e+00
4.042532464165851103e-01 1.309427534241958568e+00
4.052937953132504934e-01 1.602638293372532274e+00
4.063343442099158764e-01 1.645977277238280578e+00
4.073748931065812595e-01 1.172904536140574550e+00
4.084154420032466426e-01 1.279986729319681160e+00
4.094559908999120257e-01 1.201043631542955126e+00
4.104965397965774088e-01 1.123126815334149597e+00
4.115370886932427918e-01 1.101607425747658908e+00
4.125776375899081749e-01 1.137191011129516482e+00
4.136181864865735580e-01 1.126942861471984969e+00
4.146587353832389411e-01 1.080905176802033907e+00
4.156992842799043242e-01 1.246936584031633544e+00
4.167398331765697073e-01 1.098302738115972232e+00
4.177803820732350903e-01 1.056155298070514448e+00
4.188209309699004734e-01 1.030322009024850161e+00
4.198614798665658565e-01 9.712773262002016850e-01
4.209020287632312396e-01 9.905968251737817809e-01
4.219425776598966227e-01 1.061648474421115651e+00
4.229831265565620058e-01 1.083509811951365975e+00
4.240236754532273888e-01 1.033434679557316827e+00
4.250642243498927719e-01 1.054876028575925773e+00
4.261047732465581550e-01 1.049624887070422119e+00
4.271453221432235381e-01 9.852844981387320900e-01
4.281858710398889212e-01 1.160809382889599561e+00
4.292264199365543043e-01 1.362781119527646467e+00
4.302669688332196873e-01 1.228287658559221285e+00
4.313075177298850704e-01 1.033015577254143835e+00
4.323480666265504535e-01 9.703402067337272285e-01
4.333886155232158366e-01 8.885640170474573551e-01
4.344291644198812197e-01 9.283363149024630445e-01
