# q (1/Angstrom), Intensity (arb)
2.029070354705860696e-02 9.476630944209950940e+02
2.133125244372399004e-02 8.417607866647449555e+02
2.237180134038937659e-02 7.552940830409680757e+02
2.341235023705475968e-02 6.842657164318073910e+02
2.445289913372014276e-02 6.275606729157736936e+02
2.549344803038552584e-02 5.804356381629573889e+02
2.653399692705091240e-02 5.444321982310495969e+02
2.757454582371629548e-02 5.121029254660883225e+02
2.861509472038167856e-02 4.869034280291931509e+02
2.965564361704706164e-02 4.686573797221552127e+02
3.069619251371244473e-02 4.542997145622772450e+02
3.173674141037782781e-02 4.386530727335235156e+02
3.277729030704321089e-02 4.288821149482849933e+02
3.381783920370859398e-02 4.249745915997948487e+02
3.485838810037397706e-02 4.202726537005253249e+02
3.589893699703936014e-02 4.170578355459613817e+02
3.693948589370474322e-02 4.179191471847616413e+02
3.798003479037012631e-02 4.203006320377147631e+02
3.902058368703550939e-02 4.271613289323382787e+02
4.006113258370089247e-02 4.385860723075073224e+02
4.110168148036627556e-02 4.546509532898035104e+02
4.214223037703165864e-02 4.752554648628723726e+02
4.318277927369704866e-02 5.015161433984146697e+02
4.422332817036243174e-02 5.383400180292314872e+02
4.526387706702781483e-02 5.919503124829914213e+02
4.630442596369319791e-02 6.824737049954395616e+02
4.734497486035858099e-02 8.541232793541805677e+02
4.838552375702396408e-02 1.205925328913277554e+03
4.942607265368934716e-02 1.820363494962476125e+03
5.046662155035473024e-02 2.792598883519425726e+03
5.150717044702011332e-02 4.294498814230973949e+03
5.254771934368549641e-02 5.167671773474523434e+03
5.358826824035087949e-02 4.400426161493034670e+03
5.462881713701626257e-02 3.464195707677017708e+03
5.566936603368164566e-02 3.198026724302823823e+03
5.670991493034702874e-02 3.261996415361309573e+03
5.775046382701241182e-02 3.405113728986353635e+03
5.879101272367779490e-02 3.541474058875979154e+03
5.983156162034317799e-02 3.583781972165491425e+03
6.087211051700856107e-02 3.457530929048769849e+03
6.191265941367394415e-02 3.205432512713250617e+03
6.295320831033933417e-02 2.925098157339059071e+03
6.399375720700471726e-02 2.634802180539530127e+03
6.503430610367010034e-02 2.340344663812942599e+03
6.607485500033548342e-02 2.052419018055501965e+03
6.711540389700086651e-02 1.773495519482632290e+03
6.815595279366624959e-02 1.506760354944910659e+03
6.919650169033163267e-02 1.269929828404961199e+03
7.023705058699701576e-02 1.060082629479614297e+03
7.127759948366239884e-02 8.801584675857576485e+02
7.231814838032778192e-02 7.263903948498292493e+02
7.335869727699316500e-02 6.013804458620046489e+02
7.439924617365854809e-02 4.980746116892702275e+02
7.543979507032393117e-02 4.118148626534271557e+02
7.648034396698931425e-02 3.472508670598847402e+02
7.752089286365469734e-02 2.965302055821659337e+02
7.856144176032008042e-02 2.551538387091679851e+02
7.960199065698546350e-02 2.236486835807859848e+02
8.064253955365084658e-02 2.008709294559842533e+02
8.168308845031622967e-02 1.917277903555380476e+02
8.272363734698161275e-02 2.017451942096353150e+02
8.376418624364699583e-02 2.490750913726819249e+02
8.480473514031239279e-02 3.321865581157773022e+02
8.584528403697777588e-02 3.626274163627228404e+02
8.688583293364315896e-02 2.933704697407738422e+02
8.792638183030854204e-02 2.144240196652913255e+02
8.896693072697392513e-02 1.772942163366327293e+02
9.000747962363930821e-02 1.650660984831781377e+02
9.104802852030469129e-02 1.638941761985690277e+02
9.208857741697007437e-02 1.660679695818636503e+02
9.312912631363545746e-02 1.706337575079352575e+02
9.416967521030084054e-02 1.771424553826853412e+02
9.521022410696622362e-02 1.851998901033575180e+02
9.625077300363160671e-02 1.986837364466017561e+02
9.729132190029698979e-02 2.272881307133882274e+02
9.833187079696237287e-02 2.806970200486072713e+02
9.937241969362775595e-02 3.588828700518321284e+02
1.004129685902931390e-01 3.984248988920774082e+02
1.014535174869585221e-01 3.509133773443438713e+02
1.024940663836239052e-01 2.805382658115363483e+02
1.035346152802892883e-01 2.452519848280921622e+02
1.045751641769546714e-01 2.322320118772970545e+02
1.056157130736200545e-01 2.144939795461819756e+02
1.066562619702854375e-01 1.959527114522829834e+02
1.076968108669508206e-01 1.881415000865248430e+02
1.087373597636162037e-01 1.858438606868046463e+02
1.097779086602815868e-01 1.860819507728874100e+02
1.108184575569469699e-01 1.870995586427413002e+02
1.118590064536123529e-01 1.871464725160670639e+02
1.128995553502777360e-01 1.849442921235644519e+02
1.139401042469431191e-01 1.821778609496029446e+02
1.149806531436085022e-01 1.781843971692012474e+02
1.160212020402738853e-01 1.720086979201222448e+02
1.170617509369392684e-01 1.651811328289383880e+02
1.181022998336046514e-01 1.566801839106499585e+02
1.191428487302700345e-01 1.467348446837623328e+02
1.201833976269354176e-01 1.366379730924739988e+02
1.212239465236008007e-01 1.278034457536898429e+02
1.222644954202661838e-01 1.196059284029117151e+02
1.233050443169315669e-01 1.097188003750257934e+02
1.243455932135969499e-01 1.000650977187860491e+02
1.253861421102623330e-01 9.158463242239054125e+01
1.264266910069277161e-01 8.505887821000804649e+01
1.274672399035930992e-01 7.895616552943369015e+01
1.285077888002584823e-01 7.552034816999568534e+01
1.295483376969238654e-01 7.472058583974107648e+01
1.305888865935892484e-01 7.736849435124578633e+01
1.316294354902546315e-01 8.165953818204968684e+01
1.326699843869200146e-01 8.308056671336085230e+01
1.337105332835853977e-01 8.393785254214886038e+01
1.347510821802507808e-01 8.423599436563132770e+01
1.357916310769161639e-01 7.722958234660413268e+01
1.368321799735815469e-01 6.187701001958068758e+01
1.378727288702469300e-01 4.822802023858473319e+01
1.389132777669123131e-01 4.076109835876592058e+01
1.399538266635776962e-01 3.747161412437890249e+01
1.409943755602430793e-01 3.571302626417457304e+01
1.420349244569084624e-01 3.469825139509299561e+01
1.430754733535738454e-01 3.388199908754770462e+01
1.441160222502392285e-01 3.463370680572734983e+01
1.451565711469046116e-01 3.618082077991780920e+01
1.461971200435699947e-01 3.904792945272286886e+01
1.472376689402353778e-01 4.313397151847829036e+01
1.482782178369007609e-01 4.484736348915980386e+01
1.493187667335661439e-01 4.254348955497157192e+01
1.503593156302315270e-01 3.842761564566987431e+01
1.513998645268969101e-01 3.528759617815379102e+01
1.524404134235622932e-01 3.377600493104063162e+01
1.534809623202276763e-01 3.312942238420782815e+01
1.545215112168930593e-01 3.359753435824740109e+01
1.555620601135584424e-01 3.430102543338381338e+01
1.566026090102238255e-01 3.422685040709642124e+01
1.576431579068892086e-01 3.267373616700486139e+01
1.586837068035545917e-01 3.086310187277051043e+01
1.597242557002199748e-01 2.901852371295822763e+01
1.607648045968853578e-01 2.752911099785070093e+01
1.618053534935507409e-01 2.631793932072755382e+01
1.628459023902161240e-01 2.563493571462257137e+01
1.638864512868815071e-01 2.535540313482476904e+01
1.649270001835468902e-01 2.476941626184061107e+01
1.659675490802122733e-01 2.414879387940738198e+01
1.670080979768776563e-01 2.340308825309393725e+01
1.680486468735430672e-01 2.304337725613996568e+01
1.690891957702084503e-01 2.281048696066681458e+01
1.701297446668738333e-01 2.238314602264611963e+01
1.711702935635392164e-01 2.187251476222288460e+01
1.722108424602045995e-01 2.167368374981677093e+01
1.732513913568699826e-01 2.124499273972696756e+01
1.742919402535353657e-01 2.096669427804730645e+01
1.753324891502007488e-01 2.123626436850882016e+01
1.763730380468661318e-01 2.195062610286764837e+01
1.774135869435315149e-01 2.345800859623706813e+01
1.784541358401968980e-01 2.513369976911031145e+01
1.794946847368622811e-01 2.564593538846820309e+01
1.805352336335276642e-01 2.500947048117459559e+01
1.815757825301930473e-01 2.333527558137335234e+01
1.826163314268584303e-01 2.067477844098658935e+01
1.836568803235238134e-01 1.856722941175052100e+01
1.846974292201891965e-01 1.742851916567981263e+01
1.857379781168545796e-01 1.600840337834771532e+01
1.867785270135199627e-01 1.492736530928435457e+01
1.878190759101853458e-01 1.505609850651566362e+01
1.888596248068507288e-01 1.475781614246016460e+01
1.899001737035161119e-01 1.530617326240047404e+01
1.909407226001814950e-01 1.531415056309957379e+01
1.919812714968468781e-01 1.467544973787818208e+01
1.930218203935122612e-01 1.388530116144324111e+01
1.940623692901776443e-01 1.296922191890010723e+01
1.951029181868430273e-01 1.273915398472117388e+01
1.961434670835084104e-01 1.241268225482293985e+01
1.971840159801737935e-01 1.252563171952659005e+01
1.982245648768391766e-01 1.236810399332295418e+01
1.992651137735045597e-01 1.247777005546515738e+01
2.003056626701699428e-01 1.218010437783698308e+01
2.013462115668353813e-01 1.147876035487846380e+01
2.023867604635007644e-01 1.039420107909721835e+01
2.034273093601661475e-01 9.465978102019526830e+00
2.044678582568315306e-01 8.741832632255167823e+00
2.055084071534969137e-01 8.594792691919586503e+00
2.065489560501622968e-01 8.607678378815432296e+00
2.075895049468276798e-01 8.266775266333183936e+00
2.086300538434930629e-01 7.867136003951994638e+00
2.096706027401584460e-01 7.534698717517951394e+00
2.107111516368238291e-01 7.605430592113577859e+00
2.117517005334892122e-01 7.654462539396238441e+00
2.127922494301545953e-01 7.696564056183440528e+00
2.138327983268199783e-01 7.291180753357384248e+00
2.148733472234853614e-01 7.255714270224967066e+00
2.159138961201507445e-01 7.295978996330450883e+00
2.169544450168161276e-01 7.173721046036398263e+00
2.179949939134815107e-01 7.232014596011286045e+00
2.190355428101468938e-01 7.110605783326175100e+00
2.200760917068122768e-01 7.265870332287679645e+00
2.211166406034776599e-01 7.146595190745852477e+00
2.221571895001430430e-01 6.756532651139004031e+00
2.231977383968084261e-01 6.811217332184444473e+00
2.242382872934738092e-01 7.448998294868861336e+00
2.252788361901391923e-01 7.545235416009752782e+00
2.263193850868045753e-01 7.482836192722555069e+00
2.273599339834699584e-01 7.627013726816908701e+00
2.284004828801353415e-01 7.536975319381340910e+00
2.294410317768007246e-01 7.623668909417880002e+00
2.304815806734661077e-01 7.694112221715990074e+00
2.315221295701314908e-01 7.949199536206556616e+00
2.325626784667968738e-01 7.942607059128899749e+00
2.336032273634622569e-01 7.557087457044310952e+00
2.346437762601276400e-01 7.058305081673921677e+00
2.356843251567930231e-01 6.631065815910439198e+00
2.367248740534584062e-01 6.171157337960298861e+00
2.377654229501237892e-01 5.862014658535045442e+00
2.388059718467891723e-01 5.623952933169999113e+00
2.398465207434545554e-01 5.766600165553889212e+00
2.408870696401199385e-01 5.415238719738873385e+00
2.419276185367853216e-01 5.136256285791716891e+00
2.429681674334507047e-01 5.075725407391942667e+00
2.440087163301160877e-01 4.930162139453290848e+00
2.450492652267814708e-01 4.838343660500015631e+00
2.460898141234468539e-01 5.118273601990225075e+00
2.471303630201122370e-01 5.308286881588337280e+00
2.481709119167776201e-01 5.312980062756324173e+00
2.492114608134430032e-01 5.290750130867770906e+00
2.502520097101083585e-01 5.066914780613384295e+00
2.512925586067737416e-01 4.861913642609842157e+00
2.523331075034391247e-01 4.626417721729492172e+00
2.533736564001045077e-01 4.271295295019779559e+00
2.544142052967698908e-01 4.207646659687917179e+00
2.554547541934352739e-01 4.317760130329226342e+00
2.564953030901006570e-01 4.103208216098682470e+00
2.575358519867660401e-01 3.702347558153778806e+00
2.585764008834314231e-01 3.503287786871677412e+00
2.596169497800968062e-01 3.579669336371587463e+00
2.606574986767621893e-01 3.594360665364472851e+00
2.616980475734275724e-01 3.515651521885654773e+00
2.627385964700929555e-01 3.160882943196963168e+00
2.637791453667583386e-01 3.260608996869681420e+00
2.648196942634237216e-01 3.448790048055013102e+00
2.658602431600891047e-01 3.270635453981554974e+00
2.669007920567544878e-01 3.214020672904734255e+00
2.679413409534198709e-01 3.201449284470449186e+00
2.689818898500852540e-01 3.172074157400526673e+00
2.700224387467506371e-01 3.171396542926881779e+00
2.710629876434160201e-01 3.575272663644049942e+00
2.721035365400814032e-01 3.697557941233895917e+00
2.731440854367467863e-01 3.730120538622710313e+00
2.741846343334121694e-01 3.743769392369216575e+00
2.752251832300775525e-01 3.853329802444918073e+00
2.762657321267429356e-01 3.808815476380431164e+00
2.773062810234083186e-01 3.604664615208150735e+00
2.783468299200737017e-01 3.588711942003826039e+00
2.793873788167390848e-01 3.530656684311836102e+00
2.804279277134044679e-01 3.284473756714962889e+00
2.814684766100698510e-01 3.359593697859146744e+00
2.825090255067352341e-01 3.490418388026615304e+00
2.835495744034006171e-01 3.318121772827371530e+00
2.845901233000660002e-01 3.143427127181176672e+00
2.856306721967313833e-01 3.148465345798047821e+00
2.866712210933967664e-01 3.349293666385236179e+00
2.877117699900621495e-01 3.311874374405306298e+00
2.887523188867275326e-01 3.288611676519035854e+00
2.897928677833929156e-01 3.087584958305871652e+00
2.908334166800582987e-01 3.101098390567990748e+00
2.918739655767236818e-01 3.170216533200026277e+00
2.929145144733890649e-01 2.998092417234538232e+00
2.939550633700544480e-01 2.845545311050550197e+00
2.949956122667198311e-01 2.963713256301012677e+00
2.960361611633852141e-01 2.925380611398221475e+00
2.970767100600505972e-01 2.786194500065242607e+00
2.981172589567159803e-01 2.860577569959616540e+00
2.991578078533813634e-01 2.899673047729770303e+00
3.001983567500468020e-01 2.779094175449593251e+00
3.012389056467121851e-01 2.779982793937652019e+00
3.022794545433775681e-01 2.596424277571070860e+00
3.033200034400429512e-01 2.522187855170788140e+00
3.043605523367083343e-01 2.489364584102244038e+00
3.054011012333737174e-01 2.498064550366837722e+00
3.064416501300391005e-01 2.280816660615293756e+00
3.074821990267044836e-01 2.437988299483553334e+00
3.085227479233698666e-01 2.510039034301506433e+00
3.095632968200352497e-01 2.415529689942523817e+00
3.106038457167006328e-01 2.541205165307463432e+00
3.116443946133660159e-01 2.676343202995759896e+00
3.126849435100313990e-01 2.375114796033372500e+00
3.137254924066967821e-01 2.310775228869193398e+00
3.147660413033621651e-01 2.186946719235347558e+00
3.158065902000275482e-01 2.233149470456226027e+00
3.168471390966929313e-01 2.401235557785657448e+00
3.178876879933583144e-01 2.315272260684203331e+00
3.189282368900236975e-01 2.337901894105193890e+00
3.199687857866890806e-01 2.051390185408049405e+00
3.210093346833544636e-01 2.098706649802846158e+00
3.220498835800198467e-01 2.213412316388314593e+00
3.230904324766852298e-01 2.390323966511846976e+00
3.241309813733506129e-01 2.235854490829119356e+00
3.251715302700159960e-01 2.235279472267041712e+00
3.262120791666813790e-01 2.117581548387541091e+00
3.272526280633467621e-01 2.108870532944511211e+00
3.282931769600121452e-01 2.182114854184668218e+00
3.293337258566775283e-01 2.240659798218434418e+00
3.303742747533429114e-01 2.486106686928707177e+00
3.314148236500082945e-01 2.381997681586195625e+00
3.324553725466736775e-01 2.126860391694901153e+00
3.334959214433390606e-01 2.107753665105754237e+00
3.345364703400044437e-01 2.140331962113876330e+00
3.355770192366698268e-01 2.146561654171577516e+00
3.366175681333352099e-01 2.003342545010724507e+00
3.376581170300005930e-01 1.897658908558518931e+00
3.386986659266659760e-01 1.992502680278310123e+00
3.397392148233313591e-01 2.330399083621390588e+00
3.407797637199967422e-01 2.146107887288252414e+00
3.418203126166621253e-01 2.110009939591517281e+00
3.428608615133275084e-01 2.058899302019597144e+00
3.439014104099928915e-01 1.974983640365550741e+00
3.449419593066582745e-01 2.008056294341251657e+00
3.459825082033236576e-01 2.205731546032410506e+00
3.470230570999890407e-01 2.096533329915178712e+00
3.480636059966544238e-01 2.106199212032578316e+00
3.491041548933198069e-01 1.858827355862562314e+00
3.501447037899851900e-01 2.022485644074940581e+00
3.511852526866505730e-01 1.990019730943792808e+00
3.522258015833159561e-01 2.078899895591703739e+00
3.532663504799813392e-01 1.909684452283041622e+00
3.543068993766467223e-01 1.621871048598226395e+00
3.553474482733121054e-01 1.631648567195654209e+00
3.563879971699774885e-01 1.740116604059082306e+00
3.574285460666428715e-01 1.622945315208358608e+00
3.584690949633082546e-01 1.660484179206552113e+00
3.595096438599736377e-01 1.709312943691699616e+00
3.605501927566390208e-01 1.614824033421143668e+00
3.615907416533044039e-01 1.605962347895520281e+00
3.626312905499697870e-01 1.651870160857676240e+00
3.636718394466351700e-01 1.610220999000070208e+00
3.647123883433005531e-01 1.717837025377196625e+00
3.657529372399659362e-01 1.608274608389070437e+00
3.667934861366313193e-01 1.624730439036063956e+00
3.678340350332967024e-01 1.694906401129586015e+00
3.688745839299620854e-01 1.603504321860778958e+00
3.699151328266274685e-01 1.656992581898297345e+00
3.709556817232928516e-01 1.672648909289478070e+00
3.719962306199582347e-01 1.515421568304937239e+00
3.730367795166236178e-01 1.702091596222043535e+00
3.740773284132890009e-01 1.676936377013994672e+00
3.751178773099543839e-01 1.619396655917391570e+00
3.761584262066197670e-01 1.591545189483209555e+00
3.771989751032851501e-01 1.600166638185488210e+00
3.782395239999505332e-01 1.821897746684001618e+00
3.792800728966159163e-01 1.905679820300502314e+00
3.803206217932812994e-01 1.638125969573479779e+00
3.813611706899466824e-01 1.702207876339826953e+00
3.824017195866120655e-01 1.764751837376035581e+00
3.834422684832774486e-01 1.551743294095075498e+00
3.844828173799428317e-01 1.440437570158220382e+00
3.855233662766082148e-01 1.553342232807324308e+00
3.865639151732735979e-01 1.480613017208696647e+00
3.876044640699389809e-01 1.326785789623681211e+00
3.886450129666043640e-01 1.367398026860421112e+00
3.896855618632697471e-01 1.550965408086096176e+00
3.907261107599351302e-01 1.544908435185295303e+00
3.917666596566005133e-01 1.458308653753746853e+00
3.928072085532658964e-01 8.787888741636784573e-01
3.938477574499312794e-01 1.592469566279302029e+00
3.948883063465966625e-01 1.573985501142018961e+00
3.959288552432620456e-01 1.439076545349703196e+00
3.969694041399274287e-01 1.221246573340792452e+00
3.980099530365928118e-01 1.212318250310261192e+00
3.990505019332581949e-01 1.348775183431897062e+00
4.000910508299235779e-01 1.243699076273436788e+00
4.011315997265889610e-01 1.333695111516632892e+00
4.021721486232543441e-01 1.214726695929382316e+00
4.032126975199197272e-01 1.161195317948610750e+00
4.042532464165851103e-01 1.111755216034644889e+00
4.052937953132504934e-01 1.062606433903816594e+00
4.063343442099158764e-01 1.205277980171011620e+00
4.073748931065812595e-01 1.280102907486558195e+00
4.084154420032466426e-01 1.261444805251809242e+00
4.094559908999120257e-01 1.414470991141641321e+00
4.104965397965774088e-01 1.275449636389598851e+00
4.115370886932427918e-01 1.254043431581241208e+00
4.125776375899081749e-01 1.149051369994253946e+00
4.136181864865735580e-01 1.194832422068543565e+00
4.146587353832389411e-01 1.149978364119704111e+00
4.156992842799043242e-01 1.118590951063442418e+00
4.167398331765697073e-01 1.208617303212285776e+00
4.177803820732350903e-01 1.106518545425739575e+00
4.188209309699004734e-01 1.098049719584174966e+00
4.198614798665658565e-01 1.076836055893753752e+00
4.209020287632312396e-01 1.238779049347574102e+00
4.219425776598966227e-01 1.220311141857962411e+00
4.229831265565620058e-01 1.100618643084978032e+00
4.240236754532273888e-01 1.128182536832515126e+00
4.250642243498927719e-01 1.104668971362503527e+00
4.261047732465581550e-01 1.007677382397062615e+00
4.271453221432235381e-01 1.079538917324256886e+00
4.281858710398889212e-01 1.046547116255968746e+00
4.292264199365543043e-01 1.173188611269452508e+00
4.302669688332196873e-01 1.127920841617484626e+00
4.313075177298850704e-01 1.060052534066318941e+00
4.323480666265504535e-01 1.161731966249199388e+00
4.333886155232158366e-01 1.027540880682039415e+00
4.344291644198812197e-01 9.719475031061683978e-01
