# q (1/Angstrom), Intensity (arb)
2.029070354705860696e-02 9.382283457504753414e+02
2.133125244372399004e-02 8.335470889222704045e+02
2.237180134038937659e-02 7.534664096165871570e+02
2.341235023705475968e-02 6.814573828032011988e+02
2.445289913372014276e-02 6.244605214098206716e+02
2.549344803038552584e-02 5.775629549626946755e+02
2.653399692705091240e-02 5.440358766133184645e+02
2.757454582371629548e-02 5.140153738254833797e+02
2.861509472038167856e-02 4.916150123911856440e+02
2.965564361704706164e-02 4.693043434396842031e+02
3.069619251371244473e-02 4.542052988599639320e+02
3.173674141037782781e-02 4.393302814661005868e+02
3.277729030704321089e-02 4.316637325977553701e+02
3.381783920370859398e-02 4.263092357861811479e+02
3.485838810037397706e-02 4.218481554571740730e+02
3.589893699703936014e-02 4.197127838454881612e+02
3.693948589370474322e-02 4.221266255438771395e+02
3.798003479037012631e-02 4.268465025007583904e+02
3.902058368703550939e-02 4.340469988658413740e+02
4.006113258370089247e-02 4.433159237084695974e+02
4.110168148036627556e-02 4.611209948034821196e+02
4.214223037703165864e-02 4.832238081197085080e+02
4.318277927369704866e-02 5.090335953238450202e+02
4.422332817036243174e-02 5.479667952156701176e+02
4.526387706702781483e-02 6.068988684874611863e+02
4.630442596369319791e-02 6.995590519771834579e+02
4.734497486035858099e-02 8.837097320422592475e+02
4.838552375702396408e-02 1.262892113891258532e+03
4.942607265368934716e-02 1.911701200049923045e+03
5.046662155035473024e-02 2.950077109347338137e+03
5.150717044702011332e-02 4.514221383499277181e+03
5.254771934368549641e-02 5.289893184120583101e+03
5.358826824035087949e-02 4.409959680730785294e+03
5.462881713701626257e-02 3.495376197869198677e+03
5.566936603368164566e-02 3.277979260367820643e+03
5.670991493034702874e-02 3.359985222604771934e+03
5.775046382701241182e-02 3.509983477837426108e+03
5.879101272367779490e-02 3.647541196011433840e+03
5.983156162034317799e-02 3.679750988550609691e+03
6.087211051700856107e-02 3.537391073827267064e+03
6.191265941367394415e-02 3.267581889569421037e+03
6.295320831033933417e-02 2.968373711444708533e+03
6.399375720700471726e-02 2.673774440788633456e+03
6.503430610367010034e-02 2.373759921366039180e+03
6.607485500033548342e-02 2.073407050530389824e+03
6.711540389700086651e-02 1.793605272019261292e+03
6.815595279366624959e-02 1.524362936307111795e+03
6.919650169033163267e-02 1.280732276202773619e+03
7.023705058699701576e-02 1.066300021490714471e+03
7.127759948366239884e-02 8.824983483370509703e+02
7.231814838032778192e-02 7.308200912716793027e+02
7.335869727699316500e-02 6.026265469412439870e+02
7.439924617365854809e-02 5.013643352714645403e+02
7.543979507032393117e-02 4.175287258807578610e+02
7.648034396698931425e-02 3.501291003724027178e+02
7.752089286365469734e-02 2.981662872566024589e+02
7.856144176032008042e-02 2.560334950556430158e+02
7.960199065698546350e-02 2.245342243355343896e+02
8.064253955365084658e-02 2.029575731143475252e+02
8.168308845031622967e-02 1.931776727466608179e+02
8.272363734698161275e-02 2.068967274857995164e+02
8.376418624364699583e-02 2.620612722842380435e+02
8.480473514031239279e-02 3.450889325966420529e+02
8.584528403697777588e-02 3.620146300172929159e+02
8.688583293364315896e-02 2.845486151990629651e+02
8.792638183030854204e-02 2.105223990868757937e+02
8.896693072697392513e-02 1.787274696332139001e+02
9.000747962363930821e-02 1.685530680541054096e+02
9.104802852030469129e-02 1.664904534218985361e+02
9.208857741697007437e-02 1.691596044355542574e+02
9.312912631363545746e-02 1.741933603369310219e+02
9.416967521030084054e-02 1.807036113409794780e+02
9.521022410696622362e-02 1.889133372464633283e+02
9.625077300363160671e-02 2.056099506968364210e+02
9.729132190029698979e-02 2.377470964187673417e+02
9.833187079696237287e-02 2.974858067110450861e+02
9.937241969362775595e-02 3.791325792322007828e+02
1.004129685902931390e-01 4.071561440368196827e+02
1.014535174869585221e-01 3.453246930854962216e+02
1.024940663836239052e-01 2.759727030689458047e+02
1.035346152802892883e-01 2.480146621144825758e+02
1.045751641769546714e-01 2.353393195538116913e+02
1.056157130736200545e-01 2.167678021274615503e+02
1.066562619702854375e-01 1.988411360508654298e+02
1.076968108669508206e-01 1.913160771672853571e+02
1.087373597636162037e-01 1.901136533914251174e+02
1.097779086602815868e-01 1.895941192209537576e+02
1.108184575569469699e-01 1.898599647213530091e+02
1.118590064536123529e-01 1.903591350729891758e+02
1.128995553502777360e-01 1.895395140521362407e+02
1.139401042469431191e-01 1.849791087917319032e+02
1.149806531436085022e-01 1.801403219050312430e+02
1.160212020402738853e-01 1.739267393435518443e+02
1.170617509369392684e-01 1.672948539219799500e+02
1.181022998336046514e-01 1.591037493256967821e+02
1.191428487302700345e-01 1.484132767728313524e+02
1.201833976269354176e-01 1.388116898099366381e+02
1.212239465236008007e-01 1.290814167971598181e+02
1.222644954202661838e-01 1.188303964548102130e+02
1.233050443169315669e-01 1.095351635850359600e+02
1.243455932135969499e-01 1.005902395650783490e+02
1.253861421102623330e-01 9.193422867696733647e+01
1.264266910069277161e-01 8.533601163064156481e+01
1.274672399035930992e-01 7.965594029035079870e+01
1.285077888002584823e-01 7.610412617136739755e+01
1.295483376969238654e-01 7.517488192187266804e+01
1.305888865935892484e-01 7.875236564339257939e+01
1.316294354902546315e-01 8.276808488699289512e+01
1.326699843869200146e-01 8.340924011724564480e+01
1.337105332835853977e-01 8.437521808586021166e+01
1.347510821802507808e-01 8.368890160594315830e+01
1.357916310769161639e-01 7.400771676118299069e+01
1.368321799735815469e-01 5.849568700430101131e+01
1.378727288702469300e-01 4.676516556356430243e+01
1.389132777669123131e-01 4.066966703188793986e+01
1.399538266635776962e-01 3.685319767019650783e+01
1.409943755602430793e-01 3.491621874142932569e+01
1.420349244569084624e-01 3.433692152230945993e+01
1.430754733535738454e-01 3.408280817462144796e+01
1.441160222502392285e-01 3.481364541659652190e+01
1.451565711469046116e-01 3.693470507977814066e+01
1.461971200435699947e-01 4.036519817198802684e+01
1.472376689402353778e-01 4.461126719917430705e+01
1.482782178369007609e-01 4.531505270317961021e+01
1.493187667335661439e-01 4.208476304576015536e+01
1.503593156302315270e-01 3.804780078247697617e+01
1.513998645268969101e-01 3.519890727224094462e+01
1.524404134235622932e-01 3.402620479761368699e+01
1.534809623202276763e-01 3.331886449680327189e+01
1.545215112168930593e-01 3.379978100471356584e+01
1.555620601135584424e-01 3.465734521475812357e+01
1.566026090102238255e-01 3.448973081074232994e+01
1.576431579068892086e-01 3.297559105638290333e+01
1.586837068035545917e-01 3.091766420512475122e+01
1.597242557002199748e-01 2.881890786966110696e+01
1.607648045968853578e-01 2.720213182803055574e+01
1.618053534935507409e-01 2.686369244748091489e+01
1.628459023902161240e-01 2.640254883776506034e+01
1.638864512868815071e-01 2.562929719911563353e+01
1.649270001835468902e-01 2.468824892669157833e+01
1.659675490802122733e-01 2.396855082363399703e+01
1.670080979768776563e-01 2.370940092287715117e+01
1.680486468735430672e-01 2.346525917944344997e+01
1.690891957702084503e-01 2.283774583440923323e+01
1.701297446668738333e-01 2.295802328642105650e+01
1.711702935635392164e-01 2.222536257493029055e+01
1.722108424602045995e-01 2.203685936553862490e+01
1.732513913568699826e-01 2.182611554181406532e+01
1.742919402535353657e-01 2.117647983723202643e+01
1.753324891502007488e-01 2.092780270803714160e+01
1.763730380468661318e-01 2.234434280608236989e+01
1.774135869435315149e-01 2.412695063960939024e+01
1.784541358401968980e-01 2.587525083967889827e+01
1.794946847368622811e-01 2.592887299264569023e+01
1.805352336335276642e-01 2.436571578677429883e+01
1.815757825301930473e-01 2.239214863938444822e+01
1.826163314268584303e-01 1.977216638992565123e+01
1.836568803235238134e-01 1.815810611710486455e+01
1.846974292201891965e-01 1.711124794131421112e+01
1.857379781168545796e-01 1.616144420229450773e+01
1.867785270135199627e-01 1.507471379291953539e+01
1.878190759101853458e-01 1.495728475456739659e+01
1.888596248068507288e-01 1.505693080198344802e+01
1.899001737035161119e-01 1.498369734120353414e+01
1.909407226001814950e-01 1.520911337982549583e+01
1.919812714968468781e-01 1.471888927222380516e+01
1.930218203935122612e-01 1.371115470117273816e+01
1.940623692901776443e-01 1.299685779280141773e+01
1.951029181868430273e-01 1.277644955566849561e+01
1.961434670835084104e-01 1.252910863555323218e+01
1.971840159801737935e-01 1.249920504951890621e+01
1.982245648768391766e-01 1.256951268089521179e+01
1.992651137735045597e-01 1.293898038947900631e+01
2.003056626701699428e-01 1.226002470493590835e+01
2.013462115668353813e-01 1.116537462561115390e+01
2.023867604635007644e-01 9.870544923666187742e+00
2.034273093601661475e-01 9.336790636532718679e+00
2.044678582568315306e-01 8.960937866294738541e+00
2.055084071534969137e-01 8.560943966458591348e+00
2.065489560501622968e-01 8.564496002576539979e+00
2.075895049468276798e-01 8.087471492319355804e+00
2.086300538434930629e-01 8.040126936995115159e+00
2.096706027401584460e-01 7.722370219668949431e+00
2.107111516368238291e-01 7.641185130901398281e+00
2.117517005334892122e-01 7.607402090175124698e+00
2.127922494301545953e-01 7.510667210051384046e+00
2.138327983268199783e-01 7.492435934090860172e+00
2.148733472234853614e-01 7.080156727820845930e+00
2.159138961201507445e-01 6.864055946063658098e+00
2.169544450168161276e-01 6.941778893232626757e+00
2.179949939134815107e-01 7.271816286221735481e+00
2.190355428101468938e-01 7.287204169718314972e+00
2.200760917068122768e-01 7.061122736066423045e+00
2.211166406034776599e-01 7.069017691154545702e+00
2.221571895001430430e-01 7.320189606518201941e+00
2.231977383968084261e-01 7.543505447673378939e+00
2.242382872934738092e-01 7.546832128459332267e+00
2.252788361901391923e-01 8.032158953941195279e+00
2.263193850868045753e-01 7.358665148786041499e+00
2.273599339834699584e-01 7.484316976328145188e+00
2.284004828801353415e-01 7.496684657169712551e+00
2.294410317768007246e-01 7.515840402749287108e+00
2.304815806734661077e-01 7.959021274429318282e+00
2.315221295701314908e-01 8.223004527442505207e+00
2.325626784667968738e-01 7.801599482784247641e+00
2.336032273634622569e-01 7.200459430313404852e+00
2.346437762601276400e-01 7.152061299504254066e+00
2.356843251567930231e-01 6.508483099749568623e+00
2.367248740534584062e-01 5.836256418422539838e+00
2.377654229501237892e-01 5.459835268042162681e+00
2.388059718467891723e-01 5.475336044525359824e+00
2.398465207434545554e-01 5.531723618579267310e+00
2.408870696401199385e-01 5.309284122425733443e+00
2.419276185367853216e-01 5.322835499990116404e+00
2.429681674334507047e-01 5.188561908891038854e+00
2.440087163301160877e-01 5.090688339822264652e+00
2.450492652267814708e-01 5.075256367770169419e+00
2.460898141234468539e-01 5.015115401404013795e+00
2.471303630201122370e-01 5.227462176611719968e+00
2.481709119167776201e-01 5.349856760210940365e+00
2.492114608134430032e-01 5.031461264191747773e+00
2.502520097101083585e-01 5.073107783296183726e+00
2.512925586067737416e-01 4.625225501738661649e+00
2.523331075034391247e-01 4.415475000979085962e+00
2.533736564001045077e-01 4.140115116957836960e+00
2.544142052967698908e-01 4.223129663330389860e+00
2.554547541934352739e-01 4.301443768256262956e+00
2.564953030901006570e-01 4.040933438998642657e+00
2.575358519867660401e-01 4.070539250932469599e+00
2.585764008834314231e-01 3.823349536604688126e+00
2.596169497800968062e-01 3.551725595263341972e+00
2.606574986767621893e-01 3.645909121423002830e+00
2.616980475734275724e-01 3.794359842733296517e+00
2.627385964700929555e-01 3.645469563678091163e+00
2.637791453667583386e-01 3.508221259571133288e+00
2.648196942634237216e-01 3.437715048796878392e+00
2.658602431600891047e-01 3.585501094779658615e+00
2.669007920567544878e-01 3.676437109087370203e+00
2.679413409534198709e-01 3.366452986702881844e+00
2.689818898500852540e-01 3.272385723642329936e+00
2.700224387467506371e-01 3.378266794508213877e+00
2.710629876434160201e-01 3.571690256585025480e+00
2.721035365400814032e-01 3.475290757739998071e+00
2.731440854367467863e-01 3.568625424743320451e+00
2.741846343334121694e-01 3.777232096724450372e+00
2.752251832300775525e-01 3.884145236609271024e+00
2.762657321267429356e-01 3.917767739471347710e+00
2.773062810234083186e-01 4.007226612257472453e+00
2.783468299200737017e-01 3.821255031004714198e+00
2.793873788167390848e-01 3.490474943689221732e+00
2.804279277134044679e-01 3.385231876551536345e+00
2.814684766100698510e-01 3.325083369561134816e+00
2.825090255067352341e-01 3.513582613686640599e+00
2.835495744034006171e-01 3.503177103172177453e+00
2.845901233000660002e-01 3.341840117904897767e+00
2.856306721967313833e-01 3.302192335532133427e+00
2.866712210933967664e-01 3.228108705427057856e+00
2.877117699900621495e-01 3.346276489189772718e+00
2.887523188867275326e-01 3.482678059076953048e+00
2.897928677833929156e-01 3.463648453617530265e+00
2.908334166800582987e-01 3.125186206169637160e+00
2.918739655767236818e-01 2.939763223177660478e+00
2.929145144733890649e-01 3.052249136747253289e+00
2.939550633700544480e-01 3.252165764153275518e+00
2.949956122667198311e-01 3.009361316439459699e+00
2.960361611633852141e-01 2.843824661466587855e+00
2.970767100600505972e-01 2.946745676021844673e+00
2.981172589567159803e-01 2.953337028321925573e+00
2.991578078533813634e-01 2.900890503010650434e+00
3.001983567500468020e-01 2.943031037444900022e+00
3.012389056467121851e-01 2.840907130072885423e+00
3.022794545433775681e-01 2.853911421432567153e+00
3.033200034400429512e-01 2.475657851937530296e+00
3.043605523367083343e-01 2.559471558836829530e+00
3.054011012333737174e-01 2.667799889521628387e+00
3.064416501300391005e-01 2.509068789496346596e+00
3.074821990267044836e-01 2.679416703074412709e+00
3.085227479233698666e-01 2.602176101600175429e+00
3.095632968200352497e-01 2.254761218706779147e+00
3.106038457167006328e-01 2.479057247420772825e+00
3.116443946133660159e-01 2.348978552961099808e+00
3.126849435100313990e-01 2.343255267177681844e+00
3.137254924066967821e-01 2.539063916237704888e+00
3.147660413033621651e-01 2.403579975496548116e+00
3.158065902000275482e-01 2.232568998543975169e+00
3.168471390966929313e-01 2.307523465757270742e+00
3.178876879933583144e-01 2.176103095681121147e+00
3.189282368900236975e-01 2.246466986689842571e+00
3.199687857866890806e-01 2.208399324664018337e+00
3.210093346833544636e-01 2.177247048931214124e+00
3.220498835800198467e-01 2.331857740846693616e+00
3.230904324766852298e-01 2.404286843974617227e+00
3.241309813733506129e-01 2.503623465083339994e+00
3.251715302700159960e-01 2.683564840420977760e+00
3.262120791666813790e-01 2.547618444010986138e+00
3.272526280633467621e-01 2.362775847213981706e+00
3.282931769600121452e-01 2.289127178266721074e+00
3.293337258566775283e-01 2.141282949933628998e+00
3.303742747533429114e-01 2.349344328066504062e+00
3.314148236500082945e-01 2.417704075057425683e+00
3.324553725466736775e-01 2.304501061252128835e+00
3.334959214433390606e-01 2.234329277070838060e+00
3.345364703400044437e-01 2.213278085347337054e+00
3.355770192366698268e-01 2.248542313673002724e+00
3.366175681333352099e-01 2.020294695974293120e+00
3.376581170300005930e-01 1.996755201009701608e+00
3.386986659266659760e-01 2.232695199642428463e+00
3.397392148233313591e-01 2.203892227475389376e+00
3.407797637199967422e-01 2.014448871114268513e+00
3.418203126166621253e-01 2.067021214577053456e+00
3.428608615133275084e-01 2.044653839337435386e+00
3.439014104099928915e-01 2.122582165985480884e+00
3.449419593066582745e-01 1.904516180775484457e+00
3.459825082033236576e-01 2.085612522927007717e+00
3.470230570999890407e-01 2.231415380888080335e+00
3.480636059966544238e-01 2.285129812174897523e+00
3.491041548933198069e-01 2.080936423363404231e+00
3.501447037899851900e-01 1.959477168644124134e+00
3.511852526866505730e-01 1.865863132729529639e+00
3.522258015833159561e-01 1.693281388585315739e+00
3.532663504799813392e-01 1.797579419189052174e+00
3.543068993766467223e-01 1.810904989878817872e+00
3.553474482733121054e-01 1.848635802116628923e+00
3.563879971699774885e-01 1.916728954889098446e+00
3.574285460666428715e-01 1.843151117596196542e+00
3.584690949633082546e-01 1.854096352755785659e+00
3.595096438599736377e-01 1.769635405190712163e+00
3.605501927566390208e-01 1.674419549704296628e+00
3.615907416533044039e-01 1.787892484347889166e+00
3.626312905499697870e-01 1.681379146898244414e+00
3.636718394466351700e-01 1.662256013847876801e+00
3.647123883433005531e-01 1.627511305188047430e+00
3.657529372399659362e-01 1.504064649340065785e+00
3.667934861366313193e-01 1.561821655338686554e+00
3.678340350332967024e-01 1.732633938631195747e+00
3.688745839299620854e-01 1.684882275347380443e+00
3.699151328266274685e-01 1.711680786430129331e+00
3.709556817232928516e-01 1.522471075006055941e+00
3.719962306199582347e-01 1.465517399132096443e+00
3.730367795166236178e-01 1.703424681278498554e+00
3.740773284132890009e-01 1.571775057784002172e+00
3.751178773099543839e-01 1.508066112053718655e+00
3.761584262066197670e-01 1.465874369860639348e+00
3.771989751032851501e-01 1.773427693092173740e+00
3.782395239999505332e-01 1.817981460099240110e+00
3.792800728966159163e-01 1.704137981677597224e+00
3.803206217932812994e-01 1.735348723650737668e+00
3.813611706899466824e-01 1.794257377933266895e+00
3.824017195866120655e-01 1.643958991698120542e+00
3.834422684832774486e-01 1.716391916709188337e+00
3.844828173799428317e-01 1.754440380831155721e+00
3.855233662766082148e-01 1.865535228629273234e+00
3.865639151732735979e-01 1.886550148037905217e+00
3.876044640699389809e-01 1.733573009942677601e+00
3.886450129666043640e-01 1.768447270600233878e+00
3.896855618632697471e-01 1.632916390276026419e+00
3.907261107599351302e-01 1.614165838639976869e+00
3.917666596566005133e-01 1.670078886845871580e+00
3.928072085532658964e-01 1.676543600755270091e+00
3.938477574499312794e-01 1.625517963119595066e+00
3.948883063465966625e-01 1.522132486084725400e+00
3.959288552432620456e-01 1.311792632431085792e+00
3.969694041399274287e-01 1.165203163219175053e+00
3.980099530365928118e-01 1.378046215899317417e+00
3.990505019332581949e-01 1.389283764930720366e+00
4.000910508299235779e-01 1.412710606093664722e+00
4.011315997265889610e-01 1.311279105924057831e+00
4.021721486232543441e-01 1.329618428628730697e+00
4.032126975199197272e-01 1.399048835912157784e+00
4.042532464165851103e-01 1.360513129907811702e+00
4.052937953132504934e-01 1.376214630488316715e+00
4.063343442099158764e-01 1.450895501350714767e+00
4.073748931065812595e-01 1.417064627903236840e+00
4.084154420032466426e-01 1.226889155938366116e+00
4.094559908999120257e-01 1.097635015035738348e+00
4.104965397965774088e-01 1.041767192115162999e+00
4.115370886932427918e-01 8.928858454308681303e-01
4.125776375899081749e-01 1.005671673004833622e+00
4.136181864865735580e-01 1.139917365470555666e+00
4.146587353832389411e-01 1.050658231682309207e+00
4.156992842799043242e-01 1.128936320863832776e+00
4.167398331765697073e-01 1.200566869554990035e+00
4.177803820732350903e-01 1.332847985572406913e+00
4.188209309699004734e-01 1.172406604246326367e+00
4.198614798665658565e-01 1.270401530458102002e+00
4.209020287632312396e-01 1.344255417781180739e+00
4.219425776598966227e-01 1.282658798581763904e+00
4.229831265565620058e-01 1.315237242260053563e+00
4.240236754532273888e-01 1.201841455958494009e+00
4.250642243498927719e-01 1.114499335386064161e+00
4.261047732465581550e-01 1.041158151387584496e+00
4.271453221432235381e-01 1.323266388698868923e+00
4.281858710398889212e-01 1.304390315857304472e+00
4.292264199365543043e-01 1.212566064134087185e+00
4.302669688332196873e-01 1.263661295675230889e+00
4.313075177298850704e-01 1.194906515584595041e+00
4.323480666265504535e-01 1.112233015161137928e+00
4.333886155232158366e-01 1.208106289050512316e+00
4.344291644198812197e-01 1.286887465123985663e+00
