# q (1/Angstrom), Intensity (arb)
2.029070354705860696e-02 9.288801281355997617e+02
2.133125244372399004e-02 8.264326129107770385e+02
2.237180134038937659e-02 7.477473474358063186e+02
2.341235023705475968e-02 6.821371924355639749e+02
2.445289913372014276e-02 6.259778256304296065e+02
2.549344803038552584e-02 5.838757609591511937e+02
2.653399692705091240e-02 5.480529401770426148e+02
2.757454582371629548e-02 5.142225676342939096e+02
2.861509472038167856e-02 4.892684608446068637e+02
2.965564361704706164e-02 4.696382702020279680e+02
3.069619251371244473e-02 4.542765758638759053e+02
3.173674141037782781e-02 4.448791701082698182e+02
3.277729030704321089e-02 4.336267435744127283e+02
3.381783920370859398e-02 4.246919550627920898e+02
3.485838810037397706e-02 4.242226202707580001e+02
3.589893699703936014e-02 4.242042023233947248e+02
3.693948589370474322e-02 4.236907844038209419e+02
3.798003479037012631e-02 4.268854303697028740e+02
3.902058368703550939e-02 4.338993127296094485e+02
4.006113258370089247e-02 4.458175114267352797e+02
4.110168148036627556e-02 4.608719000708845783e+02
4.214223037703165864e-02 4.825646629723185583e+02
4.318277927369704866e-02 5.153875720328854868e+02
4.422332817036243174e-02 5.566230758328258617e+02
4.526387706702781483e-02 6.166549024638700303e+02
4.630442596369319791e-02 7.237524483346812758e+02
4.734497486035858099e-02 9.240229572090705688e+02
4.838552375702396408e-02 1.333126858417670292e+03
4.942607265368934716e-02 2.031548310201041659e+03
5.046662155035473024e-02 3.155948149511198153e+03
5.150717044702011332e-02 4.764415070200638183e+03
5.254771934368549641e-02 5.377306285424136149e+03
5.358826824035087949e-02 4.384891842758648636e+03
5.462881713701626257e-02 3.526886770607525705e+03
5.566936603368164566e-02 3.363374877195369208e+03
5.670991493034702874e-02 3.463881056756022645e+03
5.775046382701241182e-02 3.614965852114979043e+03
5.879101272367779490e-02 3.743390010999469723e+03
5.983156162034317799e-02 3.757317153530088490e+03
6.087211051700856107e-02 3.586161638707509155e+03
6.191265941367394415e-02 3.301468064619914912e+03
6.295320831033933417e-02 2.994843311425480351e+03
6.399375720700471726e-02 2.688965540107339166e+03
6.503430610367010034e-02 2.381440774748828517e+03
6.607485500033548342e-02 2.077179231634626376e+03
6.711540389700086651e-02 1.787156978913934836e+03
6.815595279366624959e-02 1.513573902751192463e+03
6.919650169033163267e-02 1.268744993439591326e+03
7.023705058699701576e-02 1.050717018048740783e+03
7.127759948366239884e-02 8.697714478247326042e+02
7.231814838032778192e-02 7.211833098464065870e+02
7.335869727699316500e-02 5.973656184688627491e+02
7.439924617365854809e-02 4.969173548750876535e+02
7.543979507032393117e-02 4.118464578954274771e+02
7.648034396698931425e-02 3.462495401855987893e+02
7.752089286365469734e-02 2.952212256976835647e+02
7.856144176032008042e-02 2.546979851725177184e+02
7.960199065698546350e-02 2.241326095264898299e+02
8.064253955365084658e-02 2.035438788263309391e+02
8.168308845031622967e-02 1.961259170567998353e+02
8.272363734698161275e-02 2.135151756336711060e+02
8.376418624364699583e-02 2.752005044596915582e+02
8.480473514031239279e-02 3.556323622017398520e+02
8.584528403697777588e-02 3.552263798197693063e+02
8.688583293364315896e-02 2.698976198891206764e+02
8.792638183030854204e-02 2.033154862954514215e+02
8.896693072697392513e-02 1.765080888746278731e+02
9.000747962363930821e-02 1.676069240147094206e+02
9.104802852030469129e-02 1.663326932376778586e+02
9.208857741697007437e-02 1.705188046573908025e+02
9.312912631363545746e-02 1.751589434052346519e+02
9.416967521030084054e-02 1.817087051569185121e+02
9.521022410696622362e-02 1.922629100077172097e+02
9.625077300363160671e-02 2.105517126402408223e+02
9.729132190029698979e-02 2.475290104319706188e+02
9.833187079696237287e-02 3.169276499221756467e+02
9.937241969362775595e-02 3.965557857960488377e+02
1.004129685902931390e-01 4.048413614062706074e+02
1.014535174869585221e-01 3.336456646629109173e+02
1.024940663836239052e-01 2.711914642116622076e+02
1.035346152802892883e-01 2.488100328232939376e+02
1.045751641769546714e-01 2.348395856219081281e+02
1.056157130736200545e-01 2.148912735132431351e+02
1.066562619702854375e-01 1.988186094529048944e+02
1.076968108669508206e-01 1.926422433888066053e+02
1.087373597636162037e-01 1.921008467312905168e+02
1.097779086602815868e-01 1.929006355995738886e+02
1.108184575569469699e-01 1.928090494717313561e+02
1.118590064536123529e-01 1.924061707362673701e+02
1.128995553502777360e-01 1.913355751253280630e+02
1.139401042469431191e-01 1.878244534447526917e+02
1.149806531436085022e-01 1.826731707157249787e+02
1.160212020402738853e-01 1.756948254727887786e+02
1.170617509369392684e-01 1.677458478483490580e+02
1.181022998336046514e-01 1.587092003382762471e+02
1.191428487302700345e-01 1.490451815104514708e+02
1.201833976269354176e-01 1.386839205554759928e+02
1.212239465236008007e-01 1.289248660337266301e+02
1.222644954202661838e-01 1.178113675401371268e+02
1.233050443169315669e-01 1.080347047004218410e+02
1.243455932135969499e-01 9.970100991057233841e+01
1.253861421102623330e-01 9.150500213929200299e+01
1.264266910069277161e-01 8.445853970073925154e+01
1.274672399035930992e-01 7.842353255202645812e+01
1.285077888002584823e-01 7.500752232134783526e+01
1.295483376969238654e-01 7.594759463056396953e+01
1.305888865935892484e-01 7.991427558278635956e+01
1.316294354902546315e-01 8.258897500277156212e+01
1.326699843869200146e-01 8.365151677266598540e+01
1.337105332835853977e-01 8.407792522137573599e+01
1.347510821802507808e-01 8.178927444590223672e+01
1.357916310769161639e-01 6.998430513904983741e+01
1.368321799735815469e-01 5.475340484926801565e+01
1.378727288702469300e-01 4.463407921225991970e+01
1.389132777669123131e-01 3.954817661569594378e+01
1.399538266635776962e-01 3.650607178880706272e+01
1.409943755602430793e-01 3.473415962165238113e+01
1.420349244569084624e-01 3.425770671320737648e+01
1.430754733535738454e-01 3.430766454539733701e+01
1.441160222502392285e-01 3.499589397909966237e+01
1.451565711469046116e-01 3.737019954332785687e+01
1.461971200435699947e-01 4.155783926430919450e+01
1.472376689402353778e-01 4.524301979841922616e+01
1.482782178369007609e-01 4.471131592599844140e+01
1.493187667335661439e-01 4.091822329484160292e+01
1.503593156302315270e-01 3.726397010148426148e+01
1.513998645268969101e-01 3.470983916628134125e+01
1.524404134235622932e-01 3.373675873728228680e+01
1.534809623202276763e-01 3.334866947800914261e+01
1.545215112168930593e-01 3.398979791319545285e+01
1.555620601135584424e-01 3.458711744437695756e+01
1.566026090102238255e-01 3.464627371879524276e+01
1.576431579068892086e-01 3.247451330559668747e+01
1.586837068035545917e-01 2.985889108445062590e+01
1.597242557002199748e-01 2.816978700151290838e+01
1.607648045968853578e-01 2.708212757989946695e+01
1.618053534935507409e-01 2.613012403881169377e+01
1.628459023902161240e-01 2.502819199342244261e+01
1.638864512868815071e-01 2.498086874883003006e+01
1.649270001835468902e-01 2.475422588764791954e+01
1.659675490802122733e-01 2.424606293520119848e+01
1.670080979768776563e-01 2.330214385198919658e+01
1.680486468735430672e-01 2.254117882892572311e+01
1.690891957702084503e-01 2.237194961956889827e+01
1.701297446668738333e-01 2.267376079441542913e+01
1.711702935635392164e-01 2.194152045767683745e+01
1.722108424602045995e-01 2.152868645094088862e+01
1.732513913568699826e-01 2.104394084903429984e+01
1.742919402535353657e-01 2.108179217856786636e+01
1.753324891502007488e-01 2.136875148622753429e+01
1.763730380468661318e-01 2.263733626072723837e+01
1.774135869435315149e-01 2.404086767409430436e+01
1.784541358401968980e-01 2.527830557653497223e+01
1.794946847368622811e-01 2.541533027542055478e+01
1.805352336335276642e-01 2.394354499825413285e+01
1.815757825301930473e-01 2.176576066503124807e+01
1.826163314268584303e-01 1.962790315120789231e+01
1.836568803235238134e-01 1.781783175200778402e+01
1.846974292201891965e-01 1.635089365248364146e+01
1.857379781168545796e-01 1.554381337280936037e+01
1.867785270135199627e-01 1.518214968245792207e+01
1.878190759101853458e-01 1.513725128268431064e+01
1.888596248068507288e-01 1.512276817074882374e+01
1.899001737035161119e-01 1.470696266277960618e+01
1.909407226001814950e-01 1.449948211311462387e+01
1.919812714968468781e-01 1.431221475678150412e+01
1.930218203935122612e-01 1.376222949053886779e+01
1.940623692901776443e-01 1.285633747282861705e+01
1.951029181868430273e-01 1.255684335276966479e+01
1.961434670835084104e-01 1.271012725904045837e+01
1.971840159801737935e-01 1.319793954136697778e+01
1.982245648768391766e-01 1.306400584015431932e+01
1.992651137735045597e-01 1.258266456912965836e+01
2.003056626701699428e-01 1.202358868401862679e+01
2.013462115668353813e-01 1.096878395485106239e+01
2.023867604635007644e-01 9.908746525140426087e+00
2.034273093601661475e-01 9.289279512879684120e+00
2.044678582568315306e-01 8.409196834273714671e+00
2.055084071534969137e-01 7.774561823253787196e+00
2.065489560501622968e-01 7.708088235977662350e+00
2.075895049468276798e-01 8.037687711579195593e+00
2.086300538434930629e-01 7.884691812822840262e+00
2.096706027401584460e-01 7.655310970939556370e+00
2.107111516368238291e-01 7.539753860122150542e+00
2.117517005334892122e-01 7.536108976122537939e+00
2.127922494301545953e-01 7.337205875754687412e+00
2.138327983268199783e-01 7.391860148007125986e+00
2.148733472234853614e-01 7.203580211808013445e+00
2.159138961201507445e-01 6.975227658255878538e+00
2.169544450168161276e-01 7.136168089486282895e+00
2.179949939134815107e-01 7.024930744089235901e+00
2.190355428101468938e-01 7.036827609009868922e+00
2.200760917068122768e-01 6.871148488935077125e+00
2.211166406034776599e-01 6.779933704219544666e+00
2.221571895001430430e-01 7.075955328476897677e+00
2.231977383968084261e-01 7.361486106141892805e+00
2.242382872934738092e-01 7.427576879366835527e+00
2.252788361901391923e-01 7.763732517675471456e+00
2.263193850868045753e-01 7.771940988762572999e+00
2.273599339834699584e-01 7.755360369244286289e+00
2.284004828801353415e-01 7.938888139546076417e+00
2.294410317768007246e-01 7.720959362075255683e+00
2.304815806734661077e-01 7.900776609553709307e+00
2.315221295701314908e-01 7.729435741546598848e+00
2.325626784667968738e-01 7.341987212531996931e+00
2.336032273634622569e-01 6.955431177375245966e+00
2.346437762601276400e-01 6.264959396167117944e+00
2.356843251567930231e-01 5.893024440191275914e+00
2.367248740534584062e-01 6.044158452205305565e+00
2.377654229501237892e-01 5.939820174737636904e+00
2.388059718467891723e-01 5.614715030355341696e+00
2.398465207434545554e-01 5.533171238035585304e+00
2.408870696401199385e-01 5.289851292969224517e+00
2.419276185367853216e-01 4.991810099574220061e+00
2.429681674334507047e-01 5.048126812601754665e+00
2.440087163301160877e-01 5.139993427213621402e+00
2.450492652267814708e-01 5.142634976394070634e+00
2.460898141234468539e-01 5.381506653937673690e+00
2.471303630201122370e-01 5.330272174451447853e+00
2.481709119167776201e-01 5.231822573598268633e+00
2.492114608134430032e-01 5.163843777342712826e+00
2.502520097101083585e-01 5.141170563738523214e+00
2.512925586067737416e-01 4.699398552178394084e+00
2.523331075034391247e-01 4.349859078838335336e+00
2.533736564001045077e-01 4.362797459140171696e+00
2.544142052967698908e-01 4.203140350160410321e+00
2.554547541934352739e-01 3.993250473648071619e+00
2.564953030901006570e-01 3.810515816700245750e+00
2.575358519867660401e-01 3.767947656326672501e+00
2.585764008834314231e-01 3.570425428494385045e+00
2.596169497800968062e-01 3.427366474197476975e+00
2.606574986767621893e-01 3.216840451572593906e+00
2.616980475734275724e-01 3.497705547413794136e+00
2.627385964700929555e-01 3.399954519251917162e+00
2.637791453667583386e-01 3.532621489014019289e+00
2.648196942634237216e-01 3.547771706434996730e+00
2.658602431600891047e-01 3.277515800479235963e+00
2.669007920567544878e-01 3.137594004832745753e+00
2.679413409534198709e-01 3.183714123619878933e+00
2.689818898500852540e-01 3.402852687418448596e+00
2.700224387467506371e-01 3.496300427346135109e+00
2.710629876434160201e-01 3.571574633877478533e+00
2.721035365400814032e-01 3.578564786288826127e+00
2.731440854367467863e-01 3.555396131867702536e+00
2.741846343334121694e-01 3.728785882169166399e+00
2.752251832300775525e-01 3.719152436498948333e+00
2.762657321267429356e-01 3.665087818159090460e+00
2.773062810234083186e-01 3.509659544566961387e+00
2.783468299200737017e-01 3.558440345964665852e+00
2.793873788167390848e-01 3.428638193741068818e+00
2.804279277134044679e-01 3.319151117826951491e+00
2.814684766100698510e-01 3.368783580236168973e+00
2.825090255067352341e-01 3.675164069050310900e+00
2.835495744034006171e-01 3.583190677025903881e+00
2.845901233000660002e-01 3.333224189452131725e+00
2.856306721967313833e-01 3.158527072984362860e+00
2.866712210933967664e-01 3.230003022968119808e+00
2.877117699900621495e-01 3.144066693566568205e+00
2.887523188867275326e-01 3.163034562689766460e+00
2.897928677833929156e-01 2.923690324691200715e+00
2.908334166800582987e-01 2.943767569687160801e+00
2.918739655767236818e-01 3.022705584768445419e+00
2.929145144733890649e-01 3.117883498150398225e+00
2.939550633700544480e-01 3.180270586266036759e+00
2.949956122667198311e-01 3.236173294877335849e+00
2.960361611633852141e-01 3.240289415555210439e+00
2.970767100600505972e-01 3.075852650228455332e+00
2.981172589567159803e-01 2.914527364343364013e+00
2.991578078533813634e-01 3.034169499001301062e+00
3.001983567500468020e-01 2.705212409564602183e+00
3.012389056467121851e-01 2.645271565590341822e+00
3.022794545433775681e-01 2.664721109888059658e+00
3.033200034400429512e-01 2.571976262064151086e+00
3.043605523367083343e-01 2.592732475787592250e+00
3.054011012333737174e-01 2.566335699734903386e+00
3.064416501300391005e-01 2.539576533775303346e+00
3.074821990267044836e-01 2.222622119836614729e+00
3.085227479233698666e-01 2.167840155879954267e+00
3.095632968200352497e-01 2.411948029765820678e+00
3.106038457167006328e-01 2.464216861834522376e+00
3.116443946133660159e-01 2.392952956202414327e+00
3.126849435100313990e-01 2.480441002654714566e+00
3.137254924066967821e-01 2.604690960767197083e+00
3.147660413033621651e-01 2.390658195108823492e+00
3.158065902000275482e-01 2.522882526483371635e+00
3.168471390966929313e-01 2.447382109976047104e+00
3.178876879933583144e-01 2.318343040862082205e+00
3.189282368900236975e-01 2.075079804011274121e+00
3.199687857866890806e-01 2.284288627044102071e+00
3.210093346833544636e-01 2.328234011567904105e+00
3.220498835800198467e-01 2.251567738026469812e+00
3.230904324766852298e-01 2.501136174606141793e+00
3.241309813733506129e-01 2.427563764491551979e+00
3.251715302700159960e-01 2.417908483276839604e+00
3.262120791666813790e-01 2.232328492214961102e+00
3.272526280633467621e-01 2.205408032361170001e+00
3.282931769600121452e-01 2.339052969581512542e+00
3.293337258566775283e-01 2.220523128791899836e+00
3.303742747533429114e-01 2.403055046612294632e+00
3.314148236500082945e-01 2.356291681383368086e+00
3.324553725466736775e-01 2.173426607363914798e+00
3.334959214433390606e-01 2.185624226668505088e+00
3.345364703400044437e-01 2.190166299559315632e+00
3.355770192366698268e-01 2.168667063916291937e+00
3.366175681333352099e-01 2.024194363502086702e+00
3.376581170300005930e-01 2.073562852535577150e+00
3.386986659266659760e-01 2.157251838000778577e+00
3.397392148233313591e-01 2.057102651127948434e+00
3.407797637199967422e-01 2.181880459416969842e+00
3.418203126166621253e-01 2.160282976047824377e+00
3.428608615133275084e-01 2.121750211553059984e+00
3.439014104099928915e-01 2.062926902095973958e+00
3.449419593066582745e-01 2.090316466740073764e+00
3.459825082033236576e-01 2.415062988706186076e+00
3.470230570999890407e-01 2.283353488202827464e+00
3.480636059966544238e-01 2.026864055441812695e+00
3.491041548933198069e-01 1.874563311989014380e+00
3.501447037899851900e-01 1.790728084765852657e+00
3.511852526866505730e-01 1.851873930363296950e+00
3.522258015833159561e-01 1.763989421975718841e+00
3.532663504799813392e-01 1.683587748392099570e+00
3.543068993766467223e-01 1.736261276393936015e+00
3.553474482733121054e-01 1.665814168629356828e+00
3.563879971699774885e-01 1.736328260172300020e+00
3.574285460666428715e-01 1.696444455429510612e+00
3.584690949633082546e-01 1.704844740063865771e+00
3.595096438599736377e-01 1.759642980191891581e+00
3.605501927566390208e-01 1.724184684219213892e+00
3.615907416533044039e-01 1.598092499551285073e+00
3.626312905499697870e-01 1.724445623915848103e+00
3.636718394466351700e-01 1.741801901256973650e+00
3.647123883433005531e-01 1.897424443022583063e+00
3.657529372399659362e-01 1.644838807009506354e+00
3.667934861366313193e-01 1.645053481109481908e+00
3.678340350332967024e-01 1.549617211474341616e+00
3.688745839299620854e-01 1.747381234900014846e+00
3.699151328266274685e-01 1.738427618114769757e+00
3.709556817232928516e-01 1.766452997355543175e+00
3.719962306199582347e-01 1.704453597194373060e+00
3.730367795166236178e-01 1.824657135301201549e+00
3.740773284132890009e-01 1.629107070926409051e+00
3.751178773099543839e-01 1.678524688855397073e+00
3.761584262066197670e-01 1.668311634413665701e+00
3.771989751032851501e-01 1.474171401543554083e+00
3.782395239999505332e-01 1.447993916022664251e+00
3.792800728966159163e-01 1.533163913433178038e+00
3.803206217932812994e-01 1.698775881364483098e+00
3.813611706899466824e-01 1.830498535351473777e+00
3.824017195866120655e-01 1.849983837561161693e+00
3.834422684832774486e-01 1.769175671718873133e+00
3.844828173799428317e-01 1.767803384495486796e+00
3.855233662766082148e-01 1.728401159574445956e+00
3.865639151732735979e-01 1.616157654933754628e+00
3.876044640699389809e-01 1.533008483150169354e+00
3.886450129666043640e-01 1.531241155967144607e+00
3.896855618632697471e-01 1.590525185656492368e+00
3.907261107599351302e-01 1.450070453128621040e+00
3.917666596566005133e-01 1.641124765427488086e+00
3.928072085532658964e-01 1.516381431902551924e+00
3.938477574499312794e-01 1.479468723989754153e+00
3.948883063465966625e-01 1.413448934671816204e+00
3.959288552432620456e-01 1.462145952975124175e+00
3.969694041399274287e-01 1.448081822832268273e+00
3.980099530365928118e-01 1.449982645723814301e+00
3.990505019332581949e-01 1.307850762354149765e+00
4.000910508299235779e-01 1.378348378872757962e+00
4.011315997265889610e-01 1.502759157586449845e+00
4.021721486232543441e-01 1.416578390996775738e+00
4.032126975199197272e-01 1.253962918667653526e+00
4.042532464165851103e-01 1.263373357916155015e+00
4.052937953132504934e-01 1.198762805526396136e+00
4.063343442099158764e-01 1.247527513278281930e+00
4.073748931065812595e-01 1.242032211771213923e+00
4.084154420032466426e-01 1.340186950079939265e+00
4.094559908999120257e-01 1.201705591150581398e+00
4.104965397965774088e-01 1.280444844061602083e+00
4.115370886932427918e-01 1.298678631688240159e+00
4.125776375899081749e-01 1.144470846513065965e+00
4.136181864865735580e-01 1.131551567045988804e+00
4.146587353832389411e-01 1.133296286623203031e+00
4.156992842799043242e-01 1.062977349070340694e+00
4.167398331765697073e-01 9.981069243373958955e-01
4.177803820732350903e-01 1.117600822949558648e+00
4.188209309699004734e-01 1.336468036941070636e+00
4.198614798665658565e-01 1.214188989642487115e+00
4.209020287632312396e-01 1.126731714758097525e+00
4.219425776598966227e-01 1.218896852108112938e+00
4.229831265565620058e-01 1.083993372900923902e+00
4.240236754532273888e-01 9.390368896222973660e-01
4.250642243498927719e-01 1.010143061361592487e+00
4.261047732465581550e-01 9.922099501366012930e-01
4.271453221432235381e-01 1.129771978806228816e+00
4.281858710398889212e-01 1.027913463310746067e+00
4.292264199365543043e-01 9.031406372919974501e-01
4.302669688332196873e-01 1.079755867999615759e+00
4.313075177298850704e-01 9.614763408715027992e-01
4.323480666265504535e-01 9.840267082562021983e-01
4.333886155232158366e-01 1.009155251048227342e+00
4.344291644198812197e-01 1.117732821231296469e+00
