# q (1/Angstrom), Intensity (arb)
2.029070354705860696e-02 9.351822215969294803e+02
2.133125244372399004e-02 8.285594264360090619e+02
2.237180134038937659e-02 7.410413770127273665e+02
2.341235023705475968e-02 6.751972328460476547e+02
2.445289913372014276e-02 6.230866606638901430e+02
2.549344803038552584e-02 5.781763291690972437e+02
2.653399692705091240e-02 5.412739596250241902e+02
2.757454582371629548e-02 5.093684991235571715e+02
2.861509472038167856e-02 4.879306081201991105e+02
2.965564361704706164e-02 4.692512590613278007e+02
3.069619251371244473e-02 4.537884220866705505e+02
3.173674141037782781e-02 4.411541229708309970e+02
3.277729030704321089e-02 4.289880528851507506e+02
3.381783920370859398e-02 4.205714916836336670e+02
3.485838810037397706e-02 4.186411986548482105e+02
3.589893699703936014e-02 4.183371440027125914e+02
3.693948589370474322e-02 4.209554980870453846e+02
3.798003479037012631e-02 4.262937200807409113e+02
3.902058368703550939e-02 4.329889649636293711e+02
4.006113258370089247e-02 4.424932436590236193e+02
4.110168148036627556e-02 4.606158025884751055e+02
4.214223037703165864e-02 4.835001937316144449e+02
4.318277927369704866e-02 5.106066018613581150e+02
4.422332817036243174e-02 5.533293251588160047e+02
4.526387706702781483e-02 6.130656089513414599e+02
4.630442596369319791e-02 7.143553127529139601e+02
4.734497486035858099e-02 9.091623500456705642e+02
4.838552375702396408e-02 1.308752735968738534e+03
4.942607265368934716e-02 1.997228236193808698e+03
5.046662155035473024e-02 3.104365325778408078e+03
5.150717044702011332e-02 4.690636630264516498e+03
5.254771934368549641e-02 5.322723977603087405e+03
5.358826824035087949e-02 4.361197062288728375e+03
5.462881713701626257e-02 3.503533963020176998e+03
5.566936603368164566e-02 3.324398009775317860e+03
5.670991493034702874e-02 3.419271384015980857e+03
5.775046382701241182e-02 3.569365249464433873e+03
5.879101272367779490e-02 3.701495589670135359e+03
5.983156162034317799e-02 3.718542273680462586e+03
6.087211051700856107e-02 3.551083999105147086e+03
6.191265941367394415e-02 3.272561471806788177e+03
6.295320831033933417e-02 2.974244504149916793e+03
6.399375720700471726e-02 2.671295443119455740e+03
6.503430610367010034e-02 2.364750837685903207e+03
6.607485500033548342e-02 2.061013066666894247e+03
6.711540389700086651e-02 1.774681601460187494e+03
6.815595279366624959e-02 1.504643903046353671e+03
6.919650169033163267e-02 1.262142021471628141e+03
7.023705058699701576e-02 1.049157065330837440e+03
7.127759948366239884e-02 8.687781775076780377e+02
7.231814838032778192e-02 7.168090928721462660e+02
7.335869727699316500e-02 5.915358436741798869e+02
7.439924617365854809e-02 4.912702480522947326e+02
7.543979507032393117e-02 4.088655052661807758e+02
7.648034396698931425e-02 3.452801553822899336e+02
7.752089286365469734e-02 2.934671003525317587e+02
7.856144176032008042e-02 2.531226150729442281e+02
7.960199065698546350e-02 2.212324788944652880e+02
8.064253955365084658e-02 2.014395893188564060e+02
8.168308845031622967e-02 1.944047028853250367e+02
8.272363734698161275e-02 2.114623568279828305e+02
8.376418624364699583e-02 2.699931044703408816e+02
8.480473514031239279e-02 3.498559489562721296e+02
8.584528403697777588e-02 3.519506985928707650e+02
8.688583293364315896e-02 2.716503598819056720e+02
8.792638183030854204e-02 2.029307920707744302e+02
8.896693072697392513e-02 1.756446680527976696e+02
9.000747962363930821e-02 1.672101392965645061e+02
9.104802852030469129e-02 1.658732769882339255e+02
9.208857741697007437e-02 1.688098465817191993e+02
9.312912631363545746e-02 1.736136032068386612e+02
9.416967521030084054e-02 1.806491120626300244e+02
9.521022410696622362e-02 1.913282835926925429e+02
9.625077300363160671e-02 2.079730512589596856e+02
9.729132190029698979e-02 2.434681866999059991e+02
9.833187079696237287e-02 3.113193239569366710e+02
9.937241969362775595e-02 3.909645879388219214e+02
1.004129685902931390e-01 4.025282155760890532e+02
1.014535174869585221e-01 3.327475272409745912e+02
1.024940663836239052e-01 2.716753541255741311e+02
1.035346152802892883e-01 2.467287966675297071e+02
1.045751641769546714e-01 2.323349516196759623e+02
1.056157130736200545e-01 2.130212160132199415e+02
1.066562619702854375e-01 1.978250135772788951e+02
1.076968108669508206e-01 1.916178233654838436e+02
1.087373597636162037e-01 1.902086715685510683e+02
1.097779086602815868e-01 1.906089173802137111e+02
1.108184575569469699e-01 1.909606655959179591e+02
1.118590064536123529e-01 1.898706879227189006e+02
1.128995553502777360e-01 1.886472431995739214e+02
1.139401042469431191e-01 1.854407672266409293e+02
1.149806531436085022e-01 1.811315408785092131e+02
1.160212020402738853e-01 1.747705607181311223e+02
1.170617509369392684e-01 1.661573935172388587e+02
1.181022998336046514e-01 1.564036648804313074e+02
1.191428487302700345e-01 1.468815609951805072e+02
1.201833976269354176e-01 1.371724336498114383e+02
1.212239465236008007e-01 1.273780732353780678e+02
1.222644954202661838e-01 1.179664882849645977e+02
1.233050443169315669e-01 1.077612850534877964e+02
1.243455932135969499e-01 9.963752839842132403e+01
1.253861421102623330e-01 9.128847678309129776e+01
1.264266910069277161e-01 8.374800675094240887e+01
1.274672399035930992e-01 7.848547003134348188e+01
1.285077888002584823e-01 7.450057446348424151e+01
1.295483376969238654e-01 7.492386194039549707e+01
1.305888865935892484e-01 7.887832089516453493e+01
1.316294354902546315e-01 8.230986533515076076e+01
1.326699843869200146e-01 8.301234851004136317e+01
1.337105332835853977e-01 8.343899162828195415e+01
1.347510821802507808e-01 8.114260801233454856e+01
1.357916310769161639e-01 7.047083642534398962e+01
1.368321799735815469e-01 5.509930527523400201e+01
1.378727288702469300e-01 4.405082907325515862e+01
1.389132777669123131e-01 3.928969365190842922e+01
1.399538266635776962e-01 3.620243123648749872e+01
1.409943755602430793e-01 3.416423609820334661e+01
1.420349244569084624e-01 3.428007510528047419e+01
1.430754733535738454e-01 3.456454415346954079e+01
1.441160222502392285e-01 3.522130774727226310e+01
1.451565711469046116e-01 3.751167270896241490e+01
1.461971200435699947e-01 4.128481563992716019e+01
1.472376689402353778e-01 4.492150378231631436e+01
1.482782178369007609e-01 4.537724950827539772e+01
1.493187667335661439e-01 4.133427605387418424e+01
1.503593156302315270e-01 3.685709152702524705e+01
1.513998645268969101e-01 3.453132222683328223e+01
1.524404134235622932e-01 3.368240100335997766e+01
1.534809623202276763e-01 3.306595261428937249e+01
1.545215112168930593e-01 3.352268524747208289e+01
1.555620601135584424e-01 3.451320700541087660e+01
1.566026090102238255e-01 3.480725100969891628e+01
1.576431579068892086e-01 3.310332715430137540e+01
1.586837068035545917e-01 3.021283304215424792e+01
1.597242557002199748e-01 2.810104052405507247e+01
1.607648045968853578e-01 2.664360826911024560e+01
1.618053534935507409e-01 2.640745151146421676e+01
1.628459023902161240e-01 2.558127842366146965e+01
1.638864512868815071e-01 2.426571233459534938e+01
1.649270001835468902e-01 2.386079903553990178e+01
1.659675490802122733e-01 2.386320781617676445e+01
1.670080979768776563e-01 2.376824532197566953e+01
1.680486468735430672e-01 2.286146936258957396e+01
1.690891957702084503e-01 2.240497859715662088e+01
1.701297446668738333e-01 2.244701070169504575e+01
1.711702935635392164e-01 2.222238312256254744e+01
1.722108424602045995e-01 2.152686231148742735e+01
1.732513913568699826e-01 2.101783349467018880e+01
1.742919402535353657e-01 2.070010769008660745e+01
1.753324891502007488e-01 2.097998230965286481e+01
1.763730380468661318e-01 2.201068962057465583e+01
1.774135869435315149e-01 2.416455370151086157e+01
1.784541358401968980e-01 2.551319974993050721e+01
1.794946847368622811e-01 2.523251560730860987e+01
1.805352336335276642e-01 2.407064283347094502e+01
1.815757825301930473e-01 2.208642332218357396e+01
1.826163314268584303e-01 1.962333958258471966e+01
1.836568803235238134e-01 1.773973789015656521e+01
1.846974292201891965e-01 1.638865240132150802e+01
1.857379781168545796e-01 1.560128048909729515e+01
1.867785270135199627e-01 1.517585243300936781e+01
1.878190759101853458e-01 1.529628828627637560e+01
1.888596248068507288e-01 1.509947793967828389e+01
1.899001737035161119e-01 1.462693368118548420e+01
1.909407226001814950e-01 1.452657953387757317e+01
1.919812714968468781e-01 1.404315945255654441e+01
1.930218203935122612e-01 1.338773631955350396e+01
1.940623692901776443e-01 1.266355642245622803e+01
1.951029181868430273e-01 1.256245574446992919e+01
1.961434670835084104e-01 1.275081503026583363e+01
1.971840159801737935e-01 1.296034605012105700e+01
1.982245648768391766e-01 1.302817858887308944e+01
1.992651137735045597e-01 1.245293918637410968e+01
2.003056626701699428e-01 1.159948169342607116e+01
2.013462115668353813e-01 1.070091045255603746e+01
2.023867604635007644e-01 9.804527134313929082e+00
2.034273093601661475e-01 9.154484732723449980e+00
2.044678582568315306e-01 9.070573515341468607e+00
2.055084071534969137e-01 8.638641412185695145e+00
2.065489560501622968e-01 8.227665445709881453e+00
2.075895049468276798e-01 7.968647190512079703e+00
2.086300538434930629e-01 7.831917566398416852e+00
2.096706027401584460e-01 7.524954145268626604e+00
2.107111516368238291e-01 7.388388323078252995e+00
2.117517005334892122e-01 7.307989843989421530e+00
2.127922494301545953e-01 7.148609604376311211e+00
2.138327983268199783e-01 7.141218052028701635e+00
2.148733472234853614e-01 7.050405186670726465e+00
2.159138961201507445e-01 6.800254401709384666e+00
2.169544450168161276e-01 6.702973338193693564e+00
2.179949939134815107e-01 6.800739307367297926e+00
2.190355428101468938e-01 6.706004838774255461e+00
2.200760917068122768e-01 6.593049047471581048e+00
2.211166406034776599e-01 6.588769116507524615e+00
2.221571895001430430e-01 6.964817621363131650e+00
2.231977383968084261e-01 7.177942998410649977e+00
2.242382872934738092e-01 7.221873097922390627e+00
2.252788361901391923e-01 7.335255936516936970e+00
2.263193850868045753e-01 7.533888224845892267e+00
2.273599339834699584e-01 7.729669907941389084e+00
2.284004828801353415e-01 7.480704937550857636e+00
2.294410317768007246e-01 7.483890394339820062e+00
2.304815806734661077e-01 7.770656904055847747e+00
2.315221295701314908e-01 7.910720840129226161e+00
2.325626784667968738e-01 7.427786490861759461e+00
2.336032273634622569e-01 6.747589031866461085e+00
2.346437762601276400e-01 6.448944205128817941e+00
2.356843251567930231e-01 6.127245732972578907e+00
2.367248740534584062e-01 5.577118000748932047e+00
2.377654229501237892e-01 5.248900634007132027e+00
2.388059718467891723e-01 5.314613411260001641e+00
2.398465207434545554e-01 5.402080382874544284e+00
2.408870696401199385e-01 5.401554859297160505e+00
2.419276185367853216e-01 5.402052236218477077e+00
2.429681674334507047e-01 5.195735278301594207e+00
2.440087163301160877e-01 5.236904822100601820e+00
2.450492652267814708e-01 4.982289085804985973e+00
2.460898141234468539e-01 5.238066127521531001e+00
2.471303630201122370e-01 5.292173066152081162e+00
2.481709119167776201e-01 5.267203459450836789e+00
2.492114608134430032e-01 5.258182811215906582e+00
2.502520097101083585e-01 5.051200843801634477e+00
2.512925586067737416e-01 4.787512569835907783e+00
2.523331075034391247e-01 4.567769991499503135e+00
2.533736564001045077e-01 4.326251000936338187e+00
2.544142052967698908e-01 4.013339540802881800e+00
2.554547541934352739e-01 3.862778036255352987e+00
2.564953030901006570e-01 3.898087689716650317e+00
2.575358519867660401e-01 3.859621399819594956e+00
2.585764008834314231e-01 3.604211925072732470e+00
2.596169497800968062e-01 3.642892446791833549e+00
2.606574986767621893e-01 3.558546227687934049e+00
2.616980475734275724e-01 3.617744985548892345e+00
2.627385964700929555e-01 3.481302364498152002e+00
2.637791453667583386e-01 3.430261025795701357e+00
2.648196942634237216e-01 3.543719598898526613e+00
2.658602431600891047e-01 3.277408078122800106e+00
2.669007920567544878e-01 3.452953166935962770e+00
2.679413409534198709e-01 3.462298821196299059e+00
2.689818898500852540e-01 3.338099280633439747e+00
2.700224387467506371e-01 3.584717971366295330e+00
2.710629876434160201e-01 3.583190640179523712e+00
2.721035365400814032e-01 3.633034007755153283e+00
2.731440854367467863e-01 3.804941639824772182e+00
2.741846343334121694e-01 3.722875085819396190e+00
2.752251832300775525e-01 3.667158149614731855e+00
2.762657321267429356e-01 3.577979913083204622e+00
2.773062810234083186e-01 3.379565205979961462e+00
2.783468299200737017e-01 3.680129365720706147e+00
2.793873788167390848e-01 3.231659267666540103e+00
2.804279277134044679e-01 2.981053114220141964e+00
2.814684766100698510e-01 3.254320606441318375e+00
2.825090255067352341e-01 3.405473219275489072e+00
2.835495744034006171e-01 3.380140956739573710e+00
2.845901233000660002e-01 3.226826472337187113e+00
2.856306721967313833e-01 3.228116401416667003e+00
2.866712210933967664e-01 3.210495544063547868e+00
2.877117699900621495e-01 3.338345543605328203e+00
2.887523188867275326e-01 3.200980501277175705e+00
2.897928677833929156e-01 3.095678349464890289e+00
2.908334166800582987e-01 3.254311945495416580e+00
2.918739655767236818e-01 3.345087885894781010e+00
2.929145144733890649e-01 3.134735445411582333e+00
2.939550633700544480e-01 3.096803604323778103e+00
2.949956122667198311e-01 3.370525046793304114e+00
2.960361611633852141e-01 3.068221280308403465e+00
2.970767100600505972e-01 2.916908926944511649e+00
2.981172589567159803e-01 2.929774763431360896e+00
2.991578078533813634e-01 2.943282192024987864e+00
3.001983567500468020e-01 3.017673119238288848e+00
3.012389056467121851e-01 2.833224769561002887e+00
3.022794545433775681e-01 2.690256741740135737e+00
3.033200034400429512e-01 2.747603291571660833e+00
3.043605523367083343e-01 2.574855671723280892e+00
3.054011012333737174e-01 2.519331808382595739e+00
3.064416501300391005e-01 2.429629412885937256e+00
3.074821990267044836e-01 2.461139954039911260e+00
3.085227479233698666e-01 2.489721486390745753e+00
3.095632968200352497e-01 2.551278508001427525e+00
3.106038457167006328e-01 2.498656962592150421e+00
3.116443946133660159e-01 2.407474078634919579e+00
3.126849435100313990e-01 2.444180889033688686e+00
3.137254924066967821e-01 2.292307622927090449e+00
3.147660413033621651e-01 2.347400771631843241e+00
3.158065902000275482e-01 2.158481278413667326e+00
3.168471390966929313e-01 2.103505471191112974e+00
3.178876879933583144e-01 2.295088163819983151e+00
3.189282368900236975e-01 2.040510717612555425e+00
3.199687857866890806e-01 2.131903235925705076e+00
3.210093346833544636e-01 2.319239144443145051e+00
3.220498835800198467e-01 2.485585184893267297e+00
3.230904324766852298e-01 2.503045926254085174e+00
3.241309813733506129e-01 2.523887938116750718e+00
3.251715302700159960e-01 2.379438028638450220e+00
3.262120791666813790e-01 2.436357632553125541e+00
3.272526280633467621e-01 2.034702758174073978e+00
3.282931769600121452e-01 2.236204861573671820e+00
3.293337258566775283e-01 2.449919972688277880e+00
3.303742747533429114e-01 2.159293532296214124e+00
3.314148236500082945e-01 2.083348333435054656e+00
3.324553725466736775e-01 2.167789846474192927e+00
3.334959214433390606e-01 2.355213671417025978e+00
3.345364703400044437e-01 2.425076415654011441e+00
3.355770192366698268e-01 2.374305568818801504e+00
3.366175681333352099e-01 2.225337781528732961e+00
3.376581170300005930e-01 2.339594775387624281e+00
3.386986659266659760e-01 2.229283118085110260e+00
3.397392148233313591e-01 2.202298881199489244e+00
3.407797637199967422e-01 2.144186012243771700e+00
3.418203126166621253e-01 2.170285330972788529e+00
3.428608615133275084e-01 2.322995582352927357e+00
3.439014104099928915e-01 2.336369712466897397e+00
3.449419593066582745e-01 2.082121682214889802e+00
3.459825082033236576e-01 2.035487462807317627e+00
3.470230570999890407e-01 2.023719093373021138e+00
3.480636059966544238e-01 2.086928799741368579e+00
3.491041548933198069e-01 2.144917687763811642e+00
3.501447037899851900e-01 2.041260908455623024e+00
3.511852526866505730e-01 1.946817975419232738e+00
3.522258015833159561e-01 1.720796066170589000e+00
3.532663504799813392e-01 1.838186172965077247e+00
3.543068993766467223e-01 1.697596798309934485e+00
3.553474482733121054e-01 1.834046644683699157e+00
3.563879971699774885e-01 1.880385132045251595e+00
3.574285460666428715e-01 1.688458381491116711e+00
3.584690949633082546e-01 1.597151947882128553e+00
3.595096438599736377e-01 1.720018268621277713e+00
3.605501927566390208e-01 1.650835361036232740e+00
3.615907416533044039e-01 1.596153164226208787e+00
3.626312905499697870e-01 1.500227918282600825e+00
3.636718394466351700e-01 1.578573923504741572e+00
3.647123883433005531e-01 1.556938185773347527e+00
3.657529372399659362e-01 1.801763454550002308e+00
3.667934861366313193e-01 1.763117618252096008e+00
3.678340350332967024e-01 1.531201143337440840e+00
3.688745839299620854e-01 1.494969045632036142e+00
3.699151328266274685e-01 1.575772195958190736e+00
3.709556817232928516e-01 1.798603237523348497e+00
3.719962306199582347e-01 1.791919600087922504e+00
3.730367795166236178e-01 1.749684202008459977e+00
3.740773284132890009e-01 1.487055465894393080e+00
3.751178773099543839e-01 1.605051427308648471e+00
3.761584262066197670e-01 1.708104402789899723e+00
3.771989751032851501e-01 1.587817589051049083e+00
3.782395239999505332e-01 1.748870999287877481e+00
3.792800728966159163e-01 1.801538322879729037e+00
3.803206217932812994e-01 1.911587272576419139e+00
3.813611706899466824e-01 1.877734305712916552e+00
3.824017195866120655e-01 1.737693415962162646e+00
3.834422684832774486e-01 1.620090524443408952e+00
3.844828173799428317e-01 1.552529449376404358e+00
3.855233662766082148e-01 1.755155104692985191e+00
3.865639151732735979e-01 1.807071234480634558e+00
3.876044640699389809e-01 1.593890049114765617e+00
3.886450129666043640e-01 1.461786973684024105e+00
3.896855618632697471e-01 1.392531887789878908e+00
3.907261107599351302e-01 1.295057368256557595e+00
3.917666596566005133e-01 1.385549978183281183e+00
3.928072085532658964e-01 1.480937508892491650e+00
3.938477574499312794e-01 1.325302840010149197e+00
3.948883063465966625e-01 1.278874575678280223e+00
3.959288552432620456e-01 1.481417806322784969e+00
3.969694041399274287e-01 1.511943377011892409e+00
3.980099530365928118e-01 1.385983002375319018e+00
3.990505019332581949e-01 1.427956251144852473e+00
4.000910508299235779e-01 1.437628232989450083e+00
4.011315997265889610e-01 1.462782705143592210e+00
4.021721486232543441e-01 1.595656210114615448e+00
4.032126975199197272e-01 1.518400288219567074e+00
4.042532464165851103e-01 1.428030552254689667e+00
4.052937953132504934e-01 1.484838730749974189e+00
4.063343442099158764e-01 1.233519480332692098e+00
4.073748931065812595e-01 1.296900579826957056e+00
4.084154420032466426e-01 1.396543664741749069e+00
4.094559908999120257e-01 1.239870194232615574e+00
4.104965397965774088e-01 1.205149418490979230e+00
4.115370886932427918e-01 1.197016417876241690e+00
4.125776375899081749e-01 1.210027499544093388e+00
4.136181864865735580e-01 1.316980262417995817e+00
4.146587353832389411e-01 1.207506470724741376e+00
4.156992842799043242e-01 1.094133463148477148e+00
4.167398331765697073e-01 9.787912946752079790e-01
4.177803820732350903e-01 1.020934041862386010e+00
4.188209309699004734e-01 1.095588539560168329e+00
4.198614798665658565e-01 1.186186568842487077e+00
4.209020287632312396e-01 1.161996139987500953e+00
4.219425776598966227e-01 1.120701623029479066e+00
4.229831265565620058e-01 1.123150298726148577e+00
4.240236754532273888e-01 1.098652296318245902e+00
4.250642243498927719e-01 1.150054216731575707e+00
4.261047732465581550e-01 1.296435404646217648e+00
4.271453221432235381e-01 1.187640922149792999e+00
4.281858710398889212e-01 1.127163291872452788e+00
4.292264199365543043e-01 1.248905993445571738e+00
4.302669688332196873e-01 1.192926667930233720e+00
4.313075177298850704e-01 1.170265290257567870e+00
4.323480666265504535e-01 1.006912793289806984e+00
4.333886155232158366e-01 9.679749090727582939e-01
4.344291644198812197e-01 8.830092928743766834e-01
