# q (1/Angstrom), Intensity (arb)
2.029070354705860696e-02 9.597476232429751235e+02
2.133125244372399004e-02 8.508248799926681158e+02
2.237180134038937659e-02 7.649112048563290500e+02
2.341235023705475968e-02 6.944861283446794005e+02
2.445289913372014276e-02 6.353209711926257341e+02
2.549344803038552584e-02 5.920144703466731926e+02
2.653399692705091240e-02 5.553205323657232384e+02
2.757454582371629548e-02 5.266482957045886906e+02
2.861509472038167856e-02 5.007900195208788432e+02
2.965564361704706164e-02 4.796642094423355616e+02
3.069619251371244473e-02 4.647275426691542179e+02
3.173674141037782781e-02 4.487152297423814389e+02
3.277729030704321089e-02 4.352473826514088842e+02
3.381783920370859398e-02 4.294797031550472184e+02
3.485838810037397706e-02 4.265847988901207373e+02
3.589893699703936014e-02 4.236279133641433532e+02
3.693948589370474322e-02 4.241056764233463241e+02
3.798003479037012631e-02 4.312712001402238684e+02
3.902058368703550939e-02 4.385053348938673139e+02
4.006113258370089247e-02 4.456215378357737222e+02
4.110168148036627556e-02 4.610741227168591649e+02
4.214223037703165864e-02 4.788280234863223654e+02
4.318277927369704866e-02 5.037404739485492655e+02
4.422332817036243174e-02 5.417248775919239279e+02
4.526387706702781483e-02 5.947628266231320140e+02
4.630442596369319791e-02 6.812099341273632263e+02
4.734497486035858099e-02 8.485085665680001057e+02
4.838552375702396408e-02 1.190668926124936661e+03
4.942607265368934716e-02 1.794398464763948823e+03
5.046662155035473024e-02 2.742965323720846754e+03
5.150717044702011332e-02 4.228959222014884290e+03
5.254771934368549641e-02 5.173276408802921651e+03
5.358826824035087949e-02 4.453742109310222077e+03
5.462881713701626257e-02 3.485753358511183251e+03
5.566936603368164566e-02 3.203183469452178997e+03
5.670991493034702874e-02 3.258856454473927897e+03
5.775046382701241182e-02 3.398354388985252626e+03
5.879101272367779490e-02 3.538829275847930603e+03
5.983156162034317799e-02 3.588541116088483250e+03
6.087211051700856107e-02 3.469702414357854650e+03
6.191265941367394415e-02 3.222877913790982802e+03
6.295320831033933417e-02 2.936232323526282016e+03
6.399375720700471726e-02 2.646381932113405128e+03
6.503430610367010034e-02 2.357484715781908562e+03
6.607485500033548342e-02 2.070614714227871445e+03
6.711540389700086651e-02 1.791446674766968272e+03
6.815595279366624959e-02 1.525256013558738687e+03
6.919650169033163267e-02 1.285873976416504320e+03
7.023705058699701576e-02 1.070722840083996516e+03
7.127759948366239884e-02 8.853892349923987695e+02
7.231814838032778192e-02 7.318912426701043614e+02
7.335869727699316500e-02 6.067433167361638198e+02
7.439924617365854809e-02 5.038647100058759634e+02
7.543979507032393117e-02 4.198117360749632780e+02
7.648034396698931425e-02 3.531194067489587951e+02
7.752089286365469734e-02 3.008587210490438792e+02
7.856144176032008042e-02 2.586187313866314526e+02
7.960199065698546350e-02 2.253718761758734104e+02
8.064253955365084658e-02 2.025022155559923647e+02
8.168308845031622967e-02 1.918808639098501203e+02
8.272363734698161275e-02 2.006079824867497052e+02
8.376418624364699583e-02 2.456767161133556669e+02
8.480473514031239279e-02 3.283780802682757667e+02
8.584528403697777588e-02 3.672103903775751519e+02
8.688583293364315896e-02 3.028012299275670784e+02
8.792638183030854204e-02 2.215666599728677113e+02
8.896693072697392513e-02 1.815315416164188207e+02
9.000747962363930821e-02 1.672005922036756829e+02
9.104802852030469129e-02 1.648788293018345428e+02
9.208857741697007437e-02 1.671603020220761664e+02
9.312912631363545746e-02 1.704158665297740072e+02
9.416967521030084054e-02 1.758824798357343298e+02
9.521022410696622362e-02 1.841259947411629128e+02
9.625077300363160671e-02 1.984307241868134497e+02
9.729132190029698979e-02 2.244143988528090858e+02
9.833187079696237287e-02 2.761335373847626329e+02
9.937241969362775595e-02 3.549260301578234476e+02
1.004129685902931390e-01 3.994798368493988505e+02
1.014535174869585221e-01 3.560609034049448951e+02
1.024940663836239052e-01 2.835873454402104699e+02
1.035346152802892883e-01 2.474028043897526459e+02
1.045751641769546714e-01 2.340478209992845393e+02
1.056157130736200545e-01 2.177480663761571407e+02
1.066562619702854375e-01 1.998048433099253884e+02
1.076968108669508206e-01 1.894423780409360916e+02
1.087373597636162037e-01 1.862248829213245074e+02
1.097779086602815868e-01 1.867270366756947340e+02
1.108184575569469699e-01 1.874832841955994240e+02
1.118590064536123529e-01 1.874093822220472134e+02
1.128995553502777360e-01 1.857880057681488495e+02
1.139401042469431191e-01 1.835173513412821364e+02
1.149806531436085022e-01 1.787536618944826614e+02
1.160212020402738853e-01 1.724115521319479285e+02
1.170617509369392684e-01 1.646523883911673067e+02
1.181022998336046514e-01 1.572004499759285636e+02
1.191428487302700345e-01 1.489503326128471770e+02
1.201833976269354176e-01 1.387528429696568537e+02
1.212239465236008007e-01 1.293561643620523967e+02
1.222644954202661838e-01 1.204063073252941081e+02
1.233050443169315669e-01 1.104473999339725765e+02
1.243455932135969499e-01 1.008497120054302485e+02
1.253861421102623330e-01 9.271847940072032657e+01
1.264266910069277161e-01 8.559599874766779237e+01
1.274672399035930992e-01 7.889918205644882221e+01
1.285077888002584823e-01 7.466033805167282367e+01
1.295483376969238654e-01 7.406597475018224941e+01
1.305888865935892484e-01 7.678882241716296164e+01
1.316294354902546315e-01 8.105331377434762885e+01
1.326699843869200146e-01 8.326403628824576231e+01
1.337105332835853977e-01 8.440517931188747980e+01
1.347510821802507808e-01 8.482883976739896070e+01
1.357916310769161639e-01 7.800716803372546337e+01
1.368321799735815469e-01 6.357247193352101533e+01
1.378727288702469300e-01 5.009538041854820278e+01
1.389132777669123131e-01 4.172871317339348707e+01
1.399538266635776962e-01 3.751697335593289040e+01
1.409943755602430793e-01 3.505859672420280049e+01
1.420349244569084624e-01 3.404115083324055036e+01
1.430754733535738454e-01 3.351892673777820875e+01
1.441160222502392285e-01 3.406206081573247957e+01
1.451565711469046116e-01 3.619500697410023804e+01
1.461971200435699947e-01 3.904690400620373225e+01
1.472376689402353778e-01 4.304182233104671695e+01
1.482782178369007609e-01 4.504104431143602483e+01
1.493187667335661439e-01 4.352008462106626752e+01
1.503593156302315270e-01 3.914660894132502733e+01
1.513998645268969101e-01 3.636414188205736053e+01
1.524404134235622932e-01 3.486402071211709597e+01
1.534809623202276763e-01 3.335503158106973842e+01
1.545215112168930593e-01 3.322322371910475169e+01
1.555620601135584424e-01 3.353142563671887189e+01
1.566026090102238255e-01 3.392933831082095253e+01
1.576431579068892086e-01 3.354283458350526814e+01
1.586837068035545917e-01 3.125263747720386931e+01
1.597242557002199748e-01 2.914735925107395431e+01
1.607648045968853578e-01 2.752264382427145861e+01
1.618053534935507409e-01 2.664717653488480664e+01
1.628459023902161240e-01 2.587021191934372766e+01
1.638864512868815071e-01 2.507856791255096951e+01
1.649270001835468902e-01 2.485129720896291872e+01
1.659675490802122733e-01 2.439081454909349489e+01
1.670080979768776563e-01 2.364057335816487893e+01
1.680486468735430672e-01 2.314722583532410027e+01
1.690891957702084503e-01 2.290943510773751157e+01
1.701297446668738333e-01 2.278629744097773724e+01
1.711702935635392164e-01 2.237967575820126243e+01
1.722108424602045995e-01 2.156388215562171595e+01
1.732513913568699826e-01 2.100800641182653195e+01
1.742919402535353657e-01 2.072581749279763841e+01
1.753324891502007488e-01 2.067951978219977249e+01
1.763730380468661318e-01 2.136278412820293937e+01
1.774135869435315149e-01 2.295331584891881249e+01
1.784541358401968980e-01 2.468237880226032033e+01
1.794946847368622811e-01 2.538034233848889798e+01
1.805352336335276642e-01 2.473035052198959249e+01
1.815757825301930473e-01 2.369654278230801125e+01
1.826163314268584303e-01 2.135001395045298977e+01
1.836568803235238134e-01 1.878595431756297174e+01
1.846974292201891965e-01 1.725952945781609671e+01
1.857379781168545796e-01 1.629770267693047359e+01
1.867785270135199627e-01 1.552057303135311273e+01
1.878190759101853458e-01 1.500438675518757492e+01
1.888596248068507288e-01 1.476298868078267645e+01
1.899001737035161119e-01 1.451411782584829169e+01
1.909407226001814950e-01 1.415580380225798152e+01
1.919812714968468781e-01 1.377843305527299123e+01
1.930218203935122612e-01 1.347669394112250885e+01
1.940623692901776443e-01 1.272462175490479552e+01
1.951029181868430273e-01 1.241969787515798274e+01
1.961434670835084104e-01 1.251789344101636559e+01
1.971840159801737935e-01 1.259009144916505107e+01
1.982245648768391766e-01 1.235886695120992584e+01
1.992651137735045597e-01 1.223447623450992339e+01
2.003056626701699428e-01 1.194445141364459673e+01
2.013462115668353813e-01 1.076334791825676973e+01
2.023867604635007644e-01 1.018901539098343889e+01
2.034273093601661475e-01 9.241195282980253722e+00
2.044678582568315306e-01 8.824598413042892275e+00
2.055084071534969137e-01 8.680507039927050528e+00
2.065489560501622968e-01 8.593134757316832406e+00
2.075895049468276798e-01 8.261973772950270245e+00
2.086300538434930629e-01 8.042904982420708393e+00
2.096706027401584460e-01 7.881163864265182895e+00
2.107111516368238291e-01 8.096167871327299537e+00
2.117517005334892122e-01 7.853674738985283454e+00
2.127922494301545953e-01 7.485518079695417271e+00
2.138327983268199783e-01 7.197279615388364249e+00
2.148733472234853614e-01 7.095363955188375371e+00
2.159138961201507445e-01 7.102864333570352073e+00
2.169544450168161276e-01 7.092354351804470269e+00
2.179949939134815107e-01 6.983785522537235835e+00
2.190355428101468938e-01 7.186241096677278506e+00
2.200760917068122768e-01 7.338512671491404404e+00
2.211166406034776599e-01 6.666097129041602898e+00
2.221571895001430430e-01 6.535467411631692869e+00
2.231977383968084261e-01 6.867580314327071278e+00
2.242382872934738092e-01 7.152328720841662602e+00
2.252788361901391923e-01 7.460496540868703619e+00
2.263193850868045753e-01 7.565207472963955126e+00
2.273599339834699584e-01 7.291543991953599146e+00
2.284004828801353415e-01 6.999473285135039191e+00
2.294410317768007246e-01 7.361741202515084126e+00
2.304815806734661077e-01 7.716786171678393202e+00
2.315221295701314908e-01 7.907340062821386795e+00
2.325626784667968738e-01 8.154343540283779390e+00
2.336032273634622569e-01 7.729388177195005483e+00
2.346437762601276400e-01 6.801893857272666821e+00
2.356843251567930231e-01 6.066844499412880509e+00
2.367248740534584062e-01 5.364758332180070255e+00
2.377654229501237892e-01 5.469394917896405417e+00
2.388059718467891723e-01 5.593059247482521812e+00
2.398465207434545554e-01 5.543339883327078610e+00
2.408870696401199385e-01 4.994530191596847857e+00
2.419276185367853216e-01 4.714081936313490928e+00
2.429681674334507047e-01 4.820363451726432658e+00
2.440087163301160877e-01 4.854564485823775755e+00
2.450492652267814708e-01 4.587754283676520828e+00
2.460898141234468539e-01 4.844308167363379880e+00
2.471303630201122370e-01 5.064437782607598137e+00
2.481709119167776201e-01 5.008753166303453241e+00
2.492114608134430032e-01 5.037713379569289884e+00
2.502520097101083585e-01 4.852501072680901473e+00
2.512925586067737416e-01 4.629426223763804416e+00
2.523331075034391247e-01 4.379019769875874601e+00
2.533736564001045077e-01 4.237262790994289929e+00
2.544142052967698908e-01 3.936520082498027762e+00
2.554547541934352739e-01 3.929652621378522781e+00
2.564953030901006570e-01 3.966008947233788717e+00
2.575358519867660401e-01 3.822474238369743205e+00
2.585764008834314231e-01 3.894990557511043505e+00
2.596169497800968062e-01 3.623269324821254855e+00
2.606574986767621893e-01 3.432372234122240684e+00
2.616980475734275724e-01 3.376420644008881311e+00
2.627385964700929555e-01 3.324123149128929811e+00
2.637791453667583386e-01 3.260290549434447627e+00
2.648196942634237216e-01 3.362224521179928871e+00
2.658602431600891047e-01 3.356446598915010071e+00
2.669007920567544878e-01 3.345044016069664394e+00
2.679413409534198709e-01 3.361628321978667344e+00
2.689818898500852540e-01 3.198376129291293779e+00
2.700224387467506371e-01 3.082400592495623926e+00
2.710629876434160201e-01 3.009905429866595483e+00
2.721035365400814032e-01 3.171058685461687787e+00
2.731440854367467863e-01 3.398299717004690024e+00
2.741846343334121694e-01 3.405727749498890233e+00
2.752251832300775525e-01 3.383173794333856677e+00
2.762657321267429356e-01 3.444463210629120198e+00
2.773062810234083186e-01 3.485029456925772706e+00
2.783468299200737017e-01 3.602857465018963978e+00
2.793873788167390848e-01 3.571481117825168639e+00
2.804279277134044679e-01 3.146800255725977991e+00
2.814684766100698510e-01 3.257147728502275186e+00
2.825090255067352341e-01 3.438871470814444109e+00
2.835495744034006171e-01 3.415023333022990215e+00
2.845901233000660002e-01 3.197742500158781809e+00
2.856306721967313833e-01 3.373870617663676796e+00
2.866712210933967664e-01 3.283327244928322841e+00
2.877117699900621495e-01 3.198698447888972396e+00
2.887523188867275326e-01 3.072148909902477243e+00
2.897928677833929156e-01 2.901712392856559575e+00
2.908334166800582987e-01 2.956939214640978975e+00
2.918739655767236818e-01 2.880489786473809488e+00
2.929145144733890649e-01 2.674025112765804124e+00
2.939550633700544480e-01 2.662458027935745264e+00
2.949956122667198311e-01 2.727753375248809675e+00
2.960361611633852141e-01 2.773270332695126683e+00
2.970767100600505972e-01 2.588248372318854962e+00
2.981172589567159803e-01 2.586206303896709358e+00
2.991578078533813634e-01 2.656289270944832026e+00
3.001983567500468020e-01 2.606095612528253724e+00
3.012389056467121851e-01 2.787435882305299373e+00
3.022794545433775681e-01 2.703860113811170862e+00
3.033200034400429512e-01 2.525017439721999324e+00
3.043605523367083343e-01 2.424846996484149031e+00
3.054011012333737174e-01 2.277745295342878507e+00
3.064416501300391005e-01 2.221297441487273261e+00
3.074821990267044836e-01 2.420749315854859418e+00
3.085227479233698666e-01 2.390093122818829130e+00
3.095632968200352497e-01 2.387557485535761970e+00
3.106038457167006328e-01 2.462324056568576225e+00
3.116443946133660159e-01 2.477294209521840429e+00
3.126849435100313990e-01 2.258985322919464522e+00
3.137254924066967821e-01 1.915834805264616136e+00
3.147660413033621651e-01 2.030959431152808747e+00
3.158065902000275482e-01 2.143974478122338212e+00
3.168471390966929313e-01 2.183579939777104073e+00
3.178876879933583144e-01 2.303856337792915099e+00
3.189282368900236975e-01 2.237053608250942460e+00
3.199687857866890806e-01 2.157515224216698613e+00
3.210093346833544636e-01 1.969264579878199584e+00
3.220498835800198467e-01 2.005156901866044450e+00
3.230904324766852298e-01 2.054321279665877853e+00
3.241309813733506129e-01 2.093769637991339749e+00
3.251715302700159960e-01 2.136720701945293399e+00
3.262120791666813790e-01 2.204583267651493372e+00
3.272526280633467621e-01 2.055774445125468475e+00
3.282931769600121452e-01 2.007356146898228388e+00
3.293337258566775283e-01 2.009353562070455013e+00
3.303742747533429114e-01 1.742848822237878181e+00
3.314148236500082945e-01 1.967439669309680284e+00
3.324553725466736775e-01 2.263739035949498657e+00
3.334959214433390606e-01 2.321618989860155580e+00
3.345364703400044437e-01 2.179039514618953177e+00
3.355770192366698268e-01 2.271681499289371686e+00
3.366175681333352099e-01 2.138310599214531038e+00
3.376581170300005930e-01 1.872946562547681992e+00
3.386986659266659760e-01 1.742756443035212044e+00
3.397392148233313591e-01 2.039203021511571734e+00
3.407797637199967422e-01 1.746480677364822043e+00
3.418203126166621253e-01 1.534691469899826188e+00
3.428608615133275084e-01 1.808705889601483818e+00
3.439014104099928915e-01 2.145298981434162755e+00
3.449419593066582745e-01 2.118835839201679505e+00
3.459825082033236576e-01 1.907646079663166461e+00
3.470230570999890407e-01 2.004257191364899882e+00
3.480636059966544238e-01 1.978476606483788203e+00
3.491041548933198069e-01 1.783338836710107955e+00
3.501447037899851900e-01 1.731153511353504371e+00
3.511852526866505730e-01 1.740107528939493164e+00
3.522258015833159561e-01 1.783007708955935300e+00
3.532663504799813392e-01 1.673187182892508673e+00
3.543068993766467223e-01 1.696043525469871582e+00
3.553474482733121054e-01 2.093599469561134185e+00
3.563879971699774885e-01 1.820986319222694050e+00
3.574285460666428715e-01 1.604836602561125147e+00
3.584690949633082546e-01 1.640403110952714627e+00
3.595096438599736377e-01 1.463534748558132037e+00
3.605501927566390208e-01 1.532916477253760235e+00
3.615907416533044039e-01 1.592546495189537836e+00
3.626312905499697870e-01 1.631351083751326314e+00
3.636718394466351700e-01 1.418297751471659041e+00
3.647123883433005531e-01 1.372738110556753099e+00
3.657529372399659362e-01 1.486096997744176917e+00
3.667934861366313193e-01 1.568912141048976139e+00
3.678340350332967024e-01 1.600468398097966372e+00
3.688745839299620854e-01 1.623120019226192312e+00
3.699151328266274685e-01 1.487477850788543776e+00
3.709556817232928516e-01 1.600176490452064115e+00
3.719962306199582347e-01 1.265269371995788816e+00
3.730367795166236178e-01 1.314885150016145587e+00
3.740773284132890009e-01 1.236348821592251568e+00
3.751178773099543839e-01 1.352294949278967096e+00
3.761584262066197670e-01 1.506141824377024818e+00
3.771989751032851501e-01 1.442281956902693452e+00
3.782395239999505332e-01 1.505928834529946414e+00
3.792800728966159163e-01 1.576472971384667687e+00
3.803206217932812994e-01 1.563433080557018684e+00
3.813611706899466824e-01 1.550605177005657254e+00
3.824017195866120655e-01 1.554251883298658043e+00
3.834422684832774486e-01 1.436072759541140442e+00
3.844828173799428317e-01 1.516825770781974114e+00
3.855233662766082148e-01 1.602442858544499416e+00
3.865639151732735979e-01 1.450231006423344127e+00
3.876044640699389809e-01 1.460867344652701405e+00
3.886450129666043640e-01 1.407055778694935810e+00
3.896855618632697471e-01 1.339464741871040587e+00
3.907261107599351302e-01 1.320299032627808344e+00
3.917666596566005133e-01 1.435845366159657743e+00
3.928072085532658964e-01 1.275965347651791149e+00
3.938477574499312794e-01 1.260217636140886555e+00
3.948883063465966625e-01 1.389273309637591325e+00
3.959288552432620456e-01 1.436173587146608810e+00
3.969694041399274287e-01 1.362146550520357380e+00
3.980099530365928118e-01 1.143672906018451840e+00
3.990505019332581949e-01 1.099002159568026826e+00
4.000910508299235779e-01 9.784070806943887533e-01
4.011315997265889610e-01 1.033762765406038397e+00
4.021721486232543441e-01 1.231718000013483305e+00
4.032126975199197272e-01 1.281203868698344905e+00
4.042532464165851103e-01 1.188947376506376941e+00
4.052937953132504934e-01 1.052104584731893056e+00
4.063343442099158764e-01 9.538303801415146665e-01
4.073748931065812595e-01 1.151416773936190907e+00
4.084154420032466426e-01 1.113494526977014232e+00
4.094559908999120257e-01 1.097246015717626477e+00
4.104965397965774088e-01 9.806848818769395848e-01
4.115370886932427918e-01 1.001318380962455734e+00
4.125776375899081749e-01 9.899306912929155544e-01
4.136181864865735580e-01 1.012787390485407002e+00
4.146587353832389411e-01 1.068830259528883886e+00
4.156992842799043242e-01 1.279988869745412927e+00
4.167398331765697073e-01 1.276614719905371231e+00
4.177803820732350903e-01 1.257125870878862628e+00
4.188209309699004734e-01 9.828375202468855321e-01
4.198614798665658565e-01 9.388896359632106225e-01
4.209020287632312396e-01 1.136118111788473328e+00
4.219425776598966227e-01 1.142684009519573607e+00
4.229831265565620058e-01 1.361036628171618190e+00
4.240236754532273888e-01 1.413923439812531768e+00
4.250642243498927719e-01 1.215861286667902164e+00
4.261047732465581550e-01 8.951921963998010767e-01
4.271453221432235381e-01 1.086228197839655962e+00
4.281858710398889212e-01 1.106061719202319438e+00
4.292264199365543043e-01 1.032461952814770711e+00
4.302669688332196873e-01 1.119070050322235943e+00
4.313075177298850704e-01 1.007008707283688409e+00
4.323480666265504535e-01 9.338151714067883802e-01
4.333886155232158366e-01 7.697302218144095320e-01
4.344291644198812197e-01 8.046206032198668368e-01
