# q (1/Angstrom), Intensity (arb)
2.029070354705860696e-02 2.866266025707352583e+02
2.133125244372399004e-02 2.501626320838402933e+02
2.237180134038937659e-02 2.212326497077103511e+02
2.341235023705475968e-02 1.984604713114545120e+02
2.445289913372014276e-02 1.809275584061823281e+02
2.549344803038552584e-02 1.653633715649655755e+02
2.653399692705091240e-02 1.549410506041190274e+02
2.757454582371629548e-02 1.438760662355262241e+02
2.861509472038167856e-02 1.340944974872852811e+02
2.965564361704706164e-02 1.250456816659414017e+02
3.069619251371244473e-02 1.202167625855335018e+02
3.173674141037782781e-02 1.149270324585652645e+02
3.277729030704321089e-02 1.085705321685366442e+02
3.381783920370859398e-02 1.036014459817497340e+02
3.485838810037397706e-02 9.996535308449395529e+01
3.589893699703936014e-02 9.796336827263996838e+01
3.693948589370474322e-02 9.640327413958752345e+01
3.798003479037012631e-02 9.359404148550879654e+01
3.902058368703550939e-02 9.144685818196842320e+01
4.006113258370089247e-02 9.011581314253902519e+01
4.110168148036627556e-02 8.821426450212598525e+01
4.214223037703165864e-02 8.696684839808196443e+01
4.318277927369704866e-02 8.740037304253897332e+01
4.422332817036243174e-02 8.763795985371191932e+01
4.526387706702781483e-02 8.750644165730591340e+01
4.630442596369319791e-02 8.915192365579250122e+01
4.734497486035858099e-02 9.069435242975441724e+01
4.838552375702396408e-02 9.161286155614999416e+01
4.942607265368934716e-02 9.328101882463832339e+01
5.046662155035473024e-02 9.691279501743710512e+01
5.150717044702011332e-02 1.002562526525317992e+02
5.254771934368549641e-02 1.054630300683750193e+02
5.358826824035087949e-02 1.113541698511424727e+02
5.462881713701626257e-02 1.198558679144852590e+02
5.566936603368164566e-02 1.341172861707157153e+02
5.670991493034702874e-02 1.548967595899422065e+02
5.775046382701241182e-02 1.885290304521130054e+02
5.879101272367779490e-02 2.604182957058816328e+02
5.983156162034317799e-02 3.914645575233601562e+02
6.087211051700856107e-02 5.831762287987528453e+02
6.191265941367394415e-02 8.670375997502401333e+02
6.295320831033933417e-02 1.315713930037965383e+03
6.399375720700471726e-02 1.677524247022772897e+03
6.503430610367010034e-02 1.508977178727805267e+03
6.607485500033548342e-02 1.058252120374477499e+03
6.711540389700086651e-02 7.815953819920529213e+02
6.815595279366624959e-02 6.719478562794972731e+02
6.919650169033163267e-02 6.283615696672715103e+02
7.023705058699701576e-02 6.136054951097414687e+02
7.127759948366239884e-02 6.232240375029714414e+02
7.231814838032778192e-02 6.442308548435722741e+02
7.335869727699316500e-02 6.596138959466817369e+02
7.439924617365854809e-02 6.492044711356592188e+02
7.543979507032393117e-02 6.145307134531437896e+02
7.648034396698931425e-02 5.836393385142544048e+02
7.752089286365469734e-02 5.613145931491762894e+02
7.856144176032008042e-02 5.444276528408136073e+02
7.960199065698546350e-02 5.279001463265570919e+02
8.064253955365084658e-02 5.062831432789727728e+02
8.168308845031622967e-02 4.828888974333663100e+02
8.272363734698161275e-02 4.567078398897999136e+02
8.376418624364699583e-02 4.302550359315539481e+02
8.480473514031239279e-02 4.033739549733485887e+02
8.584528403697777588e-02 3.766874427687791353e+02
8.688583293364315896e-02 3.480964030882299767e+02
8.792638183030854204e-02 3.199932352836144673e+02
8.896693072697392513e-02 2.939081163254010676e+02
9.000747962363930821e-02 2.678274312938787034e+02
9.104802852030469129e-02 2.431796619396194501e+02
9.208857741697007437e-02 2.212238180589624506e+02
9.312912631363545746e-02 2.003547315429662490e+02
9.416967521030084054e-02 1.801032930374112766e+02
9.521022410696622362e-02 1.611913132827638151e+02
9.625077300363160671e-02 1.437081274603347651e+02
9.729132190029698979e-02 1.288223587566076844e+02
9.833187079696237287e-02 1.146755787076677109e+02
9.937241969362775595e-02 1.024701459312147165e+02
1.004129685902931390e-01 9.405192531456586380e+01
1.014535174869585221e-01 9.194380179557866484e+01
1.024940663836239052e-01 9.763007336604914599e+01
1.035346152802892883e-01 1.107092598509874506e+02
1.045751641769546714e-01 1.187214767506565067e+02
1.056157130736200545e-01 1.068086337076739198e+02
1.066562619702854375e-01 8.266269268631181433e+01
1.076968108669508206e-01 6.327854822947359281e+01
1.087373597636162037e-01 5.265317130846341342e+01
1.097779086602815868e-01 4.766706019484544754e+01
1.108184575569469699e-01 4.360031214190878757e+01
1.118590064536123529e-01 4.142491009374845845e+01
1.128995553502777360e-01 3.968008972930875444e+01
1.139401042469431191e-01 3.847953810945636377e+01
1.149806531436085022e-01 3.782223933012300421e+01
1.160212020402738853e-01 3.806904641046416771e+01
1.170617509369392684e-01 4.018951379923341705e+01
1.181022998336046514e-01 4.376670284789690157e+01
1.191428487302700345e-01 5.200797021263479536e+01
1.201833976269354176e-01 6.639253745096318937e+01
1.212239465236008007e-01 8.806445821976251409e+01
1.222644954202661838e-01 1.076751439968028592e+02
1.233050443169315669e-01 1.067003501743812706e+02
1.243455932135969499e-01 8.657953307364815032e+01
1.253861421102623330e-01 6.594207572802251605e+01
1.264266910069277161e-01 5.599232171348352693e+01
1.274672399035930992e-01 5.219889791862489403e+01
1.285077888002584823e-01 4.777249145663662944e+01
1.295483376969238654e-01 4.100486309808883334e+01
1.305888865935892484e-01 3.500968906989736240e+01
1.316294354902546315e-01 3.136959463331466225e+01
1.326699843869200146e-01 2.960489277371843286e+01
1.337105332835853977e-01 2.860637467389499022e+01
1.347510821802507808e-01 2.851050137452136823e+01
1.357916310769161639e-01 2.819418857204811246e+01
1.368321799735815469e-01 2.800319879504920095e+01
1.378727288702469300e-01 2.810479522312914469e+01
1.389132777669123131e-01 2.817000844744193699e+01
1.399538266635776962e-01 2.811274790851522454e+01
1.409943755602430793e-01 2.768236827844832249e+01
1.420349244569084624e-01 2.692578873995631739e+01
1.430754733535738454e-01 2.691222644066886716e+01
1.441160222502392285e-01 2.688441756044324649e+01
1.451565711469046116e-01 2.674128567801191991e+01
1.461971200435699947e-01 2.654454472308399460e+01
1.472376689402353778e-01 2.627523797900850155e+01
1.482782178369007609e-01 2.566767514707650832e+01
1.493187667335661439e-01 2.490978331042866500e+01
1.503593156302315270e-01 2.374725448426768537e+01
1.513998645268969101e-01 2.319161532171581541e+01
1.524404134235622932e-01 2.267941824621060221e+01
1.534809623202276763e-01 2.203623671196747580e+01
1.545215112168930593e-01 2.085807621086181030e+01
1.555620601135584424e-01 2.043445509111775493e+01
1.566026090102238255e-01 2.069998857961736860e+01
1.576431579068892086e-01 1.999002143266375953e+01
1.586837068035545917e-01 1.999032411632074258e+01
1.597242557002199748e-01 2.076785109349724934e+01
1.607648045968853578e-01 2.187268344048286650e+01
1.618053534935507409e-01 2.288725013121854346e+01
1.628459023902161240e-01 2.344784736112751489e+01
1.638864512868815071e-01 2.362960073063935340e+01
1.649270001835468902e-01 2.367446201745791257e+01
1.659675490802122733e-01 2.284364693137179358e+01
1.670080979768776563e-01 1.995642846777381152e+01
1.680486468735430672e-01 1.740196655233024359e+01
1.690891957702084503e-01 1.518962317328418266e+01
1.701297446668738333e-01 1.381156094519820243e+01
1.711702935635392164e-01 1.271556281734545735e+01
1.722108424602045995e-01 1.201194022962918950e+01
1.732513913568699826e-01 1.165673075566793671e+01
1.742919402535353657e-01 1.139779000868676206e+01
1.753324891502007488e-01 1.113424808836278856e+01
1.763730380468661318e-01 1.109702922062106012e+01
1.774135869435315149e-01 1.105702988281468890e+01
1.784541358401968980e-01 1.165707819177369942e+01
1.794946847368622811e-01 1.271227645988955146e+01
1.805352336335276642e-01 1.334499962418063745e+01
1.815757825301930473e-01 1.253200979987011010e+01
1.826163314268584303e-01 1.184022592335660562e+01
1.836568803235238134e-01 1.065511212131553975e+01
1.846974292201891965e-01 9.582281345261826289e+00
1.857379781168545796e-01 8.922646035175539225e+00
1.867785270135199627e-01 8.654323203305082757e+00
1.878190759101853458e-01 8.422083017392424154e+00
1.888596248068507288e-01 8.217549304688688494e+00
1.899001737035161119e-01 8.405707090892640565e+00
1.909407226001814950e-01 8.615012392185832368e+00
1.919812714968468781e-01 8.718332667765274380e+00
1.930218203935122612e-01 8.365668573306368927e+00
1.940623692901776443e-01 7.434591947430227776e+00
1.951029181868430273e-01 6.384170002737079130e+00
1.961434670835084104e-01 5.964176755423697074e+00
1.971840159801737935e-01 5.491029413074709709e+00
1.982245648768391766e-01 5.472106576741605721e+00
1.992651137735045597e-01 5.325444288983888441e+00
2.003056626701699428e-01 5.166524570296409991e+00
2.013462115668353813e-01 5.006667378742182706e+00
2.023867604635007644e-01 4.428575151690694156e+00
2.034273093601661475e-01 4.435202341223813960e+00
2.044678582568315306e-01 4.571607317178358443e+00
2.055084071534969137e-01 4.127721344767063982e+00
2.065489560501622968e-01 4.211980445771203563e+00
2.075895049468276798e-01 4.335833016291417152e+00
2.086300538434930629e-01 4.538729183672067791e+00
2.096706027401584460e-01 4.608480989821678975e+00
2.107111516368238291e-01 4.211333794783307383e+00
2.117517005334892122e-01 4.296118024992889417e+00
2.127922494301545953e-01 4.298497515326751284e+00
2.138327983268199783e-01 4.270791609255024213e+00
2.148733472234853614e-01 4.525596242119220847e+00
2.159138961201507445e-01 4.807903906795175430e+00
2.169544450168161276e-01 4.894385375945997652e+00
2.179949939134815107e-01 4.772535778564254372e+00
2.190355428101468938e-01 5.161268849366898337e+00
2.200760917068122768e-01 5.125727720851507740e+00
2.211166406034776599e-01 4.884037033897026703e+00
2.221571895001430430e-01 4.860592856299046360e+00
2.231977383968084261e-01 4.687241207151984668e+00
2.242382872934738092e-01 4.329250986672246171e+00
2.252788361901391923e-01 4.134730849330775726e+00
2.263193850868045753e-01 4.196663063610699851e+00
2.273599339834699584e-01 4.243665806422960429e+00
2.284004828801353415e-01 4.342520934590723414e+00
2.294410317768007246e-01 4.055295300144123871e+00
2.304815806734661077e-01 3.980341317596238326e+00
2.315221295701314908e-01 4.174974424436896925e+00
2.325626784667968738e-01 4.258073908059568424e+00
2.336032273634622569e-01 4.196287016671760739e+00
2.346437762601276400e-01 4.069946475490610283e+00
2.356843251567930231e-01 3.992549319417545206e+00
2.367248740534584062e-01 4.162419510448621907e+00
2.377654229501237892e-01 4.388312924106813284e+00
2.388059718467891723e-01 4.131265510785894435e+00
2.398465207434545554e-01 4.279234743421547194e+00
2.408870696401199385e-01 4.429496358214269236e+00
2.419276185367853216e-01 4.250770532998512152e+00
2.429681674334507047e-01 4.227766011376356659e+00
2.440087163301160877e-01 4.369407583230845660e+00
2.450492652267814708e-01 4.407209942467886776e+00
2.460898141234468539e-01 4.110200906050838654e+00
2.471303630201122370e-01 3.539746081661466093e+00
2.481709119167776201e-01 3.322553706065303203e+00
2.492114608134430032e-01 3.221451905376191860e+00
2.502520097101083585e-01 3.228370300305531515e+00
2.512925586067737416e-01 3.152988717618274706e+00
2.523331075034391247e-01 3.187553812319407598e+00
2.533736564001045077e-01 2.997257415960710603e+00
2.544142052967698908e-01 3.393154079430694026e+00
2.554547541934352739e-01 3.448222854745278454e+00
2.564953030901006570e-01 3.238959333371433047e+00
2.575358519867660401e-01 3.280465924181903858e+00
2.585764008834314231e-01 3.152851375843955140e+00
2.596169497800968062e-01 2.994340084279784264e+00
2.606574986767621893e-01 2.868509087733762897e+00
2.616980475734275724e-01 2.805454339102780636e+00
2.627385964700929555e-01 2.836616833571149243e+00
2.637791453667583386e-01 2.754962865315597753e+00
2.648196942634237216e-01 2.780303568985718954e+00
2.658602431600891047e-01 2.660654059059023524e+00
2.669007920567544878e-01 2.860550873695331120e+00
2.679413409534198709e-01 2.584059404734954768e+00
2.689818898500852540e-01 2.571878180615104981e+00
2.700224387467506371e-01 2.572740820235619452e+00
2.710629876434160201e-01 2.679247621840826099e+00
2.721035365400814032e-01 2.660636227934706000e+00
2.731440854367467863e-01 2.595004506351148876e+00
2.741846343334121694e-01 2.868354518950827270e+00
2.752251832300775525e-01 2.763476739046122788e+00
2.762657321267429356e-01 2.564148726503159281e+00
2.773062810234083186e-01 2.729677382605007807e+00
2.783468299200737017e-01 2.622129380024862400e+00
2.793873788167390848e-01 2.768045076470148302e+00
2.804279277134044679e-01 2.956635298136699674e+00
2.814684766100698510e-01 2.842107781285708512e+00
2.825090255067352341e-01 2.783198507677347777e+00
2.835495744034006171e-01 2.568256472049124994e+00
2.845901233000660002e-01 2.277301590939675435e+00
2.856306721967313833e-01 2.619639971280331991e+00
2.866712210933967664e-01 2.793425129797689976e+00
2.877117699900621495e-01 2.793207800175252942e+00
2.887523188867275326e-01 2.557944926926555951e+00
2.897928677833929156e-01 2.506091698954399760e+00
2.908334166800582987e-01 2.492120539032701032e+00
2.918739655767236818e-01 2.469122921933273318e+00
2.929145144733890649e-01 2.590067879539052598e+00
2.939550633700544480e-01 2.808794273788738138e+00
2.949956122667198311e-01 2.752388374361295575e+00
2.960361611633852141e-01 2.312359352806051760e+00
2.970767100600505972e-01 2.351056686605652146e+00
2.981172589567159803e-01 2.541888840150871687e+00
2.991578078533813634e-01 2.600796026519294202e+00
3.001983567500468020e-01 2.497916478920043204e+00
3.012389056467121851e-01 2.385679026311585460e+00
3.022794545433775681e-01 2.487198078494834874e+00
3.033200034400429512e-01 2.472082597088494538e+00
3.043605523367083343e-01 2.756563160124045453e+00
3.054011012333737174e-01 2.865867084124463560e+00
3.064416501300391005e-01 2.834056691486789958e+00
3.074821990267044836e-01 2.585403414595788263e+00
3.085227479233698666e-01 2.781354245044564522e+00
3.095632968200352497e-01 2.531900716373193916e+00
3.106038457167006328e-01 2.441654755985855019e+00
3.116443946133660159e-01 2.736927501423359388e+00
3.126849435100313990e-01 2.674688041313256548e+00
3.137254924066967821e-01 2.700943212621922385e+00
3.147660413033621651e-01 2.531894486823862422e+00
3.158065902000275482e-01 2.766600415067184571e+00
3.168471390966929313e-01 2.932564961747985421e+00
3.178876879933583144e-01 2.435518947973765336e+00
3.189282368900236975e-01 2.284436989112190730e+00
3.199687857866890806e-01 2.222491264128883870e+00
3.210093346833544636e-01 2.161812562672285054e+00
3.220498835800198467e-01 1.989337523233906779e+00
3.230904324766852298e-01 2.296442471754616577e+00
3.241309813733506129e-01 2.251893275434181163e+00
3.251715302700159960e-01 2.055594065183587560e+00
3.262120791666813790e-01 2.066390020416733364e+00
3.272526280633467621e-01 2.121126258822350508e+00
3.282931769600121452e-01 1.964442970940968536e+00
3.293337258566775283e-01 1.974508737474440778e+00
3.303742747533429114e-01 2.190354940265731187e+00
3.314148236500082945e-01 2.193200981349885836e+00
3.324553725466736775e-01 1.990064622282801565e+00
3.334959214433390606e-01 2.054380213698681956e+00
3.345364703400044437e-01 2.006162650044650775e+00
3.355770192366698268e-01 2.106375306272038728e+00
3.366175681333352099e-01 2.250337970383736064e+00
3.376581170300005930e-01 2.036857114658200629e+00
3.386986659266659760e-01 2.065581682158072141e+00
3.397392148233313591e-01 1.941960693613129507e+00
3.407797637199967422e-01 2.048781249912355662e+00
3.418203126166621253e-01 2.060212294330824534e+00
3.428608615133275084e-01 2.109842253624556463e+00
3.439014104099928915e-01 2.229402621403501428e+00
3.449419593066582745e-01 2.106764392048532386e+00
3.459825082033236576e-01 2.175284837300743845e+00
3.470230570999890407e-01 2.115911285564575195e+00
3.480636059966544238e-01 2.371079741770117266e+00
3.491041548933198069e-01 2.554632762711197103e+00
3.501447037899851900e-01 2.358641537941743138e+00
3.511852526866505730e-01 1.969121883545302154e+00
3.522258015833159561e-01 2.114811523852441866e+00
3.532663504799813392e-01 2.107952691988721483e+00
3.543068993766467223e-01 2.271183725450409696e+00
3.553474482733121054e-01 2.163696019199356613e+00
3.563879971699774885e-01 2.071450877100527777e+00
3.574285460666428715e-01 2.271715447301566826e+00
3.584690949633082546e-01 2.102932744721009328e+00
3.595096438599736377e-01 2.169346531858195704e+00
3.605501927566390208e-01 2.120795823355798859e+00
3.615907416533044039e-01 2.009594529910934568e+00
3.626312905499697870e-01 1.940980211278390044e+00
3.636718394466351700e-01 1.843324979783687922e+00
3.647123883433005531e-01 2.060628185887100727e+00
3.657529372399659362e-01 2.015121856344297413e+00
3.667934861366313193e-01 1.974003294129165198e+00
3.678340350332967024e-01 2.051572937743440406e+00
3.688745839299620854e-01 1.938327441326162415e+00
3.699151328266274685e-01 2.042864551303029685e+00
3.709556817232928516e-01 2.254088176672226496e+00
3.719962306199582347e-01 2.373346296724033522e+00
3.730367795166236178e-01 2.365442478101602575e+00
3.740773284132890009e-01 2.267896326129431372e+00
3.751178773099543839e-01 1.982184437210584349e+00
3.761584262066197670e-01 1.896570606740660025e+00
3.771989751032851501e-01 1.931709517350579830e+00
3.782395239999505332e-01 1.896240339246919149e+00
3.792800728966159163e-01 1.998043314608473509e+00
3.803206217932812994e-01 1.782284071114112578e+00
3.813611706899466824e-01 1.741850063746550603e+00
3.824017195866120655e-01 1.935373165463865064e+00
3.834422684832774486e-01 1.926609217387007078e+00
3.844828173799428317e-01 1.913967363228824325e+00
3.855233662766082148e-01 1.818465233856255026e+00
3.865639151732735979e-01 1.730767053420539270e+00
3.876044640699389809e-01 1.809288203626156388e+00
3.886450129666043640e-01 2.078758714678571096e+00
3.896855618632697471e-01 2.038392037421409952e+00
3.907261107599351302e-01 1.975087937698070562e+00
3.917666596566005133e-01 1.883132367811011676e+00
3.928072085532658964e-01 1.806334372481693151e+00
3.938477574499312794e-01 1.720579622332433445e+00
3.948883063465966625e-01 1.674266878376048595e+00
3.959288552432620456e-01 1.852268633346877635e+00
3.969694041399274287e-01 1.862924817969883406e+00
3.980099530365928118e-01 1.778619358123954441e+00
3.990505019332581949e-01 1.794710079171796480e+00
4.000910508299235779e-01 1.731873533802705367e+00
4.011315997265889610e-01 1.797789692802087558e+00
4.021721486232543441e-01 1.739337286800992644e+00
4.032126975199197272e-01 1.548197032376243953e+00
4.042532464165851103e-01 1.686132592966462340e+00
4.052937953132504934e-01 1.777024955244602467e+00
4.063343442099158764e-01 1.847941555258721280e+00
4.073748931065812595e-01 1.834598584651399023e+00
4.084154420032466426e-01 1.699134711717782409e+00
4.094559908999120257e-01 1.785659376643792484e+00
4.104965397965774088e-01 1.630564155375498814e+00
4.115370886932427918e-01 1.566187516448799499e+00
4.125776375899081749e-01 1.466228947024845297e+00
4.136181864865735580e-01 1.677626056727000048e+00
4.146587353832389411e-01 1.856460753080913406e+00
4.156992842799043242e-01 1.772256707659998654e+00
4.167398331765697073e-01 1.891007829248291472e+00
4.177803820732350903e-01 1.786237223236156524e+00
4.188209309699004734e-01 1.748515319616618768e+00
4.198614798665658565e-01 1.723668814701202479e+00
4.209020287632312396e-01 1.675488893186727779e+00
4.219425776598966227e-01 1.704511832415160910e+00
4.229831265565620058e-01 1.696246910977624367e+00
4.240236754532273888e-01 1.898421267244948751e+00
4.250642243498927719e-01 1.942982262721233866e+00
4.261047732465581550e-01 1.602071431167633619e+00
4.271453221432235381e-01 1.617987122600478500e+00
4.281858710398889212e-01 1.572731537641814725e+00
4.292264199365543043e-01 1.741692469771670915e+00
4.302669688332196873e-01 1.499745625650930947e+00
4.313075177298850704e-01 1.448916126623117862e+00
4.323480666265504535e-01 1.546794526847804718e+00
4.333886155232158366e-01 1.502931750174301584e+00
4.344291644198812197e-01 1.521434345187692827e+00
