# q (1/Angstrom), Intensity (arb)
2.029070354705860696e-02 7.303149400690427910e+02
2.133125244372399004e-02 6.404546925372579835e+02
2.237180134038937659e-02 5.738990869037005496e+02
2.341235023705475968e-02 5.180541970124096451e+02
2.445289913372014276e-02 4.673805870742460797e+02
2.549344803038552584e-02 4.311248638809303202e+02
2.653399692705091240e-02 3.999824424711624715e+02
2.757454582371629548e-02 3.739176729545210378e+02
2.861509472038167856e-02 3.518076257623713445e+02
2.965564361704706164e-02 3.331864414981862410e+02
3.069619251371244473e-02 3.169841485447947207e+02
3.173674141037782781e-02 3.052523054276325070e+02
3.277729030704321089e-02 2.950775233923321821e+02
3.381783920370859398e-02 2.876925107795565850e+02
3.485838810037397706e-02 2.833728583539552233e+02
3.589893699703936014e-02 2.782159654290288131e+02
3.693948589370474322e-02 2.747620037960869013e+02
3.798003479037012631e-02 2.745926446015427587e+02
3.902058368703550939e-02 2.746665557321426263e+02
4.006113258370089247e-02 2.760058773909071874e+02
4.110168148036627556e-02 2.779012064399871065e+02
4.214223037703165864e-02 2.839804156360618208e+02
4.318277927369704866e-02 2.923118961989703166e+02
4.422332817036243174e-02 3.022324550723258767e+02
4.526387706702781483e-02 3.184703129578898029e+02
4.630442596369319791e-02 3.358922401828105535e+02
4.734497486035858099e-02 3.623254555086447226e+02
4.838552375702396408e-02 4.017147190391875142e+02
4.942607265368934716e-02 4.627237424474594150e+02
5.046662155035473024e-02 5.839247138956919798e+02
5.150717044702011332e-02 8.381004980376541198e+02
5.254771934368549641e-02 1.260040599567354093e+03
5.358826824035087949e-02 1.909628861877788040e+03
5.462881713701626257e-02 2.965181333599758091e+03
5.566936603368164566e-02 3.855131812048256052e+03
5.670991493034702874e-02 3.487516391574359659e+03
5.775046382701241182e-02 2.574791242928529300e+03
5.879101272367779490e-02 2.139131915575742369e+03
5.983156162034317799e-02 2.058937693492209746e+03
6.087211051700856107e-02 2.105103082529528820e+03
6.191265941367394415e-02 2.197358589025647234e+03
6.295320831033933417e-02 2.292711448150051638e+03
6.399375720700471726e-02 2.329818447015173206e+03
6.503430610367010034e-02 2.260812852129363819e+03
6.607485500033548342e-02 2.130079069714324760e+03
6.711540389700086651e-02 1.993634093426022901e+03
6.815595279366624959e-02 1.854540082072826408e+03
6.919650169033163267e-02 1.707305369650041939e+03
7.023705058699701576e-02 1.549197259625323113e+03
7.127759948366239884e-02 1.393867977271084555e+03
7.231814838032778192e-02 1.239188437536509355e+03
7.335869727699316500e-02 1.087039816106121634e+03
7.439924617365854809e-02 9.448941212962929512e+02
7.543979507032393117e-02 8.133790463729327485e+02
7.648034396698931425e-02 6.950674357289221916e+02
7.752089286365469734e-02 5.903019218868819280e+02
7.856144176032008042e-02 5.039253472629798125e+02
7.960199065698546350e-02 4.271947261707340999e+02
8.064253955365084658e-02 3.607162584562261145e+02
8.168308845031622967e-02 3.044749535799824116e+02
8.272363734698161275e-02 2.587084814709637044e+02
8.376418624364699583e-02 2.233632519341508100e+02
8.480473514031239279e-02 1.943403303074892676e+02
8.584528403697777588e-02 1.698651021438284943e+02
8.688583293364315896e-02 1.547455234548710052e+02
8.792638183030854204e-02 1.531858007037843379e+02
8.896693072697392513e-02 1.761333590205881592e+02
9.000747962363930821e-02 2.275855668443558386e+02
9.104802852030469129e-02 2.635620888708518237e+02
9.208857741697007437e-02 2.319888447490977228e+02
9.312912631363545746e-02 1.678981152764857825e+02
9.416967521030084054e-02 1.274330453641487111e+02
9.521022410696622362e-02 1.111815401344539112e+02
9.625077300363160671e-02 1.050924724879864840e+02
9.729132190029698979e-02 1.020381098225733751e+02
9.833187079696237287e-02 1.017271049875422051e+02
9.937241969362775595e-02 1.035828842647354975e+02
1.004129685902931390e-01 1.069942543446537684e+02
1.014535174869585221e-01 1.127433882109912417e+02
1.024940663836239052e-01 1.226223811589402857e+02
1.035346152802892883e-01 1.431025292150578139e+02
1.045751641769546714e-01 1.812376655116879647e+02
1.056157130736200545e-01 2.382879294363910674e+02
1.066562619702854375e-01 2.774272028664782965e+02
1.076968108669508206e-01 2.544717696547455432e+02
1.087373597636162037e-01 2.004206132602025150e+02
1.097779086602815868e-01 1.667453586108054537e+02
1.108184575569469699e-01 1.547437507404537200e+02
1.118590064536123529e-01 1.454424870242592363e+02
1.128995553502777360e-01 1.306544397183873514e+02
1.139401042469431191e-01 1.184475606625171906e+02
1.149806531436085022e-01 1.136877696782907918e+02
1.160212020402738853e-01 1.119575957388662175e+02
1.170617509369392684e-01 1.116680429769240703e+02
1.181022998336046514e-01 1.127514116838311509e+02
1.191428487302700345e-01 1.128246994886899017e+02
1.201833976269354176e-01 1.133280030305575679e+02
1.212239465236008007e-01 1.127247588201811652e+02
1.222644954202661838e-01 1.116982646633291267e+02
1.233050443169315669e-01 1.101245480864532169e+02
1.243455932135969499e-01 1.078471244946982210e+02
1.253861421102623330e-01 1.047415590665953431e+02
1.264266910069277161e-01 1.005185689802991362e+02
1.274672399035930992e-01 9.678511102844188940e+01
1.285077888002584823e-01 9.214150647406864891e+01
1.295483376969238654e-01 8.756256339616635387e+01
1.305888865935892484e-01 8.228123307594897540e+01
1.316294354902546315e-01 7.690800838567184883e+01
1.326699843869200146e-01 7.233967597602614319e+01
1.337105332835853977e-01 6.790084986998466832e+01
1.347510821802507808e-01 6.383395801340851250e+01
1.357916310769161639e-01 6.046022870657436243e+01
1.368321799735815469e-01 5.776232207336857982e+01
1.378727288702469300e-01 5.719976137513032199e+01
1.389132777669123131e-01 5.844310427976139266e+01
1.399538266635776962e-01 6.203880228475621550e+01
1.409943755602430793e-01 6.381388706558529833e+01
1.420349244569084624e-01 6.383551059360087265e+01
1.430754733535738454e-01 6.397470156471933223e+01
1.441160222502392285e-01 6.115855030668913628e+01
1.451565711469046116e-01 5.254962285768514363e+01
1.461971200435699947e-01 4.277432587788882756e+01
1.472376689402353778e-01 3.532831909138360515e+01
1.482782178369007609e-01 3.089903530682800437e+01
1.493187667335661439e-01 2.840170847226961826e+01
1.503593156302315270e-01 2.649085914468483338e+01
1.513998645268969101e-01 2.591439345592895904e+01
1.524404134235622932e-01 2.517010857190734896e+01
1.534809623202276763e-01 2.498087295656208084e+01
1.545215112168930593e-01 2.600389085546499501e+01
1.555620601135584424e-01 2.821732821542359204e+01
1.566026090102238255e-01 3.034891361090981121e+01
1.576431579068892086e-01 3.172936684854228417e+01
1.586837068035545917e-01 2.984212184367734721e+01
1.597242557002199748e-01 2.672664348827715486e+01
1.607648045968853578e-01 2.451842479377543782e+01
1.618053534935507409e-01 2.311792872996340265e+01
1.628459023902161240e-01 2.223512972477776373e+01
1.638864512868815071e-01 2.169933812168812182e+01
1.649270001835468902e-01 2.206791876949992570e+01
1.659675490802122733e-01 2.274547656363405679e+01
1.670080979768776563e-01 2.263354164918404621e+01
1.680486468735430672e-01 2.149953276309653916e+01
1.690891957702084503e-01 2.002568325870017674e+01
1.701297446668738333e-01 1.886442500665131661e+01
1.711702935635392164e-01 1.758305204543525235e+01
1.722108424602045995e-01 1.673605303849662107e+01
1.732513913568699826e-01 1.643523624084054546e+01
1.742919402535353657e-01 1.589180138950789711e+01
1.753324891502007488e-01 1.575124433796811729e+01
1.763730380468661318e-01 1.526382897651004811e+01
1.774135869435315149e-01 1.472043268071146116e+01
1.784541358401968980e-01 1.465012695789911135e+01
1.794946847368622811e-01 1.429940379416348861e+01
1.805352336335276642e-01 1.408916695119336993e+01
1.815757825301930473e-01 1.410769085536107070e+01
1.826163314268584303e-01 1.418820433602594022e+01
1.836568803235238134e-01 1.395366107131104627e+01
1.846974292201891965e-01 1.378018709541679243e+01
1.857379781168545796e-01 1.358172249130699072e+01
1.867785270135199627e-01 1.388598764946840447e+01
1.878190759101853458e-01 1.432427022138838169e+01
1.888596248068507288e-01 1.511559254776113193e+01
1.899001737035161119e-01 1.599470532541928236e+01
1.909407226001814950e-01 1.672429103501008996e+01
1.919812714968468781e-01 1.660768063085165380e+01
1.930218203935122612e-01 1.565739318077756081e+01
1.940623692901776443e-01 1.493243789854420100e+01
1.951029181868430273e-01 1.372489299223497738e+01
1.961434670835084104e-01 1.204572564910332488e+01
1.971840159801737935e-01 1.106085635337844053e+01
1.982245648768391766e-01 1.086767025962350885e+01
1.992651137735045597e-01 1.049967479745703969e+01
2.003056626701699428e-01 1.048800678588963109e+01
2.013462115668353813e-01 1.026411634845623411e+01
2.023867604635007644e-01 1.011367776714350697e+01
2.034273093601661475e-01 1.031972766138224529e+01
2.044678582568315306e-01 9.908963091760668362e+00
2.055084071534969137e-01 9.412873528921345212e+00
2.065489560501622968e-01 8.815898523915663532e+00
2.075895049468276798e-01 8.657316153941430059e+00
2.086300538434930629e-01 8.699208678822284213e+00
2.096706027401584460e-01 8.854100991255048569e+00
2.107111516368238291e-01 8.949229316596799322e+00
2.117517005334892122e-01 9.013195576915773444e+00
2.127922494301545953e-01 8.767064416648999270e+00
2.138327983268199783e-01 8.063128477090291568e+00
2.148733472234853614e-01 7.431130978917849461e+00
2.159138961201507445e-01 6.940712917157281225e+00
2.169544450168161276e-01 6.015682664408359415e+00
2.179949939134815107e-01 5.702485902713362975e+00
2.190355428101468938e-01 5.374555998684101610e+00
2.200760917068122768e-01 5.285263237239419709e+00
2.211166406034776599e-01 5.491329269798583823e+00
2.221571895001430430e-01 5.190750212771042982e+00
2.231977383968084261e-01 4.950091022392175688e+00
2.242382872934738092e-01 5.297148424731329186e+00
2.252788361901391923e-01 5.237697804128146117e+00
2.263193850868045753e-01 5.029104756429997991e+00
2.273599339834699584e-01 4.817273718090604007e+00
2.284004828801353415e-01 4.618902082768062911e+00
2.294410317768007246e-01 4.427909124099553395e+00
2.304815806734661077e-01 4.229864310985895770e+00
2.315221295701314908e-01 4.284046235559234361e+00
2.325626784667968738e-01 4.241398249370927687e+00
2.336032273634622569e-01 4.175353414614423997e+00
2.346437762601276400e-01 4.288067896553094727e+00
2.356843251567930231e-01 4.329424694930178674e+00
2.367248740534584062e-01 4.498351324525113881e+00
2.377654229501237892e-01 4.746493106197366529e+00
2.388059718467891723e-01 4.815494769736336167e+00
2.398465207434545554e-01 4.960765762794679290e+00
2.408870696401199385e-01 5.092184175844089111e+00
2.419276185367853216e-01 4.790928345721152226e+00
2.429681674334507047e-01 4.588465116740973571e+00
2.440087163301160877e-01 4.896090391187140511e+00
2.450492652267814708e-01 5.141881843544819475e+00
2.460898141234468539e-01 4.835032510803415562e+00
2.471303630201122370e-01 4.901671048775209982e+00
2.481709119167776201e-01 4.869116512071641978e+00
2.492114608134430032e-01 4.785121240357483430e+00
2.502520097101083585e-01 4.483122443198066520e+00
2.512925586067737416e-01 4.123883623194039671e+00
2.523331075034391247e-01 3.926394952365853896e+00
2.533736564001045077e-01 3.935740634272868022e+00
2.544142052967698908e-01 3.956711919602533101e+00
2.554547541934352739e-01 3.900724746826199407e+00
2.564953030901006570e-01 3.725508608939659183e+00
2.575358519867660401e-01 3.650625929336388964e+00
2.585764008834314231e-01 3.717634569599557182e+00
2.596169497800968062e-01 3.457202463665996817e+00
2.606574986767621893e-01 3.395005185656057023e+00
2.616980475734275724e-01 3.608253282430673892e+00
2.627385964700929555e-01 3.928197803924099674e+00
2.637791453667583386e-01 3.673414823308736032e+00
2.648196942634237216e-01 3.461907834135537598e+00
2.658602431600891047e-01 3.465052927996328691e+00
2.669007920567544878e-01 3.422313694704389064e+00
2.679413409534198709e-01 3.270711023574630616e+00
2.689818898500852540e-01 3.355204983675537989e+00
2.700224387467506371e-01 3.223607114551917618e+00
2.710629876434160201e-01 2.839820130122213016e+00
2.721035365400814032e-01 2.876191273038919860e+00
2.731440854367467863e-01 2.811834569179385568e+00
2.741846343334121694e-01 2.901658399204645633e+00
2.752251832300775525e-01 2.814506628589725779e+00
2.762657321267429356e-01 2.753535603978598090e+00
2.773062810234083186e-01 2.645051218197398413e+00
2.783468299200737017e-01 2.651608462715856263e+00
2.793873788167390848e-01 2.715069339973211981e+00
2.804279277134044679e-01 2.636924900488708090e+00
2.814684766100698510e-01 2.225928952889205448e+00
2.825090255067352341e-01 2.322472808475993133e+00
2.835495744034006171e-01 2.348823899407303628e+00
2.845901233000660002e-01 2.254792238097444113e+00
2.856306721967313833e-01 2.255845958490226622e+00
2.866712210933967664e-01 2.489357373813220420e+00
2.877117699900621495e-01 2.544052720703462001e+00
2.887523188867275326e-01 2.376035212981268074e+00
2.897928677833929156e-01 2.285204186450922492e+00
2.908334166800582987e-01 2.227860115794463525e+00
2.918739655767236818e-01 2.468000141365276789e+00
2.929145144733890649e-01 2.495784907934474717e+00
2.939550633700544480e-01 2.459795069174436577e+00
2.949956122667198311e-01 2.689737860889557908e+00
2.960361611633852141e-01 2.552430480572621008e+00
2.970767100600505972e-01 2.364479574030731612e+00
2.981172589567159803e-01 2.098265448059528637e+00
2.991578078533813634e-01 2.266974930924618548e+00
3.001983567500468020e-01 2.334144690357089047e+00
3.012389056467121851e-01 2.239989440179289915e+00
3.022794545433775681e-01 2.457419429665172572e+00
3.033200034400429512e-01 2.645895304703444140e+00
3.043605523367083343e-01 2.434023684174412949e+00
3.054011012333737174e-01 2.137004135622046164e+00
3.064416501300391005e-01 2.345597873320880211e+00
3.074821990267044836e-01 2.431533691858966506e+00
3.085227479233698666e-01 2.334532199943115671e+00
3.095632968200352497e-01 2.487687763278231046e+00
3.106038457167006328e-01 2.371673348211611909e+00
3.116443946133660159e-01 2.445335302912919673e+00
3.126849435100313990e-01 2.768713989411462961e+00
3.137254924066967821e-01 2.546543040255663470e+00
3.147660413033621651e-01 2.438652178890734490e+00
3.158065902000275482e-01 2.091150551403945457e+00
3.168471390966929313e-01 2.291093560620375058e+00
3.178876879933583144e-01 2.259483691832620877e+00
3.189282368900236975e-01 1.964428180573307259e+00
3.199687857866890806e-01 2.188342595315077688e+00
3.210093346833544636e-01 2.219780433548194765e+00
3.220498835800198467e-01 2.131210934186732686e+00
3.230904324766852298e-01 1.932484728184473255e+00
3.241309813733506129e-01 1.849805226138112602e+00
3.251715302700159960e-01 1.893495417154934302e+00
3.262120791666813790e-01 2.087491675143983372e+00
3.272526280633467621e-01 1.844503563015368997e+00
3.282931769600121452e-01 2.017460130100129589e+00
3.293337258566775283e-01 2.073751478206414589e+00
3.303742747533429114e-01 1.999099554519080613e+00
3.314148236500082945e-01 1.728695363976409993e+00
3.324553725466736775e-01 1.515797989104118670e+00
3.334959214433390606e-01 1.555480759540305513e+00
3.345364703400044437e-01 1.626473552516856103e+00
3.355770192366698268e-01 1.580245788482411484e+00
3.366175681333352099e-01 1.753606852174097952e+00
3.376581170300005930e-01 1.873086931101983765e+00
3.386986659266659760e-01 1.681876757553371959e+00
3.397392148233313591e-01 1.550559832428561435e+00
3.407797637199967422e-01 1.626711429307324153e+00
3.418203126166621253e-01 1.600781395844791177e+00
3.428608615133275084e-01 1.833932144476975168e+00
3.439014104099928915e-01 1.794330344364045260e+00
3.449419593066582745e-01 1.935360234607284013e+00
3.459825082033236576e-01 1.624220470247323078e+00
3.470230570999890407e-01 1.447555074235854278e+00
3.480636059966544238e-01 1.748031831773499079e+00
3.491041548933198069e-01 1.644969889993941337e+00
3.501447037899851900e-01 1.653019560513669717e+00
3.511852526866505730e-01 1.759619503244977068e+00
3.522258015833159561e-01 1.867146517729686650e+00
3.532663504799813392e-01 1.989947716597157523e+00
3.543068993766467223e-01 1.741168119335284814e+00
3.553474482733121054e-01 1.686162948900555847e+00
3.563879971699774885e-01 1.738555473208457158e+00
3.574285460666428715e-01 1.754899225257762652e+00
3.584690949633082546e-01 1.616305015421811930e+00
3.595096438599736377e-01 1.481846492208877208e+00
3.605501927566390208e-01 1.636047336350141990e+00
3.615907416533044039e-01 1.488095909090503710e+00
3.626312905499697870e-01 1.294005051128607420e+00
3.636718394466351700e-01 1.528464744558302613e+00
3.647123883433005531e-01 1.569750257217208400e+00
3.657529372399659362e-01 1.494588331734597375e+00
3.667934861366313193e-01 1.391829380104642411e+00
3.678340350332967024e-01 1.454622311435056048e+00
3.688745839299620854e-01 1.652119390580867986e+00
3.699151328266274685e-01 1.900136164093051860e+00
3.709556817232928516e-01 1.770518207538646749e+00
3.719962306199582347e-01 1.728095226467090129e+00
3.730367795166236178e-01 1.830807168051254763e+00
3.740773284132890009e-01 1.802276076443714459e+00
3.751178773099543839e-01 1.435309092635598915e+00
3.761584262066197670e-01 1.325714756491411350e+00
3.771989751032851501e-01 1.296198657097018980e+00
3.782395239999505332e-01 1.235904545918419473e+00
3.792800728966159163e-01 1.273973651134543417e+00
3.803206217932812994e-01 1.329484418118223488e+00
3.813611706899466824e-01 1.446332535570714839e+00
3.824017195866120655e-01 1.332902488384210216e+00
3.834422684832774486e-01 1.233502071531564326e+00
3.844828173799428317e-01 1.291054268126512028e+00
3.855233662766082148e-01 1.306494641752554031e+00
3.865639151732735979e-01 1.096289015876532602e+00
3.876044640699389809e-01 1.200488790541886175e+00
3.886450129666043640e-01 1.211495726628566416e+00
3.896855618632697471e-01 1.168080365278303390e+00
3.907261107599351302e-01 1.347656638034930410e+00
3.917666596566005133e-01 1.341449395789474863e+00
3.928072085532658964e-01 1.475770777293309521e+00
3.938477574499312794e-01 1.262888059795784557e+00
3.948883063465966625e-01 1.107566205786241653e+00
3.959288552432620456e-01 1.296912950821667465e+00
3.969694041399274287e-01 1.378231117288567731e+00
3.980099530365928118e-01 1.555359879992160188e+00
3.990505019332581949e-01 1.394730468843576432e+00
4.000910508299235779e-01 1.302557044896154537e+00
4.011315997265889610e-01 1.219931989690277163e+00
4.021721486232543441e-01 1.271444731052302046e+00
4.032126975199197272e-01 1.325193246904689204e+00
4.042532464165851103e-01 1.257116059175366729e+00
4.052937953132504934e-01 1.251832683648650857e+00
4.063343442099158764e-01 1.039062943522758076e+00
4.073748931065812595e-01 1.030360584648779110e+00
4.084154420032466426e-01 1.287738105073191974e+00
4.094559908999120257e-01 1.202486292236578436e+00
4.104965397965774088e-01 1.230030822874116581e+00
4.115370886932427918e-01 1.068310956215412943e+00
4.125776375899081749e-01 1.136521167781811670e+00
4.136181864865735580e-01 1.442965036628276465e+00
4.146587353832389411e-01 1.307381648180850675e+00
4.156992842799043242e-01 1.357335683682549643e+00
4.167398331765697073e-01 1.164170246613231541e+00
4.177803820732350903e-01 9.892166187004924893e-01
4.188209309699004734e-01 1.055247776922143998e+00
4.198614798665658565e-01 1.166388787082805578e+00
4.209020287632312396e-01 1.243011562178580220e+00
4.219425776598966227e-01 1.270259918122736309e+00
4.229831265565620058e-01 1.187891256070052748e+00
4.240236754532273888e-01 1.256658672965965451e+00
4.250642243498927719e-01 1.207604438099046718e+00
4.261047732465581550e-01 1.018477268604943475e+00
4.271453221432235381e-01 9.151747151222195953e-01
4.281858710398889212e-01 1.096985140123088343e+00
4.292264199365543043e-01 1.189512373387408672e+00
4.302669688332196873e-01 9.621361377835633277e-01
4.313075177298850704e-01 9.780423380212575069e-01
4.323480666265504535e-01 1.016607983325972242e+00
4.333886155232158366e-01 1.008885039226733227e+00
4.344291644198812197e-01 9.474246063871163415e-01
