# q (1/Angstrom), Intensity (arb)
2.029070354705860696e-02 1.016958199525559735e+03
2.133125244372399004e-02 8.996465097355609259e+02
2.237180134038937659e-02 8.077570216607300608e+02
2.341235023705475968e-02 7.287763270562757043e+02
2.445289913372014276e-02 6.698234189219504060e+02
2.549344803038552584e-02 6.205318176938984607e+02
2.653399692705091240e-02 5.770236256841737941e+02
2.757454582371629548e-02 5.466619297313638981e+02
2.861509472038167856e-02 5.233784696189675287e+02
2.965564361704706164e-02 4.999667472248099784e+02
3.069619251371244473e-02 4.784888492820748525e+02
3.173674141037782781e-02 4.658837053195655358e+02
3.277729030704321089e-02 4.557322360731451454e+02
3.381783920370859398e-02 4.489516773930403701e+02
3.485838810037397706e-02 4.437488314076279039e+02
3.589893699703936014e-02 4.392481689237097271e+02
3.693948589370474322e-02 4.406041577090966257e+02
3.798003479037012631e-02 4.451140772965344468e+02
3.902058368703550939e-02 4.517872638943530319e+02
4.006113258370089247e-02 4.574830717071629351e+02
4.110168148036627556e-02 4.692211763191152158e+02
4.214223037703165864e-02 4.872691437361071962e+02
4.318277927369704866e-02 5.139956855120564114e+02
4.422332817036243174e-02 5.464069343810266446e+02
4.526387706702781483e-02 5.947230416234727954e+02
4.630442596369319791e-02 6.698867023920977317e+02
4.734497486035858099e-02 8.083358439470448502e+02
4.838552375702396408e-02 1.094707422949069041e+03
4.942607265368934716e-02 1.630852534433588744e+03
5.046662155035473024e-02 2.457857764702715940e+03
5.150717044702011332e-02 3.824960969114148156e+03
5.254771934368549641e-02 5.108529532210244724e+03
5.358826824035087949e-02 4.804269847400885737e+03
5.462881713701626257e-02 3.712122738713897434e+03
5.566936603368164566e-02 3.231827907213680646e+03
5.670991493034702874e-02 3.211755478263873556e+03
5.775046382701241182e-02 3.344899178821157420e+03
5.879101272367779490e-02 3.492664343667948742e+03
5.983156162034317799e-02 3.578105334133820634e+03
6.087211051700856107e-02 3.520256884983960390e+03
6.191265941367394415e-02 3.318260521218274789e+03
6.295320831033933417e-02 3.047517734045231464e+03
6.399375720700471726e-02 2.764366462570106705e+03
6.503430610367010034e-02 2.480255684230925908e+03
6.607485500033548342e-02 2.192430632477093241e+03
6.711540389700086651e-02 1.909389288549112507e+03
6.815595279366624959e-02 1.637651884006078944e+03
6.919650169033163267e-02 1.390527062682864198e+03
7.023705058699701576e-02 1.168014142340822218e+03
7.127759948366239884e-02 9.731817982371197786e+02
7.231814838032778192e-02 8.052178387663919921e+02
7.335869727699316500e-02 6.640403151111128182e+02
7.439924617365854809e-02 5.527068343965642043e+02
7.543979507032393117e-02 4.602266208633453743e+02
7.648034396698931425e-02 3.856517044438014636e+02
7.752089286365469734e-02 3.255595447483125326e+02
7.856144176032008042e-02 2.773443867773547709e+02
7.960199065698546350e-02 2.415834404152419950e+02
8.064253955365084658e-02 2.147821014798955446e+02
8.168308845031622967e-02 1.967886400814114154e+02
8.272363734698161275e-02 1.958252781458897971e+02
8.376418624364699583e-02 2.212339760400780619e+02
8.480473514031239279e-02 2.947327613208207708e+02
8.584528403697777588e-02 3.713811090825664678e+02
8.688583293364315896e-02 3.499492066732844933e+02
8.792638183030854204e-02 2.604791485484950044e+02
8.896693072697392513e-02 1.979732474159382321e+02
9.000747962363930821e-02 1.740240468095537381e+02
9.104802852030469129e-02 1.668684109030973559e+02
9.208857741697007437e-02 1.660233679003645761e+02
9.312912631363545746e-02 1.706536058324398653e+02
9.416967521030084054e-02 1.765216680043006363e+02
9.521022410696622362e-02 1.818329049018497869e+02
9.625077300363160671e-02 1.921952037974802749e+02
9.729132190029698979e-02 2.102045707763868734e+02
9.833187079696237287e-02 2.459427387460102068e+02
9.937241969362775595e-02 3.129826732843778814e+02
1.004129685902931390e-01 3.849222063906380527e+02
1.014535174869585221e-01 3.897817296424057645e+02
1.024940663836239052e-01 3.230802678344459196e+02
1.035346152802892883e-01 2.634830983216342588e+02
1.045751641769546714e-01 2.409746496354659371e+02
1.056157130736200545e-01 2.290860194584686838e+02
1.066562619702854375e-01 2.110057077916102344e+02
1.076968108669508206e-01 1.957841616791561705e+02
1.087373597636162037e-01 1.875306406050780481e+02
1.097779086602815868e-01 1.855687683573187883e+02
1.108184575569469699e-01 1.856081012476912804e+02
1.118590064536123529e-01 1.863986057506420195e+02
1.128995553502777360e-01 1.863441248639988714e+02
1.139401042469431191e-01 1.835882109670580178e+02
1.149806531436085022e-01 1.806763161724302904e+02
1.160212020402738853e-01 1.764152450263497656e+02
1.170617509369392684e-01 1.698468869864794328e+02
1.181022998336046514e-01 1.627434513931461311e+02
1.191428487302700345e-01 1.548420321790763978e+02
1.201833976269354176e-01 1.453103329711027811e+02
1.212239465236008007e-01 1.354999813815609286e+02
1.222644954202661838e-01 1.255188663899806158e+02
1.233050443169315669e-01 1.162596147880286139e+02
1.243455932135969499e-01 1.070585633363579063e+02
1.253861421102623330e-01 9.841656590618549671e+01
1.264266910069277161e-01 9.010615012515275168e+01
1.274672399035930992e-01 8.406559306911640306e+01
1.285077888002584823e-01 7.906244766949234304e+01
1.295483376969238654e-01 7.595757769559232031e+01
1.305888865935892484e-01 7.581790974130072414e+01
1.316294354902546315e-01 7.927331783327950632e+01
1.326699843869200146e-01 8.456279506796929013e+01
1.337105332835853977e-01 8.645703802887530287e+01
1.347510821802507808e-01 8.690494557265895992e+01
1.357916310769161639e-01 8.616892965267700788e+01
1.368321799735815469e-01 7.626358343834158404e+01
1.378727288702469300e-01 6.034162884139175986e+01
1.389132777669123131e-01 4.818711657117098923e+01
1.399538266635776962e-01 4.146620498291482448e+01
1.409943755602430793e-01 3.785690472091437897e+01
1.420349244569084624e-01 3.554177096580035311e+01
1.430754733535738454e-01 3.432706629897119655e+01
1.441160222502392285e-01 3.414401604209125196e+01
1.451565711469046116e-01 3.501746439278790746e+01
1.461971200435699947e-01 3.655276727014136640e+01
1.472376689402353778e-01 3.976054704053606059e+01
1.482782178369007609e-01 4.385174568434219822e+01
1.493187667335661439e-01 4.495270350510787694e+01
1.503593156302315270e-01 4.224099264566955725e+01
1.513998645268969101e-01 3.842349733882345930e+01
1.524404134235622932e-01 3.565253513470996438e+01
1.534809623202276763e-01 3.482003143360305586e+01
1.545215112168930593e-01 3.401701300069709077e+01
1.555620601135584424e-01 3.385418084524901161e+01
1.566026090102238255e-01 3.381668639723447001e+01
1.576431579068892086e-01 3.399272570207156718e+01
1.586837068035545917e-01 3.325626752242904161e+01
1.597242557002199748e-01 3.120754930419576567e+01
1.607648045968853578e-01 2.908842311793668500e+01
1.618053534935507409e-01 2.713713334741608918e+01
1.628459023902161240e-01 2.641337872674544940e+01
1.638864512868815071e-01 2.566899736695128809e+01
1.649270001835468902e-01 2.563225820141713029e+01
1.659675490802122733e-01 2.519731016092659104e+01
1.670080979768776563e-01 2.420309751569214995e+01
1.680486468735430672e-01 2.354521075271149044e+01
1.690891957702084503e-01 2.356737876375912322e+01
1.701297446668738333e-01 2.315195575204594292e+01
1.711702935635392164e-01 2.234029067545748859e+01
1.722108424602045995e-01 2.188662956792561687e+01
1.732513913568699826e-01 2.186566124365962338e+01
1.742919402535353657e-01 2.129503420984159590e+01
1.753324891502007488e-01 2.031191515016174520e+01
1.763730380468661318e-01 2.066534360186312824e+01
1.774135869435315149e-01 2.129995056235166118e+01
1.784541358401968980e-01 2.288584548968922405e+01
1.794946847368622811e-01 2.500904850585634165e+01
1.805352336335276642e-01 2.562320735566814278e+01
1.815757825301930473e-01 2.499899617999575696e+01
1.826163314268584303e-01 2.310118252688543805e+01
1.836568803235238134e-01 2.067562366870084389e+01
1.846974292201891965e-01 1.836284060206892832e+01
1.857379781168545796e-01 1.672839908519237184e+01
1.867785270135199627e-01 1.566112160395366715e+01
1.878190759101853458e-01 1.495147697439217893e+01
1.888596248068507288e-01 1.457137992876427290e+01
1.899001737035161119e-01 1.454360484432810097e+01
1.909407226001814950e-01 1.419356241002135022e+01
1.919812714968468781e-01 1.409062893603103106e+01
1.930218203935122612e-01 1.379984594501648587e+01
1.940623692901776443e-01 1.306264522627451186e+01
1.951029181868430273e-01 1.248932212652742635e+01
1.961434670835084104e-01 1.208807027443744886e+01
1.971840159801737935e-01 1.208669292529899764e+01
1.982245648768391766e-01 1.221518738590114594e+01
1.992651137735045597e-01 1.246522427783740739e+01
2.003056626701699428e-01 1.238981167537921380e+01
2.013462115668353813e-01 1.197375808738753022e+01
2.023867604635007644e-01 1.060927182228322607e+01
2.034273093601661475e-01 9.790487141540815230e+00
2.044678582568315306e-01 8.830078559689873430e+00
2.055084071534969137e-01 8.018568836086771512e+00
2.065489560501622968e-01 8.037031647319366812e+00
2.075895049468276798e-01 7.976133623979777099e+00
2.086300538434930629e-01 7.819528030089614390e+00
2.096706027401584460e-01 7.449106273772024167e+00
2.107111516368238291e-01 7.629111974377757122e+00
2.117517005334892122e-01 7.632210037945611703e+00
2.127922494301545953e-01 7.168653508870015401e+00
2.138327983268199783e-01 7.126418875533815367e+00
2.148733472234853614e-01 7.321184829326732313e+00
2.159138961201507445e-01 6.997749957723911507e+00
2.169544450168161276e-01 6.458637544216230708e+00
2.179949939134815107e-01 6.478691238488586635e+00
2.190355428101468938e-01 6.566515094436809363e+00
2.200760917068122768e-01 6.658206937614281173e+00
2.211166406034776599e-01 6.576004169463733007e+00
2.221571895001430430e-01 6.772182149777883353e+00
2.231977383968084261e-01 6.829883806789823097e+00
2.242382872934738092e-01 6.762571336464688443e+00
2.252788361901391923e-01 6.940946078740655167e+00
2.263193850868045753e-01 6.816739803672518860e+00
2.273599339834699584e-01 6.891812417103182042e+00
2.284004828801353415e-01 6.833057578901616580e+00
2.294410317768007246e-01 6.765377261450066015e+00
2.304815806734661077e-01 7.132399352548315363e+00
2.315221295701314908e-01 7.190892261566329324e+00
2.325626784667968738e-01 7.193976984862793245e+00
2.336032273634622569e-01 7.153053659629364347e+00
2.346437762601276400e-01 6.889103316602529503e+00
2.356843251567930231e-01 6.055842918677520004e+00
2.367248740534584062e-01 5.725428451374416028e+00
2.377654229501237892e-01 5.481010517689661299e+00
2.388059718467891723e-01 5.038936638320073769e+00
2.398465207434545554e-01 4.631573036098288298e+00
2.408870696401199385e-01 4.859226023344941581e+00
2.419276185367853216e-01 4.686041960531728279e+00
2.429681674334507047e-01 4.317743974856202982e+00
2.440087163301160877e-01 4.102407348703884793e+00
2.450492652267814708e-01 3.945370817171617972e+00
2.460898141234468539e-01 4.054282822830057142e+00
2.471303630201122370e-01 4.250734357337865532e+00
2.481709119167776201e-01 4.222593096526651379e+00
2.492114608134430032e-01 4.309018161616226195e+00
2.502520097101083585e-01 4.404588029630136958e+00
2.512925586067737416e-01 4.473640299019791655e+00
2.523331075034391247e-01 4.259881360304419218e+00
2.533736564001045077e-01 3.834158103346243962e+00
2.544142052967698908e-01 3.770933249338916937e+00
2.554547541934352739e-01 3.470403054668611986e+00
2.564953030901006570e-01 3.050302467411587060e+00
2.575358519867660401e-01 3.030129373916537361e+00
2.585764008834314231e-01 3.071859359637134190e+00
2.596169497800968062e-01 3.133616623516040534e+00
2.606574986767621893e-01 2.826682538456250171e+00
2.616980475734275724e-01 2.871763024512777207e+00
2.627385964700929555e-01 2.808804265033600700e+00
2.637791453667583386e-01 2.987937054884667987e+00
2.648196942634237216e-01 2.497968160643232238e+00
2.658602431600891047e-01 2.425064372561948289e+00
2.669007920567544878e-01 2.413281244122607916e+00
2.679413409534198709e-01 2.630904686320604924e+00
2.689818898500852540e-01 2.787674626524015764e+00
2.700224387467506371e-01 2.844794001836138619e+00
2.710629876434160201e-01 2.807292276654393959e+00
2.721035365400814032e-01 2.753215893448906826e+00
2.731440854367467863e-01 3.038735452897498135e+00
2.741846343334121694e-01 3.050268183839069280e+00
2.752251832300775525e-01 2.976361394329678944e+00
2.762657321267429356e-01 2.877105298086419793e+00
2.773062810234083186e-01 2.792828052049781462e+00
2.783468299200737017e-01 3.044566285940049966e+00
2.793873788167390848e-01 2.847376070452295238e+00
2.804279277134044679e-01 2.800514108603042729e+00
2.814684766100698510e-01 2.746390277817212677e+00
2.825090255067352341e-01 2.791611858750883357e+00
2.835495744034006171e-01 2.652115340746185268e+00
2.845901233000660002e-01 2.697008124049567357e+00
2.856306721967313833e-01 2.671126766395566676e+00
2.866712210933967664e-01 2.767442673930077035e+00
2.877117699900621495e-01 2.828674167813254314e+00
2.887523188867275326e-01 2.650313511589097004e+00
2.897928677833929156e-01 2.657494368679028440e+00
2.908334166800582987e-01 2.532524636175566002e+00
2.918739655767236818e-01 2.533343102184069551e+00
2.929145144733890649e-01 2.349667112988644391e+00
2.939550633700544480e-01 2.230378089522666585e+00
2.949956122667198311e-01 2.506055762613403459e+00
2.960361611633852141e-01 2.456344137185016763e+00
2.970767100600505972e-01 2.214988669276053201e+00
2.981172589567159803e-01 2.447386132788864188e+00
2.991578078533813634e-01 2.506146189776028876e+00
3.001983567500468020e-01 2.236939986222981958e+00
3.012389056467121851e-01 2.278502057176201134e+00
3.022794545433775681e-01 2.529184640722728972e+00
3.033200034400429512e-01 2.429190526899809299e+00
3.043605523367083343e-01 2.010625090993112707e+00
3.054011012333737174e-01 1.883364560140449839e+00
3.064416501300391005e-01 1.872944312274043455e+00
3.074821990267044836e-01 1.682970875310722647e+00
3.085227479233698666e-01 2.074800871263231983e+00
3.095632968200352497e-01 2.181013658524840082e+00
3.106038457167006328e-01 1.934812402879249049e+00
3.116443946133660159e-01 1.701018404646333693e+00
3.126849435100313990e-01 1.410818743137472353e+00
3.137254924066967821e-01 1.452768167554715717e+00
3.147660413033621651e-01 1.529829661685255360e+00
3.158065902000275482e-01 1.772556561066810588e+00
3.168471390966929313e-01 1.558971659313083791e+00
3.178876879933583144e-01 1.328123260832008157e+00
3.189282368900236975e-01 1.371569511356035775e+00
3.199687857866890806e-01 1.369497410496819612e+00
3.210093346833544636e-01 1.366797366607105602e+00
3.220498835800198467e-01 1.395951954445916243e+00
3.230904324766852298e-01 1.713477832160972270e+00
3.241309813733506129e-01 1.771200520440647352e+00
3.251715302700159960e-01 1.778838500630442354e+00
3.262120791666813790e-01 1.806509906259552878e+00
3.272526280633467621e-01 1.913329788073863114e+00
3.282931769600121452e-01 2.051017550408708701e+00
3.293337258566775283e-01 1.642013028702272948e+00
3.303742747533429114e-01 1.532429348217331011e+00
3.314148236500082945e-01 1.528137566114235568e+00
3.324553725466736775e-01 1.597224482062504336e+00
3.334959214433390606e-01 1.864317691800255972e+00
3.345364703400044437e-01 1.741029419736108252e+00
3.355770192366698268e-01 1.624949997879575392e+00
3.366175681333352099e-01 1.688309955606250412e+00
3.376581170300005930e-01 1.744722552222199852e+00
3.386986659266659760e-01 1.622745852506270126e+00
3.397392148233313591e-01 1.667339109603258152e+00
3.407797637199967422e-01 2.002669252710123970e+00
3.418203126166621253e-01 1.632424020007274379e+00
3.428608615133275084e-01 1.414702590884285627e+00
3.439014104099928915e-01 1.359634697405684989e+00
3.449419593066582745e-01 1.292241791386533833e+00
3.459825082033236576e-01 1.372856280520331040e+00
3.470230570999890407e-01 1.380720871652229675e+00
3.480636059966544238e-01 1.535068499094503380e+00
3.491041548933198069e-01 1.291091528144079348e+00
3.501447037899851900e-01 1.482733972927000821e+00
3.511852526866505730e-01 1.393762145830834243e+00
3.522258015833159561e-01 1.552731542050612035e+00
3.532663504799813392e-01 1.251568929621836190e+00
3.543068993766467223e-01 1.273206927801243893e+00
3.553474482733121054e-01 1.175888950035087532e+00
3.563879971699774885e-01 1.104222396899476877e+00
3.574285460666428715e-01 1.107396398748964117e+00
3.584690949633082546e-01 1.104777291975324260e+00
3.595096438599736377e-01 1.201470295088373774e+00
3.605501927566390208e-01 1.115970548318703237e+00
3.615907416533044039e-01 1.004590847017183819e+00
3.626312905499697870e-01 1.138600865520679406e+00
3.636718394466351700e-01 1.287481900349838781e+00
3.647123883433005531e-01 1.120211672392581903e+00
3.657529372399659362e-01 9.055282486496558647e-01
3.667934861366313193e-01 1.000165211500380735e+00
3.678340350332967024e-01 1.062032161159756072e+00
3.688745839299620854e-01 1.297003373848497176e+00
3.699151328266274685e-01 1.228170116619939023e+00
3.709556817232928516e-01 1.252358384761208754e+00
3.719962306199582347e-01 1.308437856826159873e+00
3.730367795166236178e-01 1.201844643573441118e+00
3.740773284132890009e-01 1.116634775280665792e+00
3.751178773099543839e-01 1.230027284069308280e+00
3.761584262066197670e-01 1.325287330456433210e+00
3.771989751032851501e-01 1.138609271710194548e+00
3.782395239999505332e-01 1.123248026086034912e+00
3.792800728966159163e-01 9.820356376554464362e-01
3.803206217932812994e-01 9.332144572181277908e-01
3.813611706899466824e-01 9.792932221942862725e-01
3.824017195866120655e-01 1.057146091316770509e+00
3.834422684832774486e-01 1.156315282760562724e+00
3.844828173799428317e-01 1.248956986340076014e+00
3.855233662766082148e-01 1.244892767944936196e+00
3.865639151732735979e-01 1.101719167269898492e+00
3.876044640699389809e-01 1.147635347277972784e+00
3.886450129666043640e-01 1.215735450484277891e+00
3.896855618632697471e-01 1.296043422309384852e+00
3.907261107599351302e-01 1.204319444020423902e+00
3.917666596566005133e-01 9.549822797098670435e-01
3.928072085532658964e-01 9.656390867824882207e-01
3.938477574499312794e-01 1.049189652203626366e+00
3.948883063465966625e-01 9.717083720732340169e-01
3.959288552432620456e-01 1.128349939327552676e+00
3.969694041399274287e-01 1.083867225586978122e+00
3.980099530365928118e-01 8.914121837098747392e-01
3.990505019332581949e-01 1.054019031363694126e+00
4.000910508299235779e-01 9.412008041949491144e-01
4.011315997265889610e-01 8.709269877638057267e-01
4.021721486232543441e-01 8.266011415262717321e-01
4.032126975199197272e-01 9.806927014983877200e-01
4.042532464165851103e-01 9.724039881353725434e-01
4.052937953132504934e-01 1.114083720110542686e+00
4.063343442099158764e-01 9.580439697307454594e-01
4.073748931065812595e-01 9.698813878473231398e-01
4.084154420032466426e-01 7.334133185132216681e-01
4.094559908999120257e-01 8.226496846890789527e-01
4.104965397965774088e-01 9.879349504767382939e-01
4.115370886932427918e-01 1.005622014905604544e+00
4.125776375899081749e-01 8.362959178035893615e-01
4.136181864865735580e-01 8.484256793926654439e-01
4.146587353832389411e-01 9.386086758857352663e-01
4.156992842799043242e-01 8.046847128883172218e-01
4.167398331765697073e-01 9.678538036296977509e-01
4.177803820732350903e-01 1.002332638538298681e+00
4.188209309699004734e-01 8.962761084940993328e-01
4.198614798665658565e-01 8.206653428974988174e-01
4.209020287632312396e-01 6.170456537083701676e-01
4.219425776598966227e-01 6.104420023164607301e-01
4.229831265565620058e-01 5.029593549148216880e-01
4.240236754532273888e-01 6.262548746355847129e-01
4.250642243498927719e-01 9.318792746587973852e-01
4.261047732465581550e-01 8.841342038995705366e-01
4.271453221432235381e-01 7.459039674265852682e-01
4.281858710398889212e-01 6.020685438437283210e-01
4.292264199365543043e-01 6.952154822035048198e-01
4.302669688332196873e-01 7.732541900170488702e-01
4.313075177298850704e-01 8.569454639763094406e-01
4.323480666265504535e-01 7.898279069746685366e-01
4.333886155232158366e-01 8.444619901867085332e-01
4.344291644198812197e-01 7.327517622865649116e-01
