# q (1/Angstrom), Intensity (arb)
2.029070354705860696e-02 8.248135773450985653e+02
2.133125244372399004e-02 7.299451076819638047e+02
2.237180134038937659e-02 6.548153571379427831e+02
2.341235023705475968e-02 5.856057770163203031e+02
2.445289913372014276e-02 5.379240369876688419e+02
2.549344803038552584e-02 5.001654176726927972e+02
2.653399692705091240e-02 4.643856722034051359e+02
2.757454582371629548e-02 4.316272056402353314e+02
2.861509472038167856e-02 4.060139626068331040e+02
2.965564361704706164e-02 3.849670580197054051e+02
3.069619251371244473e-02 3.690545248660666289e+02
3.173674141037782781e-02 3.559315339676716121e+02
3.277729030704321089e-02 3.475968105699643047e+02
3.381783920370859398e-02 3.404343009901647861e+02
3.485838810037397706e-02 3.338801503225797660e+02
3.589893699703936014e-02 3.296345472085283745e+02
3.693948589370474322e-02 3.271690518025692427e+02
3.798003479037012631e-02 3.251132206992130023e+02
3.902058368703550939e-02 3.272107000379269266e+02
4.006113258370089247e-02 3.302699048278688565e+02
4.110168148036627556e-02 3.362377472027838508e+02
4.214223037703165864e-02 3.448314132200083577e+02
4.318277927369704866e-02 3.548663791038651425e+02
4.422332817036243174e-02 3.698667700853799261e+02
4.526387706702781483e-02 3.919168237904286798e+02
4.630442596369319791e-02 4.201274730244887792e+02
4.734497486035858099e-02 4.613201404554683336e+02
4.838552375702396408e-02 5.251857797914914272e+02
4.942607265368934716e-02 6.502313599481776691e+02
5.046662155035473024e-02 9.075261270550951167e+02
5.150717044702011332e-02 1.367998271126831014e+03
5.254771934368549641e-02 2.061868894110335077e+03
5.358826824035087949e-02 3.206875146241078710e+03
5.462881713701626257e-02 4.294449746531843630e+03
5.566936603368164566e-02 4.017782808462387493e+03
5.670991493034702874e-02 3.009791238505297770e+03
5.775046382701241182e-02 2.513303611986904343e+03
5.879101272367779490e-02 2.431000609172638178e+03
5.983156162034317799e-02 2.491348594907776715e+03
6.087211051700856107e-02 2.601190918417796638e+03
6.191265941367394415e-02 2.710597939105154637e+03
6.295320831033933417e-02 2.737165078919360894e+03
6.399375720700471726e-02 2.638373138095263585e+03
6.503430610367010034e-02 2.473577201398020406e+03
6.607485500033548342e-02 2.296147834512553345e+03
6.711540389700086651e-02 2.117141004617019007e+03
6.815595279366624959e-02 1.927041867298999477e+03
6.919650169033163267e-02 1.731239536188302054e+03
7.023705058699701576e-02 1.535342102385288854e+03
7.127759948366239884e-02 1.347291593867444362e+03
7.231814838032778192e-02 1.168331560352914948e+03
7.335869727699316500e-02 1.001618537846976892e+03
7.439924617365854809e-02 8.529917106130008051e+02
7.543979507032393117e-02 7.224983222184479246e+02
7.648034396698931425e-02 6.094795796384020150e+02
7.752089286365469734e-02 5.124706349930230544e+02
7.856144176032008042e-02 4.321872124875633858e+02
7.960199065698546350e-02 3.641055942384930404e+02
8.064253955365084658e-02 3.071961300305414397e+02
8.168308845031622967e-02 2.610963404884311103e+02
8.272363734698161275e-02 2.244720022112424545e+02
8.376418624364699583e-02 1.941349353881232958e+02
8.480473514031239279e-02 1.738453097038774899e+02
8.584528403697777588e-02 1.647816781256201466e+02
8.688583293364315896e-02 1.763727953057457682e+02
8.792638183030854204e-02 2.202893932676055044e+02
8.896693072697392513e-02 2.834378644161741363e+02
9.000747962363930821e-02 2.901737068934904187e+02
9.104802852030469129e-02 2.249986139174875461e+02
9.208857741697007437e-02 1.635855559510967510e+02
9.312912631363545746e-02 1.359026180048494155e+02
9.416967521030084054e-02 1.246012982535648348e+02
9.521022410696622362e-02 1.208344255549774289e+02
9.625077300363160671e-02 1.214914047853558543e+02
9.729132190029698979e-02 1.237049474654732819e+02
9.833187079696237287e-02 1.265162016311756901e+02
9.937241969362775595e-02 1.324184948278663398e+02
1.004129685902931390e-01 1.419903464143799852e+02
1.014535174869585221e-01 1.606546681781272241e+02
1.024940663836239052e-01 1.961316026158578723e+02
1.035346152802892883e-01 2.572165929322082434e+02
1.045751641769546714e-01 3.124199568534472178e+02
1.056157130736200545e-01 3.047249907494640411e+02
1.066562619702854375e-01 2.448841439323628038e+02
1.076968108669508206e-01 1.997772032033453797e+02
1.087373597636162037e-01 1.833212045449155312e+02
1.097779086602815868e-01 1.732284140506453127e+02
1.108184575569469699e-01 1.581916376604921197e+02
1.118590064536123529e-01 1.435519816558136199e+02
1.128995553502777360e-01 1.361710777397047138e+02
1.139401042469431191e-01 1.344087969649169167e+02
1.149806531436085022e-01 1.346087838967129358e+02
1.160212020402738853e-01 1.356836701030637187e+02
1.170617509369392684e-01 1.364206172693530732e+02
1.181022998336046514e-01 1.363834509138447970e+02
1.191428487302700345e-01 1.344631921209432051e+02
1.201833976269354176e-01 1.328071673563834167e+02
1.212239465236008007e-01 1.305285657243614992e+02
1.222644954202661838e-01 1.278406558176375256e+02
1.233050443169315669e-01 1.231413553079143668e+02
1.243455932135969499e-01 1.175770223008647548e+02
1.253861421102623330e-01 1.117788661944539541e+02
1.264266910069277161e-01 1.058146435604317190e+02
1.274672399035930992e-01 9.912115464886608152e+01
1.285077888002584823e-01 9.319971377986564676e+01
1.295483376969238654e-01 8.722038740987488836e+01
1.305888865935892484e-01 8.177828521740741508e+01
1.316294354902546315e-01 7.640329246944423858e+01
1.326699843869200146e-01 7.111811721962217803e+01
1.337105332835853977e-01 6.698597693093508099e+01
1.347510821802507808e-01 6.443952616842508974e+01
1.357916310769161639e-01 6.437514444213215370e+01
1.368321799735815469e-01 6.672559720674539108e+01
1.378727288702469300e-01 7.086180121900733297e+01
1.389132777669123131e-01 7.224985108850330562e+01
1.399538266635776962e-01 7.265707520851310619e+01
1.409943755602430793e-01 7.240574527439184749e+01
1.420349244569084624e-01 6.663245513621060923e+01
1.430754733535738454e-01 5.562834152480939309e+01
1.441160222502392285e-01 4.450301865022123593e+01
1.451565711469046116e-01 3.741206861896469604e+01
1.461971200435699947e-01 3.395834371169992494e+01
1.472376689402353778e-01 3.123523811736691158e+01
1.482782178369007609e-01 2.959285055425792166e+01
1.493187667335661439e-01 2.864870897658672533e+01
1.503593156302315270e-01 2.847305374124916710e+01
1.513998645268969101e-01 2.900458995936782713e+01
1.524404134235622932e-01 3.047806889306686884e+01
1.534809623202276763e-01 3.315446237027479981e+01
1.545215112168930593e-01 3.574794658542447223e+01
1.555620601135584424e-01 3.584550637597340739e+01
1.566026090102238255e-01 3.251293227055997903e+01
1.576431579068892086e-01 2.937934907334164336e+01
1.586837068035545917e-01 2.701803677486162769e+01
1.597242557002199748e-01 2.625645375697872907e+01
1.607648045968853578e-01 2.587497113196658205e+01
1.618053534935507409e-01 2.541706311450806766e+01
1.628459023902161240e-01 2.581075564703446901e+01
1.638864512868815071e-01 2.633281624005942945e+01
1.649270001835468902e-01 2.569232958889074325e+01
1.659675490802122733e-01 2.363677789390228412e+01
1.670080979768776563e-01 2.212360155936337947e+01
1.680486468735430672e-01 2.089989513557341638e+01
1.690891957702084503e-01 2.023676644874823438e+01
1.701297446668738333e-01 1.952076156143257890e+01
1.711702935635392164e-01 1.929281168225821830e+01
1.722108424602045995e-01 1.862943743119261342e+01
1.732513913568699826e-01 1.791044085332726610e+01
1.742919402535353657e-01 1.761201711209464804e+01
1.753324891502007488e-01 1.738861856557631569e+01
1.763730380468661318e-01 1.738498038844520011e+01
1.774135869435315149e-01 1.668113908127494227e+01
1.784541358401968980e-01 1.649353388346619198e+01
1.794946847368622811e-01 1.709941906813312329e+01
1.805352336335276642e-01 1.651434007418274774e+01
1.815757825301930473e-01 1.602482601285757369e+01
1.826163314268584303e-01 1.601424134209800343e+01
1.836568803235238134e-01 1.604921930032799082e+01
1.846974292201891965e-01 1.677277932420870599e+01
1.857379781168545796e-01 1.806100571383293385e+01
1.867785270135199627e-01 1.943940277677076267e+01
1.878190759101853458e-01 1.965277630378950136e+01
1.888596248068507288e-01 1.944712163857143850e+01
1.899001737035161119e-01 1.826573789390049996e+01
1.909407226001814950e-01 1.637959687056173408e+01
1.919812714968468781e-01 1.497648166936111380e+01
1.930218203935122612e-01 1.365565753986921038e+01
1.940623692901776443e-01 1.292775035509915682e+01
1.951029181868430273e-01 1.233629867767470500e+01
1.961434670835084104e-01 1.196048674376746135e+01
1.971840159801737935e-01 1.171084335463095982e+01
1.982245648768391766e-01 1.154268324586507077e+01
1.992651137735045597e-01 1.158284243602349051e+01
2.003056626701699428e-01 1.136345871890976866e+01
2.013462115668353813e-01 1.110236433460114114e+01
2.023867604635007644e-01 1.089155778354842852e+01
2.034273093601661475e-01 1.020320357456980176e+01
2.044678582568315306e-01 9.975451990873217767e+00
2.055084071534969137e-01 9.981688252296763153e+00
2.065489560501622968e-01 1.012237254088018545e+01
2.075895049468276798e-01 9.891164683844301919e+00
2.086300538434930629e-01 9.495372914563176892e+00
2.096706027401584460e-01 8.824123563807326320e+00
2.107111516368238291e-01 8.448351026081805770e+00
2.117517005334892122e-01 8.072183717301488315e+00
2.127922494301545953e-01 7.587363876837766696e+00
2.138327983268199783e-01 7.017385432853849636e+00
2.148733472234853614e-01 6.708320255118540132e+00
2.159138961201507445e-01 6.414348747938408479e+00
2.169544450168161276e-01 5.929750147734747401e+00
2.179949939134815107e-01 5.879591523905698836e+00
2.190355428101468938e-01 6.022553019311125411e+00
2.200760917068122768e-01 5.900365198065319561e+00
2.211166406034776599e-01 5.433017702560317019e+00
2.221571895001430430e-01 5.681937491856956512e+00
2.231977383968084261e-01 5.604508300032222223e+00
2.242382872934738092e-01 5.344137031051779729e+00
2.252788361901391923e-01 5.437644683554889724e+00
2.263193850868045753e-01 5.224165790394682318e+00
2.273599339834699584e-01 5.176941075121877844e+00
2.284004828801353415e-01 5.148442991538111357e+00
2.294410317768007246e-01 5.093100774433171551e+00
2.304815806734661077e-01 5.028264853902722820e+00
2.315221295701314908e-01 4.816436835924861271e+00
2.325626784667968738e-01 4.901413638105285742e+00
2.336032273634622569e-01 5.037532683637845565e+00
2.346437762601276400e-01 4.988426597540431828e+00
2.356843251567930231e-01 4.970890574242766036e+00
2.367248740534584062e-01 5.427404707451159993e+00
2.377654229501237892e-01 5.678677038566359414e+00
2.388059718467891723e-01 5.424497179307760319e+00
2.398465207434545554e-01 5.154777137312066770e+00
2.408870696401199385e-01 5.679461505382807474e+00
2.419276185367853216e-01 5.872310924684661870e+00
2.429681674334507047e-01 5.774531450318999504e+00
2.440087163301160877e-01 5.340720483842602562e+00
2.450492652267814708e-01 5.129521866949595221e+00
2.460898141234468539e-01 4.965471155429014516e+00
2.471303630201122370e-01 4.668660415266405295e+00
2.481709119167776201e-01 4.492610035148818071e+00
2.492114608134430032e-01 4.324570354254394289e+00
2.502520097101083585e-01 4.133153548987909431e+00
2.512925586067737416e-01 4.285508300041165342e+00
2.523331075034391247e-01 3.923178191732215936e+00
2.533736564001045077e-01 3.664470929496516760e+00
2.544142052967698908e-01 3.484782750857284839e+00
2.554547541934352739e-01 3.561460794760719750e+00
2.564953030901006570e-01 3.804485775206597253e+00
2.575358519867660401e-01 3.789623170130390406e+00
2.585764008834314231e-01 3.914647742120923368e+00
2.596169497800968062e-01 3.944757234429779658e+00
2.606574986767621893e-01 3.872255887533349039e+00
2.616980475734275724e-01 3.745949924457871560e+00
2.627385964700929555e-01 3.610260638029469504e+00
2.637791453667583386e-01 3.374562088825815209e+00
2.648196942634237216e-01 3.207413897465393404e+00
2.658602431600891047e-01 3.465606292950887735e+00
2.669007920567544878e-01 3.208745510081385532e+00
2.679413409534198709e-01 3.174760969774933272e+00
2.689818898500852540e-01 3.108102862200780692e+00
2.700224387467506371e-01 2.669172199474633800e+00
2.710629876434160201e-01 2.934667281995839261e+00
2.721035365400814032e-01 3.141617463107888142e+00
2.731440854367467863e-01 2.911825865512387423e+00
2.741846343334121694e-01 2.631440749091851217e+00
2.752251832300775525e-01 2.654358559225393321e+00
2.762657321267429356e-01 2.787463764347155148e+00
2.773062810234083186e-01 2.589795261682290572e+00
2.783468299200737017e-01 2.621961762017232189e+00
2.793873788167390848e-01 2.615071595107984592e+00
2.804279277134044679e-01 2.126143212612710442e+00
2.814684766100698510e-01 2.182175778907183172e+00
2.825090255067352341e-01 2.575972108370319091e+00
2.835495744034006171e-01 2.530827195784244310e+00
2.845901233000660002e-01 2.224075241730265162e+00
2.856306721967313833e-01 2.672491339840419755e+00
2.866712210933967664e-01 2.762537984572499994e+00
2.877117699900621495e-01 3.011123433040484798e+00
2.887523188867275326e-01 2.938040379048008077e+00
2.897928677833929156e-01 2.390968721065608094e+00
2.908334166800582987e-01 2.421801958818281975e+00
2.918739655767236818e-01 2.678819352614326021e+00
2.929145144733890649e-01 2.469743017665990692e+00
2.939550633700544480e-01 2.512467433172751896e+00
2.949956122667198311e-01 2.573167898865001746e+00
2.960361611633852141e-01 2.668123770899455849e+00
2.970767100600505972e-01 2.565342030451109423e+00
2.981172589567159803e-01 2.389658222189019909e+00
2.991578078533813634e-01 2.310332532982869225e+00
3.001983567500468020e-01 2.406755514943281327e+00
3.012389056467121851e-01 2.370709767550160052e+00
3.022794545433775681e-01 2.395145913452452646e+00
3.033200034400429512e-01 2.297117103132368499e+00
3.043605523367083343e-01 2.325484713656567948e+00
3.054011012333737174e-01 2.403983061494454176e+00
3.064416501300391005e-01 2.254494280618022373e+00
3.074821990267044836e-01 2.357061771507087400e+00
3.085227479233698666e-01 2.040460544752043859e+00
3.095632968200352497e-01 2.157037521255539048e+00
3.106038457167006328e-01 2.162246609950312148e+00
3.116443946133660159e-01 2.248382080304448749e+00
3.126849435100313990e-01 2.540200683448809116e+00
3.137254924066967821e-01 2.360754073428207533e+00
3.147660413033621651e-01 2.388332534921730144e+00
3.158065902000275482e-01 2.535768772625957013e+00
3.168471390966929313e-01 2.405331020355433225e+00
3.178876879933583144e-01 2.234349469043671377e+00
3.189282368900236975e-01 2.288715438790266177e+00
3.199687857866890806e-01 2.117846434480469497e+00
3.210093346833544636e-01 2.055373418753962511e+00
3.220498835800198467e-01 1.682801564979243381e+00
3.230904324766852298e-01 1.806617034301449820e+00
3.241309813733506129e-01 1.882877352033894169e+00
3.251715302700159960e-01 1.695748589694623831e+00
3.262120791666813790e-01 1.901836209666001309e+00
3.272526280633467621e-01 1.950926807005647134e+00
3.282931769600121452e-01 1.713314438712536969e+00
3.293337258566775283e-01 1.842342674065591268e+00
3.303742747533429114e-01 1.845304294532450484e+00
3.314148236500082945e-01 1.677808423267087790e+00
3.324553725466736775e-01 1.525956258479382655e+00
3.334959214433390606e-01 1.694255862970099002e+00
3.345364703400044437e-01 1.614019537812463767e+00
3.355770192366698268e-01 1.594216710167394524e+00
3.366175681333352099e-01 1.726255693437025229e+00
3.376581170300005930e-01 1.902313935389710053e+00
3.386986659266659760e-01 1.817703846547843227e+00
3.397392148233313591e-01 1.696137729677598571e+00
3.407797637199967422e-01 1.616015715205193715e+00
3.418203126166621253e-01 1.676334242824474074e+00
3.428608615133275084e-01 1.593678892681698045e+00
3.439014104099928915e-01 1.632167058544446547e+00
3.449419593066582745e-01 1.755510538445268054e+00
3.459825082033236576e-01 1.770731567249885785e+00
3.470230570999890407e-01 1.549410618512233384e+00
3.480636059966544238e-01 1.684796012957345823e+00
3.491041548933198069e-01 1.907613258678154011e+00
3.501447037899851900e-01 1.750467091982816470e+00
3.511852526866505730e-01 1.560699173757313929e+00
3.522258015833159561e-01 1.592666897399904968e+00
3.532663504799813392e-01 1.751673737003244469e+00
3.543068993766467223e-01 1.595482644398103389e+00
3.553474482733121054e-01 1.533353372483986732e+00
3.563879971699774885e-01 1.598501159970716401e+00
3.574285460666428715e-01 1.492217368014756573e+00
3.584690949633082546e-01 1.564501478790102595e+00
3.595096438599736377e-01 1.787605729704772273e+00
3.605501927566390208e-01 1.616178055856408946e+00
3.615907416533044039e-01 1.766363311228534627e+00
3.626312905499697870e-01 2.078364051730090978e+00
3.636718394466351700e-01 1.705336653110602896e+00
3.647123883433005531e-01 1.622367805003136709e+00
3.657529372399659362e-01 1.637268381576678422e+00
3.667934861366313193e-01 1.525618473138340647e+00
3.678340350332967024e-01 1.472758714216446663e+00
3.688745839299620854e-01 1.470337951130343157e+00
3.699151328266274685e-01 1.280882586361446585e+00
3.709556817232928516e-01 1.265615059277116927e+00
3.719962306199582347e-01 1.285328524226663660e+00
3.730367795166236178e-01 1.404369419897207649e+00
3.740773284132890009e-01 1.368827159393170234e+00
3.751178773099543839e-01 1.313396669903138303e+00
3.761584262066197670e-01 1.336874779026743454e+00
3.771989751032851501e-01 1.521890492975092712e+00
3.782395239999505332e-01 1.674176285171434131e+00
3.792800728966159163e-01 1.571951965189562372e+00
3.803206217932812994e-01 1.397927248544593937e+00
3.813611706899466824e-01 1.195344102285336163e+00
3.824017195866120655e-01 1.247925585502891010e+00
3.834422684832774486e-01 1.054855474865636467e+00
3.844828173799428317e-01 1.120399132677874832e+00
3.855233662766082148e-01 1.139258775531253320e+00
3.865639151732735979e-01 1.180632956385167631e+00
3.876044640699389809e-01 1.096101677628443127e+00
3.886450129666043640e-01 1.060219899482074624e+00
3.896855618632697471e-01 1.247997945676395659e+00
3.907261107599351302e-01 1.318122958161605851e+00
3.917666596566005133e-01 1.338161968600800833e+00
3.928072085532658964e-01 1.351993981009144363e+00
3.938477574499312794e-01 1.458752805440710176e+00
3.948883063465966625e-01 1.356650139215904716e+00
3.959288552432620456e-01 1.308951131391754785e+00
3.969694041399274287e-01 1.272215442297490284e+00
3.980099530365928118e-01 1.231418703751408827e+00
3.990505019332581949e-01 1.149616459805937296e+00
4.000910508299235779e-01 1.080997727902307304e+00
4.011315997265889610e-01 1.050754463944254979e+00
4.021721486232543441e-01 1.189598087708148455e+00
4.032126975199197272e-01 1.091603505119771000e+00
4.042532464165851103e-01 1.153092812989623184e+00
4.052937953132504934e-01 1.295581259938945351e+00
4.063343442099158764e-01 1.094007321915988484e+00
4.073748931065812595e-01 1.089300558761966187e+00
4.084154420032466426e-01 1.241919950213670631e+00
4.094559908999120257e-01 1.159944597646742181e+00
4.104965397965774088e-01 1.097302858306068885e+00
4.115370886932427918e-01 1.006955009603117901e+00
4.125776375899081749e-01 1.226019763462719681e+00
4.136181864865735580e-01 1.165061981745314057e+00
4.146587353832389411e-01 1.058872402450788286e+00
4.156992842799043242e-01 1.024314208660953796e+00
4.167398331765697073e-01 1.004440333595791657e+00
4.177803820732350903e-01 9.393670453693516720e-01
4.188209309699004734e-01 1.052371590869267237e+00
4.198614798665658565e-01 1.059434173794347345e+00
4.209020287632312396e-01 8.783802056975815731e-01
4.219425776598966227e-01 9.433608233583292701e-01
4.229831265565620058e-01 9.822868074026906982e-01
4.240236754532273888e-01 7.976513028901699442e-01
4.250642243498927719e-01 7.661798008207441057e-01
4.261047732465581550e-01 8.433139112944338933e-01
4.271453221432235381e-01 7.678911313547835960e-01
4.281858710398889212e-01 9.519730346011492372e-01
4.292264199365543043e-01 7.264942557896958419e-01
4.302669688332196873e-01 6.225265939412096827e-01
4.313075177298850704e-01 7.233160098545283745e-01
4.323480666265504535e-01 8.242150649700370479e-01
4.333886155232158366e-01 9.735779666061503690e-01
4.344291644198812197e-01 1.007675541585403067e+00
