# q (1/Angstrom), Intensity (arb)
2.029070354705860696e-02 6.131193028816030619e+02
2.133125244372399004e-02 5.361310116315132746e+02
2.237180134038937659e-02 4.785077870707078205e+02
2.341235023705475968e-02 4.286904238931404620e+02
2.445289913372014276e-02 3.896392720568729828e+02
2.549344803038552584e-02 3.541871488976753426e+02
2.653399692705091240e-02 3.283979027100152734e+02
2.757454582371629548e-02 3.083319582975919388e+02
2.861509472038167856e-02 2.916382411817411935e+02
2.965564361704706164e-02 2.727498339712006441e+02
3.069619251371244473e-02 2.576344386122356696e+02
3.173674141037782781e-02 2.485252622539148319e+02
3.277729030704321089e-02 2.398079535602472845e+02
3.381783920370859398e-02 2.291040018695567255e+02
3.485838810037397706e-02 2.243592735251357624e+02
3.589893699703936014e-02 2.218598110779227000e+02
3.693948589370474322e-02 2.183776466076788552e+02
3.798003479037012631e-02 2.170683535759728784e+02
3.902058368703550939e-02 2.165259751237105377e+02
4.006113258370089247e-02 2.176416383639492551e+02
4.110168148036627556e-02 2.160788424962019008e+02
4.214223037703165864e-02 2.209635428089578681e+02
4.318277927369704866e-02 2.243215152795559959e+02
4.422332817036243174e-02 2.303208213023725079e+02
4.526387706702781483e-02 2.383934386828122456e+02
4.630442596369319791e-02 2.497205914377840941e+02
4.734497486035858099e-02 2.660416716567033291e+02
4.838552375702396408e-02 2.877944155919047944e+02
4.942607265368934716e-02 3.182106673252978908e+02
5.046662155035473024e-02 3.653805867654136819e+02
5.150717044702011332e-02 4.537322077472937281e+02
5.254771934368549641e-02 6.384205949165018410e+02
5.358826824035087949e-02 9.702233625428491450e+02
5.462881713701626257e-02 1.459693277973833347e+03
5.566936603368164566e-02 2.262443958547228704e+03
5.670991493034702874e-02 3.165776492918092117e+03
5.775046382701241182e-02 3.142829038238628073e+03
5.879101272367779490e-02 2.335684229891023733e+03
5.983156162034317799e-02 1.811990445628478710e+03
6.087211051700856107e-02 1.663363050887395275e+03
6.191265941367394415e-02 1.659349824395040287e+03
6.295320831033933417e-02 1.710367205859073465e+03
6.399375720700471726e-02 1.790074563384763451e+03
6.503430610367010034e-02 1.851827826921719861e+03
6.607485500033548342e-02 1.846079499524318180e+03
6.711540389700086651e-02 1.766103075463337063e+03
6.815595279366624959e-02 1.662462900018671462e+03
6.919650169033163267e-02 1.568520666081547006e+03
7.023705058699701576e-02 1.467823069780426295e+03
7.127759948366239884e-02 1.353851148169734415e+03
7.231814838032778192e-02 1.240227759741139153e+03
7.335869727699316500e-02 1.124404598831869635e+03
7.439924617365854809e-02 1.006480886936833940e+03
7.543979507032393117e-02 8.931152417027915362e+02
7.648034396698931425e-02 7.847395128561312276e+02
7.752089286365469734e-02 6.855345523840724127e+02
7.856144176032008042e-02 5.961206898645613137e+02
7.960199065698546350e-02 5.140822479868218124e+02
8.064253955365084658e-02 4.421095955687173955e+02
8.168308845031622967e-02 3.806935172874665341e+02
8.272363734698161275e-02 3.241579481530397970e+02
8.376418624364699583e-02 2.777690303452950502e+02
8.480473514031239279e-02 2.378547289203125956e+02
8.584528403697777588e-02 2.036727164779241832e+02
8.688583293364315896e-02 1.768975532745299120e+02
8.792638183030854204e-02 1.561361457699616437e+02
8.896693072697392513e-02 1.426878427429611804e+02
9.000747962363930821e-02 1.387175050429036673e+02
9.104802852030469129e-02 1.550272750931783037e+02
9.208857741697007437e-02 1.942354473452817274e+02
9.312912631363545746e-02 2.241670381636150182e+02
9.416967521030084054e-02 2.008847491441178477e+02
9.521022410696622362e-02 1.473147081234199050e+02
9.625077300363160671e-02 1.104826883729908360e+02
9.729132190029698979e-02 9.434585050480842483e+01
9.833187079696237287e-02 8.734047524677004048e+01
9.937241969362775595e-02 8.361718836953541256e+01
1.004129685902931390e-01 8.333325956971907544e+01
1.014535174869585221e-01 8.410991517264477579e+01
1.024940663836239052e-01 8.593727068210516506e+01
1.035346152802892883e-01 8.839947848724641233e+01
1.045751641769546714e-01 9.464000485330265633e+01
1.056157130736200545e-01 1.078267683304364084e+02
1.066562619702854375e-01 1.340479273399195677e+02
1.076968108669508206e-01 1.778082694318983954e+02
1.087373597636162037e-01 2.233780989786835676e+02
1.097779086602815868e-01 2.275735097785459118e+02
1.108184575569469699e-01 1.857629889304513995e+02
1.118590064536123529e-01 1.459389532623562218e+02
1.128995553502777360e-01 1.297684792316374001e+02
1.139401042469431191e-01 1.230070067779594325e+02
1.149806531436085022e-01 1.117261485784206911e+02
1.160212020402738853e-01 9.907648386876670088e+01
1.170617509369392684e-01 9.131440290701348772e+01
1.181022998336046514e-01 8.834191959712882181e+01
1.191428487302700345e-01 8.832390925370950185e+01
1.201833976269354176e-01 8.714146732373598070e+01
1.212239465236008007e-01 8.733231266755601041e+01
1.222644954202661838e-01 8.781435417523475451e+01
1.233050443169315669e-01 8.807191221689245708e+01
1.243455932135969499e-01 8.876476230517613430e+01
1.253861421102623330e-01 8.763097686823083166e+01
1.264266910069277161e-01 8.616664152708904112e+01
1.274672399035930992e-01 8.498114168830582571e+01
1.285077888002584823e-01 8.293985562227125286e+01
1.295483376969238654e-01 8.084588364927739690e+01
1.305888865935892484e-01 7.694907857448654909e+01
1.316294354902546315e-01 7.305272874963770846e+01
1.326699843869200146e-01 7.018755666290280715e+01
1.337105332835853977e-01 6.703993115724651375e+01
1.347510821802507808e-01 6.342306495771519792e+01
1.357916310769161639e-01 6.052204437728403263e+01
1.368321799735815469e-01 5.665067455217273107e+01
1.378727288702469300e-01 5.309244810926899305e+01
1.389132777669123131e-01 5.019958679687045588e+01
1.399538266635776962e-01 4.858615408897178867e+01
1.409943755602430793e-01 4.830679887116104254e+01
1.420349244569084624e-01 4.947097485234083081e+01
1.430754733535738454e-01 5.181104124145507939e+01
1.441160222502392285e-01 5.340192888122381731e+01
1.451565711469046116e-01 5.360571459402150651e+01
1.461971200435699947e-01 5.429925993187052313e+01
1.472376689402353778e-01 5.327222870531895893e+01
1.482782178369007609e-01 4.744307536076133403e+01
1.493187667335661439e-01 3.863460360998735865e+01
1.503593156302315270e-01 3.185877999098089930e+01
1.513998645268969101e-01 2.805617344382302036e+01
1.524404134235622932e-01 2.511005066880256464e+01
1.534809623202276763e-01 2.311468249593412594e+01
1.545215112168930593e-01 2.224376256449064471e+01
1.555620601135584424e-01 2.158571804831292695e+01
1.566026090102238255e-01 2.155123725334532025e+01
1.576431579068892086e-01 2.195310040447851918e+01
1.586837068035545917e-01 2.237745509226405716e+01
1.597242557002199748e-01 2.385497980346578117e+01
1.607648045968853578e-01 2.573044932152125597e+01
1.618053534935507409e-01 2.581894523814531794e+01
1.628459023902161240e-01 2.378498201734391415e+01
1.638864512868815071e-01 2.166593709468892825e+01
1.649270001835468902e-01 1.988698153348538256e+01
1.659675490802122733e-01 1.860980156908633631e+01
1.670080979768776563e-01 1.802291498323580043e+01
1.680486468735430672e-01 1.762155330569822098e+01
1.690891957702084503e-01 1.775881246365515409e+01
1.701297446668738333e-01 1.810741077177733871e+01
1.711702935635392164e-01 1.822798206029943913e+01
1.722108424602045995e-01 1.716454810256975350e+01
1.732513913568699826e-01 1.559964860699731304e+01
1.742919402535353657e-01 1.428281502657218738e+01
1.753324891502007488e-01 1.379289985564835774e+01
1.763730380468661318e-01 1.313879399168398265e+01
1.774135869435315149e-01 1.275530521171283738e+01
1.784541358401968980e-01 1.278980431363306991e+01
1.794946847368622811e-01 1.250657270287420886e+01
1.805352336335276642e-01 1.210970086360637055e+01
1.815757825301930473e-01 1.180923816449064390e+01
1.826163314268584303e-01 1.190836347572559362e+01
1.836568803235238134e-01 1.167241072725733986e+01
1.846974292201891965e-01 1.165885390621816242e+01
1.857379781168545796e-01 1.147232678639914383e+01
1.867785270135199627e-01 1.113008030003118876e+01
1.878190759101853458e-01 1.060232982934182644e+01
1.888596248068507288e-01 1.050052803134297363e+01
1.899001737035161119e-01 1.026101021481724018e+01
1.909407226001814950e-01 1.066159779819702180e+01
1.919812714968468781e-01 1.142865449148610679e+01
1.930218203935122612e-01 1.196253619231133669e+01
1.940623692901776443e-01 1.304800149800131592e+01
1.951029181868430273e-01 1.342470776718858616e+01
1.961434670835084104e-01 1.310279057359976917e+01
1.971840159801737935e-01 1.250245056000805732e+01
1.982245648768391766e-01 1.170432487286930368e+01
1.992651137735045597e-01 1.084190580371667778e+01
2.003056626701699428e-01 1.021596134191442573e+01
2.013462115668353813e-01 9.350613395423387431e+00
2.023867604635007644e-01 8.938158328841101508e+00
2.034273093601661475e-01 9.058795646263487100e+00
2.044678582568315306e-01 8.401149081633121796e+00
2.055084071534969137e-01 8.356050909920110570e+00
2.065489560501622968e-01 8.457253048355738656e+00
2.075895049468276798e-01 8.440644129707649768e+00
2.086300538434930629e-01 8.452798156925947382e+00
2.096706027401584460e-01 7.935977833474829879e+00
2.107111516368238291e-01 7.753068093223671298e+00
2.117517005334892122e-01 7.866593268196702127e+00
2.127922494301545953e-01 7.381072125263138162e+00
2.138327983268199783e-01 7.207324468173990084e+00
2.148733472234853614e-01 7.463973659201414534e+00
2.159138961201507445e-01 7.542059762854222527e+00
2.169544450168161276e-01 7.128753886591780997e+00
2.179949939134815107e-01 7.036999823602471338e+00
2.190355428101468938e-01 6.416879494227163860e+00
2.200760917068122768e-01 5.938654559196972826e+00
2.211166406034776599e-01 5.852087976118639290e+00
2.221571895001430430e-01 5.172141050314202460e+00
2.231977383968084261e-01 4.689215602113907977e+00
2.242382872934738092e-01 4.744229349317837574e+00
2.252788361901391923e-01 4.676941984666594720e+00
2.263193850868045753e-01 4.568914170444802636e+00
2.273599339834699584e-01 4.276281749847452573e+00
2.284004828801353415e-01 3.992675870833537033e+00
2.294410317768007246e-01 3.680812102433886679e+00
2.304815806734661077e-01 3.748828591686560685e+00
2.315221295701314908e-01 3.871627764555800155e+00
2.325626784667968738e-01 3.899154263840372892e+00
2.336032273634622569e-01 3.950482846918692559e+00
2.346437762601276400e-01 3.734015891488745353e+00
2.356843251567930231e-01 3.684711380817475401e+00
2.367248740534584062e-01 3.718304192035507327e+00
2.377654229501237892e-01 3.603249613448731736e+00
2.388059718467891723e-01 3.552371226403582938e+00
2.398465207434545554e-01 3.650988740904111296e+00
2.408870696401199385e-01 3.667609494383050617e+00
2.419276185367853216e-01 3.474438387960688601e+00
2.429681674334507047e-01 3.494606305262863089e+00
2.440087163301160877e-01 3.956152251977005818e+00
2.450492652267814708e-01 3.912013506693639897e+00
2.460898141234468539e-01 3.462492457033793158e+00
2.471303630201122370e-01 3.633178265710672150e+00
2.481709119167776201e-01 3.835547273005293079e+00
2.492114608134430032e-01 4.188633007404998665e+00
2.502520097101083585e-01 4.289392066156597849e+00
2.512925586067737416e-01 4.252931284149283897e+00
2.523331075034391247e-01 4.240770119207084576e+00
2.533736564001045077e-01 4.228954611840713085e+00
2.544142052967698908e-01 4.033051214995165168e+00
2.554547541934352739e-01 3.814990368944513932e+00
2.564953030901006570e-01 3.578358475118548654e+00
2.575358519867660401e-01 3.551465300336321462e+00
2.585764008834314231e-01 3.269137152818334613e+00
2.596169497800968062e-01 3.017893029763886403e+00
2.606574986767621893e-01 3.031976247752318443e+00
2.616980475734275724e-01 3.060251459919253847e+00
2.627385964700929555e-01 3.304566763888459491e+00
2.637791453667583386e-01 3.181803578272106137e+00
2.648196942634237216e-01 3.201453850460215023e+00
2.658602431600891047e-01 3.127760102359680161e+00
2.669007920567544878e-01 2.976774874067722010e+00
2.679413409534198709e-01 2.833706361244814786e+00
2.689818898500852540e-01 3.165692679752289962e+00
2.700224387467506371e-01 3.544603083207888972e+00
2.710629876434160201e-01 3.265806835500541183e+00
2.721035365400814032e-01 3.235711903943144563e+00
2.731440854367467863e-01 3.243345062159711745e+00
2.741846343334121694e-01 2.983895426915111670e+00
2.752251832300775525e-01 2.823133135264136229e+00
2.762657321267429356e-01 2.795139092261873515e+00
2.773062810234083186e-01 2.495899448271824639e+00
2.783468299200737017e-01 2.586995193099124180e+00
2.793873788167390848e-01 2.848003180816469637e+00
2.804279277134044679e-01 2.665915204388728199e+00
2.814684766100698510e-01 2.231234898800462219e+00
2.825090255067352341e-01 2.206994959376835652e+00
2.835495744034006171e-01 2.370036383092287480e+00
2.845901233000660002e-01 2.074418456217987483e+00
2.856306721967313833e-01 2.150300890462371939e+00
2.866712210933967664e-01 2.109361541364116022e+00
2.877117699900621495e-01 2.266328477050787882e+00
2.887523188867275326e-01 2.112742990675439358e+00
2.897928677833929156e-01 2.403423991273871962e+00
2.908334166800582987e-01 2.350698373594749313e+00
2.918739655767236818e-01 2.249092721081034085e+00
2.929145144733890649e-01 2.022067575375231741e+00
2.939550633700544480e-01 1.870385948745663995e+00
2.949956122667198311e-01 2.041509018126969721e+00
2.960361611633852141e-01 2.191206737822678718e+00
2.970767100600505972e-01 2.007716272390712930e+00
2.981172589567159803e-01 1.964971025407034944e+00
2.991578078533813634e-01 2.178208368652626348e+00
3.001983567500468020e-01 2.183540910986483397e+00
3.012389056467121851e-01 2.459145867398554230e+00
3.022794545433775681e-01 2.398647503356034605e+00
3.033200034400429512e-01 2.282703930017945027e+00
3.043605523367083343e-01 2.195820414130601250e+00
3.054011012333737174e-01 1.915491828170061694e+00
3.064416501300391005e-01 2.024266305831737611e+00
3.074821990267044836e-01 2.028886822499515574e+00
3.085227479233698666e-01 2.164378454293522935e+00
3.095632968200352497e-01 2.279840357019711661e+00
3.106038457167006328e-01 2.145764121305326455e+00
3.116443946133660159e-01 2.004700720744196474e+00
3.126849435100313990e-01 1.986843023072115244e+00
3.137254924066967821e-01 2.179184511012923764e+00
3.147660413033621651e-01 2.270060578384068606e+00
3.158065902000275482e-01 2.192998245708661642e+00
3.168471390966929313e-01 2.325370157885554789e+00
3.178876879933583144e-01 2.187996486806998320e+00
3.189282368900236975e-01 2.120448819041627075e+00
3.199687857866890806e-01 2.141129384402223224e+00
3.210093346833544636e-01 1.944812215767900199e+00
3.220498835800198467e-01 1.859165061617229497e+00
3.230904324766852298e-01 2.045737015545331161e+00
3.241309813733506129e-01 2.172606530472911857e+00
3.251715302700159960e-01 2.176713828926789773e+00
3.262120791666813790e-01 2.030671555680665818e+00
3.272526280633467621e-01 2.068718209682494091e+00
3.282931769600121452e-01 2.117541169809324941e+00
3.293337258566775283e-01 2.249628967951224467e+00
3.303742747533429114e-01 1.965150794628350184e+00
3.314148236500082945e-01 1.833740259645939119e+00
3.324553725466736775e-01 1.923028078148707465e+00
3.334959214433390606e-01 1.730130039678151377e+00
3.345364703400044437e-01 1.675887380272559568e+00
3.355770192366698268e-01 1.658500406988796527e+00
3.366175681333352099e-01 1.922568550877844729e+00
3.376581170300005930e-01 1.956788360919215819e+00
3.386986659266659760e-01 1.689706675186325668e+00
3.397392148233313591e-01 1.532447271593643023e+00
3.407797637199967422e-01 1.569862925684937238e+00
3.418203126166621253e-01 1.473567816961555366e+00
3.428608615133275084e-01 1.543303803695632581e+00
3.439014104099928915e-01 1.421232303860815449e+00
3.449419593066582745e-01 1.708155774648876246e+00
3.459825082033236576e-01 1.642609564422706114e+00
3.470230570999890407e-01 1.580225268150819318e+00
3.480636059966544238e-01 1.922052307643184577e+00
3.491041548933198069e-01 1.852861352301871989e+00
3.501447037899851900e-01 1.583994402694372639e+00
3.511852526866505730e-01 1.648361391551929955e+00
3.522258015833159561e-01 1.736124821159737763e+00
3.532663504799813392e-01 1.789041442406805515e+00
3.543068993766467223e-01 1.808695869671662848e+00
3.553474482733121054e-01 1.631134307469565670e+00
3.563879971699774885e-01 1.618808180414575304e+00
3.574285460666428715e-01 1.578144480644784409e+00
3.584690949633082546e-01 1.358017415570600406e+00
3.595096438599736377e-01 1.404108283421262371e+00
3.605501927566390208e-01 1.578391963674118159e+00
3.615907416533044039e-01 1.530778642763241493e+00
3.626312905499697870e-01 1.610138496524154306e+00
3.636718394466351700e-01 1.564725801873755984e+00
3.647123883433005531e-01 1.594647766010908185e+00
3.657529372399659362e-01 1.484972440273768512e+00
3.667934861366313193e-01 1.520360530451679182e+00
3.678340350332967024e-01 1.494426968355682561e+00
3.688745839299620854e-01 1.673653687941303758e+00
3.699151328266274685e-01 1.975982561981865615e+00
3.709556817232928516e-01 1.820113403943405928e+00
3.719962306199582347e-01 1.681694185005138564e+00
3.730367795166236178e-01 1.777828103109229119e+00
3.740773284132890009e-01 1.852623634462087665e+00
3.751178773099543839e-01 1.598336278061193383e+00
3.761584262066197670e-01 1.481199610398316935e+00
3.771989751032851501e-01 1.491135746105381799e+00
3.782395239999505332e-01 1.498540017415400882e+00
3.792800728966159163e-01 1.600128966877253589e+00
3.803206217932812994e-01 1.576485235319061928e+00
3.813611706899466824e-01 1.429316454760556354e+00
3.824017195866120655e-01 1.478961436814721253e+00
3.834422684832774486e-01 1.343927052963866942e+00
3.844828173799428317e-01 1.496788702618637501e+00
3.855233662766082148e-01 1.379567699438077000e+00
3.865639151732735979e-01 1.198686150262663119e+00
3.876044640699389809e-01 1.143025952854152649e+00
3.886450129666043640e-01 1.180778523207735020e+00
3.896855618632697471e-01 1.125136879094153386e+00
3.907261107599351302e-01 1.249510415456335011e+00
3.917666596566005133e-01 1.452009703831937060e+00
3.928072085532658964e-01 1.563158050397490229e+00
3.938477574499312794e-01 1.525598108205613812e+00
3.948883063465966625e-01 1.308670025636576639e+00
3.959288552432620456e-01 1.559096848343806130e+00
3.969694041399274287e-01 1.590374524721521965e+00
3.980099530365928118e-01 1.308312168846569534e+00
3.990505019332581949e-01 1.334279733854302208e+00
4.000910508299235779e-01 1.234664479962255257e+00
4.011315997265889610e-01 1.004824954912201918e+00
4.021721486232543441e-01 1.161704630365242963e+00
4.032126975199197272e-01 1.329257166758729625e+00
4.042532464165851103e-01 1.306633298283443878e+00
4.052937953132504934e-01 1.297785253232870417e+00
4.063343442099158764e-01 9.254300176383978283e-01
4.073748931065812595e-01 8.872979893474379764e-01
4.084154420032466426e-01 1.241072879698069897e+00
4.094559908999120257e-01 1.315608285643182995e+00
4.104965397965774088e-01 1.230473025624828409e+00
4.115370886932427918e-01 1.114932134887993698e+00
4.125776375899081749e-01 9.916184585773528681e-01
4.136181864865735580e-01 1.146602988990068184e+00
4.146587353832389411e-01 1.093113136721875378e+00
4.156992842799043242e-01 1.208472376052728947e+00
4.167398331765697073e-01 1.127808384680935916e+00
4.177803820732350903e-01 1.103942907943245899e+00
4.188209309699004734e-01 1.196396004959829895e+00
4.198614798665658565e-01 1.203883740996335661e+00
4.209020287632312396e-01 1.041749651242067642e+00
4.219425776598966227e-01 1.068888946547353669e+00
4.229831265565620058e-01 1.105793420727852805e+00
4.240236754532273888e-01 1.250863947936501575e+00
4.250642243498927719e-01 1.149254058377081833e+00
4.261047732465581550e-01 1.044076890463124130e+00
4.271453221432235381e-01 1.061198067295396896e+00
4.281858710398889212e-01 1.114067646340547668e+00
4.292264199365543043e-01 1.099035276692884366e+00
4.302669688332196873e-01 9.283474736624555135e-01
4.313075177298850704e-01 8.791167860744266704e-01
4.323480666265504535e-01 9.595372077676849187e-01
4.333886155232158366e-01 1.007527653622329211e+00
4.344291644198812197e-01 1.017409822179356382e+00
