# q (1/Angstrom), Intensity (arb)
2.029070354705860696e-02 1.011898548454446654e+03
2.133125244372399004e-02 8.966619886026659287e+02
2.237180134038937659e-02 8.052871670047053385e+02
2.341235023705475968e-02 7.303904810328189114e+02
2.445289913372014276e-02 6.709521436234738303e+02
2.549344803038552584e-02 6.249641566301352213e+02
2.653399692705091240e-02 5.857055209798808164e+02
2.757454582371629548e-02 5.502986381394528053e+02
2.861509472038167856e-02 5.233705736694637380e+02
2.965564361704706164e-02 4.997254224823235518e+02
3.069619251371244473e-02 4.797389186579274565e+02
3.173674141037782781e-02 4.655032610508891366e+02
3.277729030704321089e-02 4.536879762342638287e+02
3.381783920370859398e-02 4.449352228043873652e+02
3.485838810037397706e-02 4.404633619590642866e+02
3.589893699703936014e-02 4.350510927103545669e+02
3.693948589370474322e-02 4.341722964253099803e+02
3.798003479037012631e-02 4.378020004147370514e+02
3.902058368703550939e-02 4.441950370793534262e+02
4.006113258370089247e-02 4.543092582916348192e+02
4.110168148036627556e-02 4.671419615810366395e+02
4.214223037703165864e-02 4.824607126916062043e+02
4.318277927369704866e-02 5.087678315737364301e+02
4.422332817036243174e-02 5.438578033836217855e+02
4.526387706702781483e-02 5.898228677676420375e+02
4.630442596369319791e-02 6.616603062526169197e+02
4.734497486035858099e-02 7.925475788456494683e+02
4.838552375702396408e-02 1.061714630692948276e+03
4.942607265368934716e-02 1.577915735091006582e+03
5.046662155035473024e-02 2.378957511535472804e+03
5.150717044702011332e-02 3.710391224711356244e+03
5.254771934368549641e-02 5.061708898626658993e+03
5.358826824035087949e-02 4.887029808533242431e+03
5.462881713701626257e-02 3.786830111377554658e+03
5.566936603368164566e-02 3.248182867095802521e+03
5.670991493034702874e-02 3.203595654956814542e+03
5.775046382701241182e-02 3.323437490587220509e+03
5.879101272367779490e-02 3.473049352542062934e+03
5.983156162034317799e-02 3.566407066607186152e+03
6.087211051700856107e-02 3.533384855470047569e+03
6.191265941367394415e-02 3.348771020342151132e+03
6.295320831033933417e-02 3.079952178964345876e+03
6.399375720700471726e-02 2.798988540731616922e+03
6.503430610367010034e-02 2.514216582481545629e+03
6.607485500033548342e-02 2.227647217917583475e+03
6.711540389700086651e-02 1.947238043280761531e+03
6.815595279366624959e-02 1.673126531004980734e+03
6.919650169033163267e-02 1.422927423386920736e+03
7.023705058699701576e-02 1.198149387754342797e+03
7.127759948366239884e-02 1.000205233597854658e+03
7.231814838032778192e-02 8.316143182731841534e+02
7.335869727699316500e-02 6.896616178930503338e+02
7.439924617365854809e-02 5.733142277800824331e+02
7.543979507032393117e-02 4.757816745915054639e+02
7.648034396698931425e-02 3.980006514243605125e+02
7.752089286365469734e-02 3.350946751073702785e+02
7.856144176032008042e-02 2.853860675161445783e+02
7.960199065698546350e-02 2.469745255585814334e+02
8.064253955365084658e-02 2.175850261382166764e+02
8.168308845031622967e-02 1.991588795261085920e+02
8.272363734698161275e-02 1.939823249741475308e+02
8.376418624364699583e-02 2.150149196761981898e+02
8.480473514031239279e-02 2.816333495974728294e+02
8.584528403697777588e-02 3.614166329109344815e+02
8.688583293364315896e-02 3.578574483276640876e+02
8.792638183030854204e-02 2.697199527889647470e+02
8.896693072697392513e-02 2.026343995221832301e+02
9.000747962363930821e-02 1.755435112132536801e+02
9.104802852030469129e-02 1.659562282515538527e+02
9.208857741697007437e-02 1.657724152013771857e+02
9.312912631363545746e-02 1.683003424851678460e+02
9.416967521030084054e-02 1.731783848356396334e+02
9.521022410696622362e-02 1.804534753849503090e+02
9.625077300363160671e-02 1.903933475609285040e+02
9.729132190029698979e-02 2.071968786326009422e+02
9.833187079696237287e-02 2.400953169156919387e+02
9.937241969362775595e-02 3.014887887980209484e+02
1.004129685902931390e-01 3.768868646702430283e+02
1.014535174869585221e-01 3.965380720605696183e+02
1.024940663836239052e-01 3.343892111960583406e+02
1.035346152802892883e-01 2.700508341935975523e+02
1.045751641769546714e-01 2.433482078349044002e+02
1.056157130736200545e-01 2.316309181650915718e+02
1.066562619702854375e-01 2.130091914975416501e+02
1.076968108669508206e-01 1.953669782499738403e+02
1.087373597636162037e-01 1.882593891339892025e+02
1.097779086602815868e-01 1.865475835625995558e+02
1.108184575569469699e-01 1.850576841068120757e+02
1.118590064536123529e-01 1.858495961963606078e+02
1.128995553502777360e-01 1.856037010997240486e+02
1.139401042469431191e-01 1.837620285440471832e+02
1.149806531436085022e-01 1.806084690946371722e+02
1.160212020402738853e-01 1.761174845963213613e+02
1.170617509369392684e-01 1.704250111221066675e+02
1.181022998336046514e-01 1.629328288306491856e+02
1.191428487302700345e-01 1.558789749861111318e+02
1.201833976269354176e-01 1.475489840099588434e+02
1.212239465236008007e-01 1.373121463151630905e+02
1.222644954202661838e-01 1.274292592313658901e+02
1.233050443169315669e-01 1.184540973560167174e+02
1.243455932135969499e-01 1.090109847030964829e+02
1.253861421102623330e-01 1.005340218831208006e+02
1.264266910069277161e-01 9.242226896868163522e+01
1.274672399035930992e-01 8.581249076985385216e+01
1.285077888002584823e-01 7.931852224981099653e+01
1.295483376969238654e-01 7.553630447787361391e+01
1.305888865935892484e-01 7.560773895984280557e+01
1.316294354902546315e-01 7.987636311613189832e+01
1.326699843869200146e-01 8.395678133816917921e+01
1.337105332835853977e-01 8.650118036389022791e+01
1.347510821802507808e-01 8.678785576253164891e+01
1.357916310769161639e-01 8.669039402044847975e+01
1.368321799735815469e-01 7.984140489541621832e+01
1.378727288702469300e-01 6.444089088612975047e+01
1.389132777669123131e-01 5.029586091753367327e+01
1.399538266635776962e-01 4.189070229013682933e+01
1.409943755602430793e-01 3.809295007370585040e+01
1.420349244569084624e-01 3.567306775514310857e+01
1.430754733535738454e-01 3.467739902877152502e+01
1.441160222502392285e-01 3.440967108177167688e+01
1.451565711469046116e-01 3.475515438723767403e+01
1.461971200435699947e-01 3.649251239134523672e+01
1.472376689402353778e-01 3.938267633689680736e+01
1.482782178369007609e-01 4.248435206918792773e+01
1.493187667335661439e-01 4.524580535661348790e+01
1.503593156302315270e-01 4.364293675053928467e+01
1.513998645268969101e-01 3.953337302507330264e+01
1.524404134235622932e-01 3.586862093667021867e+01
1.534809623202276763e-01 3.463006543074282462e+01
1.545215112168930593e-01 3.422153487203698319e+01
1.555620601135584424e-01 3.384011514084869532e+01
1.566026090102238255e-01 3.364712389590818020e+01
1.576431579068892086e-01 3.351886171281191196e+01
1.586837068035545917e-01 3.281977009402417167e+01
1.597242557002199748e-01 3.144878176973359984e+01
1.607648045968853578e-01 2.958285079960689501e+01
1.618053534935507409e-01 2.806588468859828112e+01
1.628459023902161240e-01 2.696211252939881575e+01
1.638864512868815071e-01 2.634854435607191192e+01
1.649270001835468902e-01 2.571575214115759422e+01
1.659675490802122733e-01 2.485433377395543886e+01
1.670080979768776563e-01 2.445332516158365621e+01
1.680486468735430672e-01 2.380562288314408192e+01
1.690891957702084503e-01 2.284963901402803543e+01
1.701297446668738333e-01 2.208337116847626902e+01
1.711702935635392164e-01 2.210613832555696945e+01
1.722108424602045995e-01 2.221204688367650704e+01
1.732513913568699826e-01 2.198288232133283771e+01
1.742919402535353657e-01 2.098779691036467909e+01
1.753324891502007488e-01 2.052288134848204493e+01
1.763730380468661318e-01 2.071700961242962080e+01
1.774135869435315149e-01 2.087051351588323911e+01
1.784541358401968980e-01 2.251580600061185322e+01
1.794946847368622811e-01 2.409884398708502573e+01
1.805352336335276642e-01 2.547965688969479459e+01
1.815757825301930473e-01 2.566681233015175678e+01
1.826163314268584303e-01 2.401547924725702643e+01
1.836568803235238134e-01 2.178662146982410519e+01
1.846974292201891965e-01 1.922549260557274664e+01
1.857379781168545796e-01 1.745768993855422480e+01
1.867785270135199627e-01 1.595933413983041760e+01
1.878190759101853458e-01 1.486818261225272408e+01
1.888596248068507288e-01 1.441734071238609971e+01
1.899001737035161119e-01 1.460628008253407017e+01
1.909407226001814950e-01 1.428218946493798569e+01
1.919812714968468781e-01 1.395051178230973932e+01
1.930218203935122612e-01 1.388350770000815970e+01
1.940623692901776443e-01 1.344504870199729396e+01
1.951029181868430273e-01 1.274982642547711009e+01
1.961434670835084104e-01 1.201809114237238418e+01
1.971840159801737935e-01 1.175778199575115224e+01
1.982245648768391766e-01 1.175117742839792356e+01
1.992651137735045597e-01 1.195544001536828915e+01
2.003056626701699428e-01 1.160758655130091199e+01
2.013462115668353813e-01 1.139965416475132542e+01
2.023867604635007644e-01 1.080644845402636633e+01
2.034273093601661475e-01 9.937343329015092763e+00
2.044678582568315306e-01 9.376111658032030505e+00
2.055084071534969137e-01 8.413507510118890309e+00
2.065489560501622968e-01 7.980924998785795310e+00
2.075895049468276798e-01 8.120655173432126617e+00
2.086300538434930629e-01 7.841835463888102709e+00
2.096706027401584460e-01 7.559950666095680560e+00
2.107111516368238291e-01 7.463019847127362993e+00
2.117517005334892122e-01 7.230353114566369754e+00
2.127922494301545953e-01 7.105358264385422729e+00
2.138327983268199783e-01 7.229250010851522745e+00
2.148733472234853614e-01 6.924707572087584140e+00
2.159138961201507445e-01 6.705894952391886932e+00
2.169544450168161276e-01 6.894861334344234649e+00
2.179949939134815107e-01 6.660467741387932961e+00
2.190355428101468938e-01 6.465621322211269728e+00
2.200760917068122768e-01 6.495780629437696518e+00
2.211166406034776599e-01 6.153466042017804227e+00
2.221571895001430430e-01 6.077795854272544318e+00
2.231977383968084261e-01 6.275207092252358620e+00
2.242382872934738092e-01 6.749314376574144347e+00
2.252788361901391923e-01 6.950270179800025261e+00
2.263193850868045753e-01 6.674550662710927895e+00
2.273599339834699584e-01 6.970317621905810057e+00
2.284004828801353415e-01 7.281023951334923083e+00
2.294410317768007246e-01 7.077305356737102926e+00
2.304815806734661077e-01 6.978512157014122863e+00
2.315221295701314908e-01 7.078563037634925337e+00
2.325626784667968738e-01 7.098294661368321101e+00
2.336032273634622569e-01 7.086840745535113228e+00
2.346437762601276400e-01 6.858731417515620876e+00
2.356843251567930231e-01 6.427528632411842580e+00
2.367248740534584062e-01 5.803160305662817819e+00
2.377654229501237892e-01 5.608425789861481547e+00
2.388059718467891723e-01 5.422208711162745942e+00
2.398465207434545554e-01 5.261230184549976485e+00
2.408870696401199385e-01 5.031953353374603921e+00
2.419276185367853216e-01 4.904547980708361621e+00
2.429681674334507047e-01 4.861682389075763666e+00
2.440087163301160877e-01 4.655449646811014475e+00
2.450492652267814708e-01 4.468486961983735739e+00
2.460898141234468539e-01 4.385121872553572331e+00
2.471303630201122370e-01 4.684700431904719409e+00
2.481709119167776201e-01 4.635044038736737093e+00
2.492114608134430032e-01 4.518456121786776691e+00
2.502520097101083585e-01 4.197626924483113697e+00
2.512925586067737416e-01 4.217625081579345903e+00
2.523331075034391247e-01 3.897566414061184759e+00
2.533736564001045077e-01 3.757652955924346116e+00
2.544142052967698908e-01 3.803332396929768322e+00
2.554547541934352739e-01 3.754392452962534321e+00
2.564953030901006570e-01 3.709004741732982779e+00
2.575358519867660401e-01 3.352304343195417147e+00
2.585764008834314231e-01 3.250877149965788249e+00
2.596169497800968062e-01 3.227550730066823803e+00
2.606574986767621893e-01 2.879512610646095538e+00
2.616980475734275724e-01 2.847102510231390937e+00
2.627385964700929555e-01 2.829126608509000107e+00
2.637791453667583386e-01 2.910290773551864163e+00
2.648196942634237216e-01 2.698002186926579782e+00
2.658602431600891047e-01 2.802105459246163832e+00
2.669007920567544878e-01 2.759892622861880085e+00
2.679413409534198709e-01 2.663208999828125201e+00
2.689818898500852540e-01 2.612487820951322703e+00
2.700224387467506371e-01 2.879876684934561837e+00
2.710629876434160201e-01 2.925201544912411578e+00
2.721035365400814032e-01 2.875903421391370784e+00
2.731440854367467863e-01 2.801527090190283786e+00
2.741846343334121694e-01 2.702920912538701259e+00
2.752251832300775525e-01 2.813664652338044192e+00
2.762657321267429356e-01 2.299362481296203242e+00
2.773062810234083186e-01 2.555674704885817050e+00
2.783468299200737017e-01 2.340166516349903247e+00
2.793873788167390848e-01 2.876790632474513387e+00
2.804279277134044679e-01 2.965158801816095036e+00
2.814684766100698510e-01 2.877698737128717710e+00
2.825090255067352341e-01 2.739737760303643910e+00
2.835495744034006171e-01 2.607701324739320370e+00
2.845901233000660002e-01 2.906138461327216760e+00
2.856306721967313833e-01 2.917625682611728166e+00
2.866712210933967664e-01 2.719976688633266804e+00
2.877117699900621495e-01 2.572508512671454639e+00
2.887523188867275326e-01 3.024058411129640689e+00
2.897928677833929156e-01 2.943524260794252001e+00
2.908334166800582987e-01 2.805654162923381989e+00
2.918739655767236818e-01 2.738921930534626625e+00
2.929145144733890649e-01 2.610948569260859387e+00
2.939550633700544480e-01 2.364189766972064177e+00
2.949956122667198311e-01 2.476983239955366400e+00
2.960361611633852141e-01 2.539298375028412380e+00
2.970767100600505972e-01 2.428399785211723838e+00
2.981172589567159803e-01 2.296489074393669227e+00
2.991578078533813634e-01 2.176274031020717814e+00
3.001983567500468020e-01 1.995462871967870200e+00
3.012389056467121851e-01 1.801666181435503944e+00
3.022794545433775681e-01 2.002155527403516544e+00
3.033200034400429512e-01 2.024999657607693848e+00
3.043605523367083343e-01 2.063493027128039614e+00
3.054011012333737174e-01 1.932013201322046569e+00
3.064416501300391005e-01 1.668487396650526478e+00
3.074821990267044836e-01 1.701664935686888924e+00
3.085227479233698666e-01 1.774384613835280788e+00
3.095632968200352497e-01 1.866990067703930833e+00
3.106038457167006328e-01 1.737986713865446120e+00
3.116443946133660159e-01 1.678775247320093200e+00
3.126849435100313990e-01 1.792014099344928724e+00
3.137254924066967821e-01 1.743801864807846158e+00
3.147660413033621651e-01 1.645891730904075700e+00
3.158065902000275482e-01 1.668828242201744416e+00
3.168471390966929313e-01 1.578431217262568964e+00
3.178876879933583144e-01 1.537628589652733524e+00
3.189282368900236975e-01 1.559321725304208428e+00
3.199687857866890806e-01 1.537821802383419367e+00
3.210093346833544636e-01 1.663401622417133296e+00
3.220498835800198467e-01 1.470095712149984024e+00
3.230904324766852298e-01 1.539842992953278866e+00
3.241309813733506129e-01 1.802831577825269704e+00
3.251715302700159960e-01 1.976175920456988422e+00
3.262120791666813790e-01 1.771281299381566754e+00
3.272526280633467621e-01 1.729940290439007100e+00
3.282931769600121452e-01 1.598184159803025750e+00
3.293337258566775283e-01 1.631656520157253709e+00
3.303742747533429114e-01 1.540287695841850990e+00
3.314148236500082945e-01 1.497612625405267295e+00
3.324553725466736775e-01 1.580417567412254698e+00
3.334959214433390606e-01 1.627037879934405851e+00
3.345364703400044437e-01 1.607822167036935923e+00
3.355770192366698268e-01 1.564337140118816194e+00
3.366175681333352099e-01 1.712141908008877778e+00
3.376581170300005930e-01 1.650901349773118199e+00
3.386986659266659760e-01 1.560456770442542052e+00
3.397392148233313591e-01 1.636517025605236597e+00
3.407797637199967422e-01 1.437221709151756954e+00
3.418203126166621253e-01 1.247535581850467423e+00
3.428608615133275084e-01 1.139458117000923920e+00
3.439014104099928915e-01 1.337372265764511070e+00
3.449419593066582745e-01 1.462264222810780723e+00
3.459825082033236576e-01 1.315190582508908079e+00
3.470230570999890407e-01 1.260620554811346494e+00
3.480636059966544238e-01 1.472153081768798444e+00
3.491041548933198069e-01 1.592714513413778121e+00
3.501447037899851900e-01 1.550994711872473175e+00
3.511852526866505730e-01 1.376416533088661964e+00
3.522258015833159561e-01 1.351572220268518976e+00
3.532663504799813392e-01 1.370327773153622530e+00
3.543068993766467223e-01 1.409372699733413725e+00
3.553474482733121054e-01 1.222127884390939556e+00
3.563879971699774885e-01 1.300366753786168061e+00
3.574285460666428715e-01 1.276810287141067590e+00
3.584690949633082546e-01 1.311687010427647238e+00
3.595096438599736377e-01 1.348672369538949312e+00
3.605501927566390208e-01 1.273397923694385980e+00
3.615907416533044039e-01 1.249002303287259252e+00
3.626312905499697870e-01 1.086060481908329933e+00
3.636718394466351700e-01 1.107280765023642033e+00
3.647123883433005531e-01 1.126235241133553444e+00
3.657529372399659362e-01 1.126239471444687723e+00
3.667934861366313193e-01 1.153292324447800610e+00
3.678340350332967024e-01 1.033341419818317064e+00
3.688745839299620854e-01 9.941875300333862242e-01
3.699151328266274685e-01 9.075830696657547492e-01
3.709556817232928516e-01 1.167643071647134434e+00
3.719962306199582347e-01 1.123478389125544652e+00
3.730367795166236178e-01 1.006489081959031751e+00
3.740773284132890009e-01 1.054390106799033333e+00
3.751178773099543839e-01 1.008062979880794074e+00
3.761584262066197670e-01 1.102995490634519626e+00
3.771989751032851501e-01 1.177480241588718002e+00
3.782395239999505332e-01 1.193821625820866927e+00
3.792800728966159163e-01 1.146946780530296195e+00
3.803206217932812994e-01 1.132742799630296560e+00
3.813611706899466824e-01 1.073401323294095988e+00
3.824017195866120655e-01 1.215105641090325150e+00
3.834422684832774486e-01 1.208484812426696919e+00
3.844828173799428317e-01 1.040126290307824775e+00
3.855233662766082148e-01 9.226901660947426365e-01
3.865639151732735979e-01 1.094355707894823837e+00
3.876044640699389809e-01 1.239196135860400005e+00
3.886450129666043640e-01 1.415301018663058130e+00
3.896855618632697471e-01 1.226709851748118751e+00
3.907261107599351302e-01 1.053933641546780819e+00
3.917666596566005133e-01 1.077259783683121697e+00
3.928072085532658964e-01 1.144842553194546753e+00
3.938477574499312794e-01 1.055787896300856232e+00
3.948883063465966625e-01 1.054783460572913611e+00
3.959288552432620456e-01 8.482867261645914425e-01
3.969694041399274287e-01 1.007480969298697460e+00
3.980099530365928118e-01 1.072731135045081885e+00
3.990505019332581949e-01 9.770207939305279865e-01
4.000910508299235779e-01 9.324195824228453944e-01
4.011315997265889610e-01 9.500546671731093795e-01
4.021721486232543441e-01 1.089212383040020882e+00
4.032126975199197272e-01 1.136339737137792127e+00
4.042532464165851103e-01 1.128811734918802046e+00
4.052937953132504934e-01 9.268938491806331115e-01
4.063343442099158764e-01 8.955706841966382115e-01
4.073748931065812595e-01 7.822723601728114318e-01
4.084154420032466426e-01 8.819279572586040672e-01
4.094559908999120257e-01 9.296390850597511246e-01
4.104965397965774088e-01 8.241527061628417528e-01
4.115370886932427918e-01 7.354194539743623693e-01
4.125776375899081749e-01 6.349605552859394209e-01
4.136181864865735580e-01 8.093250946339374252e-01
4.146587353832389411e-01 6.641553273089151332e-01
4.156992842799043242e-01 9.755613604995296839e-01
4.167398331765697073e-01 8.095501173779560133e-01
4.177803820732350903e-01 5.965359594447576796e-01
4.188209309699004734e-01 6.366603463659004092e-01
4.198614798665658565e-01 5.856979594333751038e-01
4.209020287632312396e-01 6.122864238471592557e-01
4.219425776598966227e-01 7.001207573097012471e-01
4.229831265565620058e-01 6.814968467481179459e-01
4.240236754532273888e-01 7.312452977572618806e-01
4.250642243498927719e-01 7.137128600746756035e-01
4.261047732465581550e-01 6.794320047906481363e-01
4.271453221432235381e-01 6.765777220152067173e-01
4.281858710398889212e-01 6.136070214084199392e-01
4.292264199365543043e-01 6.861843901569741888e-01
4.302669688332196873e-01 9.120807132193284872e-01
4.313075177298850704e-01 6.770369012798695962e-01
4.323480666265504535e-01 5.109449215251160581e-01
4.333886155232158366e-01 7.343184710801828885e-01
4.344291644198812197e-01 8.164007950527114588e-01
