# q (1/Angstrom), Intensity (arb)
2.029070354705860696e-02 1.010701610656740172e+03
2.133125244372399004e-02 8.968235054157606783e+02
2.237180134038937659e-02 8.089256065668325846e+02
2.341235023705475968e-02 7.335894214485415432e+02
2.445289913372014276e-02 6.708939329201662076e+02
2.549344803038552584e-02 6.219134547010207825e+02
2.653399692705091240e-02 5.831875720536110066e+02
2.757454582371629548e-02 5.477463922185029332e+02
2.861509472038167856e-02 5.207727472754763767e+02
2.965564361704706164e-02 5.024092637368137275e+02
3.069619251371244473e-02 4.824295808017843683e+02
3.173674141037782781e-02 4.694780401870664264e+02
3.277729030704321089e-02 4.581780367135762049e+02
3.381783920370859398e-02 4.481750558728132887e+02
3.485838810037397706e-02 4.412459390620493309e+02
3.589893699703936014e-02 4.379798487480874201e+02
3.693948589370474322e-02 4.374610338279425719e+02
3.798003479037012631e-02 4.399482060831298895e+02
3.902058368703550939e-02 4.463979152693026435e+02
4.006113258370089247e-02 4.579370881599869563e+02
4.110168148036627556e-02 4.719181108080492209e+02
4.214223037703165864e-02 4.876008295220926811e+02
4.318277927369704866e-02 5.133115993770928753e+02
4.422332817036243174e-02 5.462039204542300013e+02
4.526387706702781483e-02 5.921192416117560242e+02
4.630442596369319791e-02 6.676810615266384730e+02
4.734497486035858099e-02 8.032652742622790356e+02
4.838552375702396408e-02 1.088308221070881700e+03
4.942607265368934716e-02 1.620447950014246089e+03
5.046662155035473024e-02 2.441997043485510858e+03
5.150717044702011332e-02 3.801403232641202067e+03
5.254771934368549641e-02 5.113598979074930867e+03
5.358826824035087949e-02 4.842831870939043256e+03
5.462881713701626257e-02 3.740594902814588295e+03
5.566936603368164566e-02 3.237763483894941601e+03
5.670991493034702874e-02 3.215015351687663497e+03
5.775046382701241182e-02 3.340509475724288222e+03
5.879101272367779490e-02 3.488818864003931139e+03
5.983156162034317799e-02 3.576855737474496436e+03
6.087211051700856107e-02 3.533046738242237552e+03
6.191265941367394415e-02 3.328232101851287098e+03
6.295320831033933417e-02 3.058448658529540808e+03
6.399375720700471726e-02 2.779029320119755539e+03
6.503430610367010034e-02 2.494580860742055393e+03
6.607485500033548342e-02 2.202125489781052693e+03
6.711540389700086651e-02 1.925624229193180554e+03
6.815595279366624959e-02 1.656175872153405635e+03
6.919650169033163267e-02 1.406959874598114084e+03
7.023705058699701576e-02 1.178990510490207498e+03
7.127759948366239884e-02 9.804461558368132046e+02
7.231814838032778192e-02 8.143236273579575482e+02
7.335869727699316500e-02 6.730373674275174380e+02
7.439924617365854809e-02 5.590430160279469192e+02
7.543979507032393117e-02 4.633202131190301998e+02
7.648034396698931425e-02 3.867945465538077769e+02
7.752089286365469734e-02 3.257442848779914470e+02
7.856144176032008042e-02 2.783457661871616438e+02
7.960199065698546350e-02 2.429154398998430793e+02
8.064253955365084658e-02 2.165664327816376726e+02
8.168308845031622967e-02 1.982375990872941429e+02
8.272363734698161275e-02 1.949929453022284918e+02
8.376418624364699583e-02 2.210038168317414033e+02
8.480473514031239279e-02 2.923738122124417487e+02
8.584528403697777588e-02 3.690261398360981957e+02
8.688583293364315896e-02 3.522694715556126539e+02
8.792638183030854204e-02 2.634012772900160826e+02
8.896693072697392513e-02 1.991629274548175772e+02
9.000747962363930821e-02 1.743427411168806316e+02
9.104802852030469129e-02 1.667159652411858985e+02
9.208857741697007437e-02 1.661940161479324445e+02
9.312912631363545746e-02 1.696621824864183736e+02
9.416967521030084054e-02 1.756655433059657128e+02
9.521022410696622362e-02 1.829540390062551580e+02
9.625077300363160671e-02 1.922016472201788986e+02
9.729132190029698979e-02 2.091132037622340647e+02
9.833187079696237287e-02 2.445953234238245955e+02
9.937241969362775595e-02 3.108166736821685276e+02
1.004129685902931390e-01 3.838955216229223311e+02
1.014535174869585221e-01 3.926974736268285824e+02
1.024940663836239052e-01 3.279858635683432908e+02
1.035346152802892883e-01 2.675077927610639676e+02
1.045751641769546714e-01 2.427110089235151236e+02
1.056157130736200545e-01 2.294527827880895074e+02
1.066562619702854375e-01 2.102116719105140419e+02
1.076968108669508206e-01 1.944041167131871646e+02
1.087373597636162037e-01 1.888261679300171636e+02
1.097779086602815868e-01 1.875230638505084926e+02
1.108184575569469699e-01 1.870178241145302707e+02
1.118590064536123529e-01 1.861196384577177128e+02
1.128995553502777360e-01 1.855317326457337117e+02
1.139401042469431191e-01 1.837073993565493311e+02
1.149806531436085022e-01 1.810355486956979689e+02
1.160212020402738853e-01 1.774939927532847719e+02
1.170617509369392684e-01 1.715958419223417479e+02
1.181022998336046514e-01 1.634655578118299388e+02
1.191428487302700345e-01 1.550447997129523685e+02
1.201833976269354176e-01 1.458106111984826896e+02
1.212239465236008007e-01 1.356552948918449601e+02
1.222644954202661838e-01 1.267097175757422605e+02
1.233050443169315669e-01 1.169540007323882378e+02
1.243455932135969499e-01 1.078661020311486141e+02
1.253861421102623330e-01 9.866327614683497416e+01
1.264266910069277161e-01 9.049949503698299225e+01
1.274672399035930992e-01 8.463207834403911534e+01
1.285077888002584823e-01 7.953583927092184069e+01
1.295483376969238654e-01 7.632605909269545919e+01
1.305888865935892484e-01 7.563546574637337017e+01
1.316294354902546315e-01 7.872337567251605606e+01
1.326699843869200146e-01 8.444920594228869959e+01
1.337105332835853977e-01 8.694001036404597471e+01
1.347510821802507808e-01 8.644609783463377539e+01
1.357916310769161639e-01 8.669724381385296397e+01
1.368321799735815469e-01 7.789417179964587490e+01
1.378727288702469300e-01 6.171551250542039924e+01
1.389132777669123131e-01 4.841319992572837094e+01
1.399538266635776962e-01 4.194980796667628908e+01
1.409943755602430793e-01 3.808623502967799368e+01
1.420349244569084624e-01 3.546379345950139594e+01
1.430754733535738454e-01 3.430632808178302895e+01
1.441160222502392285e-01 3.409264894215693431e+01
1.451565711469046116e-01 3.546085950334013148e+01
1.461971200435699947e-01 3.714396683269504962e+01
1.472376689402353778e-01 3.980295158468776151e+01
1.482782178369007609e-01 4.282664398649918525e+01
1.493187667335661439e-01 4.428812317217986561e+01
1.503593156302315270e-01 4.243664564347530188e+01
1.513998645268969101e-01 3.832337807444044131e+01
1.524404134235622932e-01 3.583872402406247915e+01
1.534809623202276763e-01 3.412765353758660325e+01
1.545215112168930593e-01 3.337069081373675772e+01
1.555620601135584424e-01 3.350640271659665359e+01
1.566026090102238255e-01 3.407041616174842602e+01
1.576431579068892086e-01 3.458761517176959188e+01
1.586837068035545917e-01 3.355855496445673225e+01
1.597242557002199748e-01 3.104124036386180308e+01
1.607648045968853578e-01 2.924680027794064330e+01
1.618053534935507409e-01 2.789576021238178782e+01
1.628459023902161240e-01 2.693247289386598453e+01
1.638864512868815071e-01 2.594915104863282096e+01
1.649270001835468902e-01 2.523336736848796136e+01
1.659675490802122733e-01 2.489034522172347152e+01
1.670080979768776563e-01 2.431464544672478212e+01
1.680486468735430672e-01 2.353979738955175094e+01
1.690891957702084503e-01 2.376019331879197694e+01
1.701297446668738333e-01 2.369241937449442759e+01
1.711702935635392164e-01 2.259600155144087807e+01
1.722108424602045995e-01 2.225831158665082654e+01
1.732513913568699826e-01 2.219452921098485376e+01
1.742919402535353657e-01 2.161691624715872706e+01
1.753324891502007488e-01 2.009093373533630000e+01
1.763730380468661318e-01 2.055477024545622555e+01
1.774135869435315149e-01 2.150761158608294465e+01
1.784541358401968980e-01 2.235813735768390131e+01
1.794946847368622811e-01 2.457952022203005527e+01
1.805352336335276642e-01 2.615288618798744125e+01
1.815757825301930473e-01 2.588270230643966840e+01
1.826163314268584303e-01 2.372628757943096645e+01
1.836568803235238134e-01 2.123537730126978573e+01
1.846974292201891965e-01 1.897212046340865754e+01
1.857379781168545796e-01 1.728967939956275046e+01
1.867785270135199627e-01 1.593555300934959007e+01
1.878190759101853458e-01 1.453556946161519647e+01
1.888596248068507288e-01 1.450737366522027116e+01
1.899001737035161119e-01 1.444023632680410429e+01
1.909407226001814950e-01 1.438610814258162662e+01
1.919812714968468781e-01 1.446267364421468216e+01
1.930218203935122612e-01 1.423163611427605701e+01
1.940623692901776443e-01 1.307945108838892878e+01
1.951029181868430273e-01 1.275997073244215585e+01
1.961434670835084104e-01 1.224912156688371567e+01
1.971840159801737935e-01 1.234418888300847073e+01
1.982245648768391766e-01 1.207876166327867651e+01
1.992651137735045597e-01 1.210731247856262627e+01
2.003056626701699428e-01 1.202898484614622987e+01
2.013462115668353813e-01 1.189312119173814253e+01
2.023867604635007644e-01 1.085439959209877259e+01
2.034273093601661475e-01 9.878854181212318508e+00
2.044678582568315306e-01 8.999194524114550120e+00
2.055084071534969137e-01 8.413735812834012506e+00
2.065489560501622968e-01 8.234460164104199009e+00
2.075895049468276798e-01 7.773624861644485406e+00
2.086300538434930629e-01 7.725245683809468744e+00
2.096706027401584460e-01 7.626170302420213432e+00
2.107111516368238291e-01 7.398155192546575165e+00
2.117517005334892122e-01 7.009668576214068025e+00
2.127922494301545953e-01 7.145800146904711880e+00
2.138327983268199783e-01 7.339942391743285555e+00
2.148733472234853614e-01 7.115334586471263378e+00
2.159138961201507445e-01 6.795059103027945469e+00
2.169544450168161276e-01 6.590555128925714712e+00
2.179949939134815107e-01 6.690137983739880667e+00
2.190355428101468938e-01 6.503803556989403489e+00
2.200760917068122768e-01 6.623371513740146099e+00
2.211166406034776599e-01 6.635174598939418189e+00
2.221571895001430430e-01 6.777021754672027498e+00
2.231977383968084261e-01 6.734461854931488745e+00
2.242382872934738092e-01 6.684890559805165111e+00
2.252788361901391923e-01 6.816715530796134459e+00
2.263193850868045753e-01 6.525132370968968587e+00
2.273599339834699584e-01 6.744526920312246432e+00
2.284004828801353415e-01 7.080637084817979598e+00
2.294410317768007246e-01 6.964374991053187358e+00
2.304815806734661077e-01 7.180068286764548446e+00
2.315221295701314908e-01 7.250104607462205308e+00
2.325626784667968738e-01 7.596240612613783583e+00
2.336032273634622569e-01 7.734138318729947059e+00
2.346437762601276400e-01 7.344103346724523362e+00
2.356843251567930231e-01 6.578577897411772568e+00
2.367248740534584062e-01 6.058858407932699919e+00
2.377654229501237892e-01 5.476186315695951379e+00
2.388059718467891723e-01 5.247169252961285224e+00
2.398465207434545554e-01 5.009530310429227029e+00
2.408870696401199385e-01 4.780736240898267653e+00
2.419276185367853216e-01 4.672770657074305944e+00
2.429681674334507047e-01 4.582950502730763986e+00
2.440087163301160877e-01 4.423049589680545068e+00
2.450492652267814708e-01 4.237008261705803136e+00
2.460898141234468539e-01 4.144625837534249513e+00
2.471303630201122370e-01 4.118917627905851475e+00
2.481709119167776201e-01 4.445081929067828952e+00
2.492114608134430032e-01 4.583619842581263981e+00
2.502520097101083585e-01 4.604726150958040165e+00
2.512925586067737416e-01 4.478439802230084865e+00
2.523331075034391247e-01 4.283621063626494418e+00
2.533736564001045077e-01 3.791019150671740334e+00
2.544142052967698908e-01 3.597610974140515339e+00
2.554547541934352739e-01 3.467010455722828510e+00
2.564953030901006570e-01 3.483028719022556174e+00
2.575358519867660401e-01 3.303239534302036873e+00
2.585764008834314231e-01 3.308591937418505324e+00
2.596169497800968062e-01 3.103289749785666629e+00
2.606574986767621893e-01 2.997092021075999924e+00
2.616980475734275724e-01 3.037695403471214917e+00
2.627385964700929555e-01 3.045645467804707351e+00
2.637791453667583386e-01 3.093023447000582848e+00
2.648196942634237216e-01 2.944591580067214664e+00
2.658602431600891047e-01 2.822400557146607980e+00
2.669007920567544878e-01 2.982873518744177943e+00
2.679413409534198709e-01 2.834881465204926343e+00
2.689818898500852540e-01 2.501590507542633901e+00
2.700224387467506371e-01 2.768035344048893620e+00
2.710629876434160201e-01 2.913464307963582911e+00
2.721035365400814032e-01 2.954366241237185164e+00
2.731440854367467863e-01 3.309115127486915497e+00
2.741846343334121694e-01 3.245864153320955126e+00
2.752251832300775525e-01 3.062263194695990620e+00
2.762657321267429356e-01 3.012840692356839156e+00
2.773062810234083186e-01 3.049569348627237275e+00
2.783468299200737017e-01 2.985436915880057995e+00
2.793873788167390848e-01 2.940143415459310461e+00
2.804279277134044679e-01 2.919783135852053846e+00
2.814684766100698510e-01 3.037829671623043737e+00
2.825090255067352341e-01 3.049744531796108049e+00
2.835495744034006171e-01 2.827455755424626460e+00
2.845901233000660002e-01 3.003425756434911165e+00
2.856306721967313833e-01 2.955309905643790813e+00
2.866712210933967664e-01 3.052379869150229297e+00
2.877117699900621495e-01 2.876318236644465287e+00
2.887523188867275326e-01 2.671933759300603839e+00
2.897928677833929156e-01 2.718706833457620320e+00
2.908334166800582987e-01 2.789429363622030422e+00
2.918739655767236818e-01 2.667100864956029938e+00
2.929145144733890649e-01 2.237437227559130548e+00
2.939550633700544480e-01 2.265155015755020429e+00
2.949956122667198311e-01 2.432055148858907501e+00
2.960361611633852141e-01 2.579691911677318927e+00
2.970767100600505972e-01 2.496593962231180797e+00
2.981172589567159803e-01 2.422289612061145903e+00
2.991578078533813634e-01 2.319659626041211453e+00
3.001983567500468020e-01 2.355063421886459452e+00
3.012389056467121851e-01 2.677056582209573321e+00
3.022794545433775681e-01 2.613216677893621664e+00
3.033200034400429512e-01 2.297762324954032209e+00
3.043605523367083343e-01 1.989754234364227159e+00
3.054011012333737174e-01 1.930520490325321248e+00
3.064416501300391005e-01 1.973075880342317845e+00
3.074821990267044836e-01 1.715984332715514427e+00
3.085227479233698666e-01 1.952989270178203896e+00
3.095632968200352497e-01 1.986534079698362376e+00
3.106038457167006328e-01 1.991735790663462069e+00
3.116443946133660159e-01 1.854773084524723004e+00
3.126849435100313990e-01 1.645530602608339166e+00
3.137254924066967821e-01 1.652547033412353983e+00
3.147660413033621651e-01 1.844043992699546664e+00
3.158065902000275482e-01 1.671563357448739850e+00
3.168471390966929313e-01 1.554381945987401537e+00
3.178876879933583144e-01 1.662475238555341406e+00
3.189282368900236975e-01 1.435738790299232903e+00
3.199687857866890806e-01 1.555297681296355705e+00
3.210093346833544636e-01 1.414035821506089974e+00
3.220498835800198467e-01 1.505312197606009761e+00
3.230904324766852298e-01 1.686075427871429611e+00
3.241309813733506129e-01 1.708421298072781980e+00
3.251715302700159960e-01 1.910702913733477004e+00
3.262120791666813790e-01 1.869569271369780239e+00
3.272526280633467621e-01 2.023589471621910718e+00
3.282931769600121452e-01 2.016473969623234552e+00
3.293337258566775283e-01 1.678194275767232568e+00
3.303742747533429114e-01 1.635472084206543997e+00
3.314148236500082945e-01 1.683908076522801167e+00
3.324553725466736775e-01 1.679636385280460331e+00
3.334959214433390606e-01 1.821708838856032742e+00
3.345364703400044437e-01 1.749755120776832484e+00
3.355770192366698268e-01 1.863083897296125002e+00
3.366175681333352099e-01 1.919806619067998099e+00
3.376581170300005930e-01 1.792157633631649816e+00
3.386986659266659760e-01 1.523463961815036072e+00
3.397392148233313591e-01 1.646137405685674793e+00
3.407797637199967422e-01 1.849976241438088920e+00
3.418203126166621253e-01 1.652091375646808302e+00
3.428608615133275084e-01 1.550725200148200145e+00
3.439014104099928915e-01 1.537288600081772927e+00
3.449419593066582745e-01 1.520427685665445949e+00
3.459825082033236576e-01 1.723485868230472562e+00
3.470230570999890407e-01 1.791893719543374175e+00
3.480636059966544238e-01 1.732365033912241614e+00
3.491041548933198069e-01 1.426071010731988054e+00
3.501447037899851900e-01 1.579294582307838368e+00
3.511852526866505730e-01 1.511123444781510727e+00
3.522258015833159561e-01 1.575698256285416932e+00
3.532663504799813392e-01 1.264732437592005709e+00
3.543068993766467223e-01 1.231562204830268570e+00
3.553474482733121054e-01 1.341345300851905620e+00
3.563879971699774885e-01 1.278485073239437497e+00
3.574285460666428715e-01 1.290921033453180655e+00
3.584690949633082546e-01 1.142929183372736190e+00
3.595096438599736377e-01 1.196942308502247698e+00
3.605501927566390208e-01 1.145559291544063996e+00
3.615907416533044039e-01 1.102115747050380179e+00
3.626312905499697870e-01 1.412096793072418421e+00
3.636718394466351700e-01 1.457742729135574677e+00
3.647123883433005531e-01 1.198902147193216194e+00
3.657529372399659362e-01 1.028342459154316657e+00
3.667934861366313193e-01 1.166965754247325293e+00
3.678340350332967024e-01 1.344363079281162499e+00
3.688745839299620854e-01 1.524548773238315391e+00
3.699151328266274685e-01 1.237759244610213472e+00
3.709556817232928516e-01 1.200893500035032702e+00
3.719962306199582347e-01 1.376062998378813518e+00
3.730367795166236178e-01 1.284877644235162819e+00
3.740773284132890009e-01 1.246675081843601873e+00
3.751178773099543839e-01 1.278210747993036023e+00
3.761584262066197670e-01 1.325915499530452735e+00
3.771989751032851501e-01 1.150532436115881296e+00
3.782395239999505332e-01 9.956796102753635580e-01
3.792800728966159163e-01 1.082471099344424204e+00
3.803206217932812994e-01 1.340836279910650575e+00
3.813611706899466824e-01 1.374636975072785816e+00
3.824017195866120655e-01 1.212706529560595214e+00
3.834422684832774486e-01 1.298920069587584436e+00
3.844828173799428317e-01 1.259028115290227845e+00
3.855233662766082148e-01 1.149754616331602364e+00
3.865639151732735979e-01 1.117131630614810689e+00
3.876044640699389809e-01 1.231269171724775902e+00
3.886450129666043640e-01 1.185375516178389432e+00
3.896855618632697471e-01 1.310518925338584495e+00
3.907261107599351302e-01 1.250733965892077748e+00
3.917666596566005133e-01 1.131493331122015888e+00
3.928072085532658964e-01 1.016824874863345940e+00
3.938477574499312794e-01 1.086766808046462529e+00
3.948883063465966625e-01 1.020889715184292612e+00
3.959288552432620456e-01 1.132026902432144766e+00
3.969694041399274287e-01 1.119689234223667285e+00
3.980099530365928118e-01 9.138213482382724351e-01
3.990505019332581949e-01 1.102049867686357487e+00
4.000910508299235779e-01 1.071515310706509183e+00
4.011315997265889610e-01 1.090356372480165703e+00
4.021721486232543441e-01 8.902884264200885411e-01
4.032126975199197272e-01 8.927320865176575637e-01
4.042532464165851103e-01 9.963131337423192235e-01
4.052937953132504934e-01 1.045351738246324658e+00
4.063343442099158764e-01 9.522184911794013829e-01
4.073748931065812595e-01 8.587501927539662461e-01
4.084154420032466426e-01 7.774160882062375322e-01
4.094559908999120257e-01 8.545331104572291281e-01
4.104965397965774088e-01 1.019125197531412397e+00
4.115370886932427918e-01 1.084266357566093575e+00
4.125776375899081749e-01 1.022145287532982394e+00
4.136181864865735580e-01 9.484997530218670647e-01
4.146587353832389411e-01 1.004223052835346408e+00
4.156992842799043242e-01 7.594003943654605848e-01
4.167398331765697073e-01 1.019892817030868315e+00
4.177803820732350903e-01 9.975215982686158611e-01
4.188209309699004734e-01 8.349304325312978392e-01
4.198614798665658565e-01 8.859108514026701187e-01
4.209020287632312396e-01 8.004326920258613143e-01
4.219425776598966227e-01 6.925259323390804411e-01
4.229831265565620058e-01 6.607291541685427205e-01
4.240236754532273888e-01 7.727240333528584415e-01
4.250642243498927719e-01 9.534263971723504483e-01
4.261047732465581550e-01 1.135106412049282198e+00
4.271453221432235381e-01 9.182652465372349582e-01
4.281858710398889212e-01 7.784873497942292886e-01
4.292264199365543043e-01 8.055935758964984927e-01
4.302669688332196873e-01 5.925898529032807005e-01
4.313075177298850704e-01 7.311457552679101468e-01
4.323480666265504535e-01 8.969623483992243962e-01
4.333886155232158366e-01 1.058151421574766715e+00
4.344291644198812197e-01 9.304862927392356653e-01
