# q (1/angstrom), Intensity (arb)
2.004886800316986462e-02 3.575223846435546875e+02
2.113259059444069429e-02 4.268684539794921875e+02
2.221631318571152050e-02 4.689379577636718750e+02
2.330003577698234671e-02 4.878668594360351562e+02
2.438375836825317292e-02 5.038580551147460938e+02
2.546748095952399912e-02 5.115128631591796875e+02
2.655120355079482186e-02 5.262868804931640625e+02
2.763492614206565501e-02 5.354599151611328125e+02
2.871864873333647775e-02 5.326616821289062500e+02
2.980237132460730742e-02 5.262725372314453125e+02
3.088609391587813363e-02 5.185342864990234375e+02
3.196981650714896678e-02 5.147281341552734375e+02
3.305353909841978605e-02 5.109364318847656250e+02
3.413726168969061919e-02 5.033900451660156250e+02
3.522098428096144540e-02 4.982593994140625000e+02
3.630470687223227161e-02 4.946629943847656250e+02
3.738842946350309782e-02 4.882560882568359375e+02
3.847215205477392402e-02 4.795957946777343750e+02
3.955587464604475717e-02 4.724610137939453125e+02
4.063959723731558338e-02 4.678645477294921875e+02
4.172331982858640959e-02 4.636388397216796875e+02
4.280704241985723579e-02 4.567366027832031250e+02
4.389076501112806894e-02 4.486219940185546875e+02
4.497448760239888821e-02 4.404748840332031250e+02
4.605821019366971442e-02 4.351656494140625000e+02
4.714193278494054756e-02 4.288596038818359375e+02
4.822565537621137377e-02 4.211309204101562500e+02
4.930937796748219998e-02 4.148119201660156250e+02
5.039310055875302619e-02 4.092667846679687500e+02
5.147682315002385933e-02 4.052496185302734375e+02
5.256054574129467860e-02 3.980912933349609375e+02
5.364426833256550481e-02 3.904912719726562500e+02
5.472799092383633796e-02 3.851679840087890625e+02
5.581171351510716416e-02 3.808587341308593750e+02
5.689543610637798343e-02 3.749585876464843750e+02
5.797915869764881658e-02 3.668470153808593750e+02
5.906288128891964972e-02 3.606975097656250000e+02
6.014660388019047593e-02 3.547203521728515625e+02
6.123032647146129520e-02 3.475998687744140625e+02
6.231404906273212835e-02 3.418360595703125000e+02
6.339777165400295456e-02 3.338753814697265625e+02
6.448149424527377382e-02 3.271384582519531250e+02
6.556521683654460697e-02 3.237920532226562500e+02
6.664893942781544012e-02 3.146117401123046875e+02
6.773266201908627326e-02 3.101154785156250000e+02
6.881638461035709253e-02 3.055262451171875000e+02
6.990010720162791180e-02 2.995612792968750000e+02
7.098382979289874495e-02 2.898641510009765625e+02
7.206755238416956422e-02 2.853245086669921875e+02
7.315127497544039736e-02 2.808862915039062500e+02
7.423499756671123051e-02 2.756602020263671875e+02
7.531872015798206366e-02 2.680995788574218750e+02
7.640244274925288293e-02 2.630216979980468750e+02
7.748616534052371607e-02 2.594906921386718750e+02
7.856988793179453534e-02 2.538058929443359375e+02
7.965361052306535461e-02 2.481415100097656250e+02
8.073733311433618776e-02 2.403653411865234375e+02
8.182105570560702090e-02 2.344318542480468750e+02
8.290477829687785405e-02 2.277758026123046875e+02
8.398850088814867332e-02 2.210166320800781250e+02
8.507222347941950646e-02 2.143202514648437500e+02
8.615594607069032573e-02 2.091121673583984375e+02
8.723966866196115888e-02 2.008219604492187500e+02
8.832339125323197815e-02 1.931587066650390625e+02
8.940711384450281130e-02 1.850233154296875000e+02
9.049083643577364444e-02 1.820870056152343750e+02
9.157455902704446371e-02 1.778582153320312500e+02
9.265828161831529686e-02 1.718808898925781250e+02
9.374200420958611613e-02 1.659721832275390625e+02
9.482572680085694927e-02 1.587326965332031250e+02
9.590944939212776854e-02 1.526720123291015625e+02
9.699317198339860169e-02 1.482650451660156250e+02
9.807689457466943483e-02 1.427336273193359375e+02
9.916061716594025410e-02 1.377198028564453125e+02
1.002443397572110872e-01 1.320943603515625000e+02
1.013280623484819065e-01 1.290914001464843750e+02
1.024117849397527397e-01 1.237610473632812500e+02
1.034955075310235728e-01 1.184546966552734375e+02
1.045792301222943782e-01 1.133329010009765625e+02
1.056629527135652113e-01 1.082257843017578125e+02
1.067466753048360445e-01 1.037080230712890625e+02
1.078303978961068776e-01 9.910139465332031250e+01
1.089141204873776969e-01 9.576358032226562500e+01
1.099978430786485301e-01 9.154934692382812500e+01
1.110815656699193632e-01 8.854957580566406250e+01
1.121652882611901964e-01 8.523431396484375000e+01
1.132490108524610017e-01 8.174804687500000000e+01
1.143327334437318349e-01 7.660110473632812500e+01
1.154164560350026680e-01 7.314601135253906250e+01
1.165001786262734873e-01 7.100827026367187500e+01
1.175839012175443204e-01 6.708355712890625000e+01
1.186676238088151536e-01 6.460487365722656250e+01
1.197513464000859867e-01 6.128414916992187500e+01
1.208350689913567921e-01 5.848057556152343750e+01
1.219187915826276253e-01 5.584445190429687500e+01
1.230025141738984584e-01 5.299116516113281250e+01
1.240862367651692777e-01 5.086631774902343750e+01
1.251699593564401247e-01 4.760038757324218750e+01
1.262536819477109440e-01 4.705603027343750000e+01
1.273374045389817633e-01 4.512356567382812500e+01
1.284211271302525825e-01 3.975282287597656250e+01
1.295048497215234018e-01 3.748136901855468750e+01
1.305885723127942488e-01 3.712608337402343750e+01
1.316722949040650681e-01 3.488928222656250000e+01
1.327560174953359151e-01 3.263998413085937500e+01
1.338397400866067344e-01 3.164576721191406250e+01
1.349234626778775537e-01 2.993539428710937500e+01
1.360071852691483729e-01 2.802157592773437500e+01
1.370909078604191922e-01 2.623258972167968750e+01
1.381746304516900392e-01 2.411329650878906250e+01
1.392583530429608585e-01 2.245660400390625000e+01
1.403420756342317055e-01 2.111293029785156250e+01
1.414257982255025248e-01 1.991873168945312500e+01
1.425095208167733440e-01 1.970079040527343750e+01
1.435932434080441633e-01 1.860125732421875000e+01
1.446769659993149826e-01 1.713508605957031250e+01
1.457606885905858296e-01 1.641438293457031250e+01
1.468444111818566489e-01 1.524995422363281250e+01
1.479281337731274959e-01 1.494641113281250000e+01
1.490118563643983152e-01 1.307312011718750000e+01
1.500955789556691622e-01 1.209025573730468750e+01
1.511793015469399537e-01 1.176354980468750000e+01
1.522630241382108007e-01 1.113156127929687500e+01
1.533467467294816200e-01 1.031555175781250000e+01
1.544304693207524393e-01 9.758728027343750000e+00
1.555141919120232863e-01 9.070602416992187500e+00
1.565979145032941056e-01 8.895645141601562500e+00
1.576816370945649526e-01 8.860046386718750000e+00
1.587653596858357441e-01 8.940292358398437500e+00
1.598490822771065911e-01 8.625869750976562500e+00
1.609328048683774104e-01 7.203033447265625000e+00
1.620165274596482297e-01 7.117614746093750000e+00
1.631002500509190767e-01 7.663574218750000000e+00
1.641839726421898960e-01 7.510025024414062500e+00
1.652676952334607430e-01 6.962478637695312500e+00
1.663514178247315345e-01 7.052139282226562500e+00
1.674351404160023815e-01 6.477676391601562500e+00
1.685188630072732008e-01 5.872238159179687500e+00
1.696025855985440201e-01 4.782150268554687500e+00
1.706863081898148671e-01 5.183776855468750000e+00
1.717700307810856863e-01 6.586486816406250000e+00
1.728537533723565334e-01 6.596282958984375000e+00
1.739374759636273526e-01 5.862945556640625000e+00
1.750211985548981719e-01 5.906066894531250000e+00
1.761049211461689912e-01 6.244369506835937500e+00
1.771886437374398104e-01 5.675491333007812500e+00
1.782723663287106575e-01 5.670730590820312500e+00
1.793560889199814767e-01 5.838714599609375000e+00
1.804398115112523238e-01 5.042373657226562500e+00
1.815235341025231430e-01 4.318267822265625000e+00
1.826072566937939623e-01 4.485595703125000000e+00
1.836909792850647816e-01 4.026763916015625000e+00
1.847747018763356008e-01 3.784103393554687500e+00
1.858584244676064479e-01 5.111221313476562500e+00
1.869421470588772671e-01 4.974288940429687500e+00
1.880258696501481142e-01 4.330963134765625000e+00
1.891095922414189334e-01 4.329681396484375000e+00
1.901933148326897527e-01 4.791702270507812500e+00
1.912770374239605720e-01 5.750305175781250000e+00
1.923607600152313912e-01 5.889343261718750000e+00
1.934444826065022383e-01 5.757125854492187500e+00
1.945282051977730575e-01 5.264846801757812500e+00
1.956119277890439045e-01 5.071838378906250000e+00
1.966956503803147238e-01 5.480087280273437500e+00
1.977793729715855431e-01 5.903076171875000000e+00
1.988630955628563624e-01 6.281661987304687500e+00
1.999468181541271816e-01 5.753738403320312500e+00
2.010305407453980286e-01 5.579315185546875000e+00
2.021142633366688757e-01 6.254760742187500000e+00
2.031979859279396949e-01 7.122863769531250000e+00
2.042817085192105420e-01 6.812927246093750000e+00
2.053654311104813335e-01 6.374984741210937500e+00
2.064491537017522083e-01 5.675781250000000000e+00
2.075328762930229998e-01 5.070190429687500000e+00
2.086165988842938190e-01 5.891479492187500000e+00
2.097003214755646661e-01 6.727706909179687500e+00
2.107840440668354853e-01 6.604049682617187500e+00
2.118677666581063324e-01 6.232437133789062500e+00
2.129514892493771239e-01 6.271896362304687500e+00
2.140352118406479986e-01 7.091522216796875000e+00
2.151189344319187902e-01 7.538787841796875000e+00
2.162026570231896372e-01 6.677474975585937500e+00
2.172863796144604565e-01 5.934112548828125000e+00
2.183701022057312757e-01 5.813583374023437500e+00
2.194538247970021227e-01 6.477188110351562500e+00
2.205375473882729143e-01 6.140197753906250000e+00
2.216212699795437890e-01 5.937973022460937500e+00
2.227049925708145806e-01 5.951858520507812500e+00
2.237887151620854276e-01 6.612380981445312500e+00
2.248724377533562468e-01 7.254592895507812500e+00
2.259561603446270661e-01 7.374221801757812500e+00
2.270398829358979131e-01 5.449432373046875000e+00
2.281236055271687047e-01 5.455291748046875000e+00
2.292073281184395794e-01 6.671356201171875000e+00
2.302910507097103709e-01 6.258132934570312500e+00
2.313747733009812180e-01 6.147796630859375000e+00
2.324584958922520372e-01 6.158752441406250000e+00
2.335422184835228565e-01 5.929885864257812500e+00
2.346259410747937035e-01 5.550338745117187500e+00
2.357096636660644950e-01 5.800476074218750000e+00
2.367933862573353698e-01 5.713348388671875000e+00
2.378771088486061613e-01 6.095901489257812500e+00
2.389608314398770084e-01 5.533843994140625000e+00
2.400445540311478276e-01 4.783950805664062500e+00
2.411282766224186469e-01 4.362121582031250000e+00
2.422119992136894939e-01 4.725204467773437500e+00
2.432957218049602854e-01 5.488403320312500000e+00
2.443794443962311602e-01 5.905075073242187500e+00
2.454631669875019517e-01 5.021591186523437500e+00
2.465468895787727988e-01 3.883544921875000000e+00
2.476306121700436180e-01 4.961257934570312500e+00
2.487143347613144373e-01 5.429916381835937500e+00
2.497980573525852843e-01 5.083862304687500000e+00
2.508817799438560758e-01 4.776962280273437500e+00
2.519655025351269506e-01 4.457199096679687500e+00
2.530492251263977699e-01 4.592041015625000000e+00
2.541329477176685891e-01 5.162139892578125000e+00
2.552166703089394084e-01 4.610748291015625000e+00
2.563003929002102277e-01 4.755691528320312500e+00
2.573841154914810470e-01 4.104537963867187500e+00
2.584678380827518662e-01 4.132888793945312500e+00
2.595515606740227410e-01 4.570541381835937500e+00
2.606352832652935603e-01 4.191055297851562500e+00
2.617190058565643795e-01 4.723388671875000000e+00
2.628027284478351988e-01 4.102783203125000000e+00
2.638864510391060181e-01 3.476608276367187500e+00
2.649701736303768373e-01 4.114166259765625000e+00
2.660538962216476566e-01 4.233245849609375000e+00
2.671376188129185314e-01 3.922714233398437500e+00
2.682213414041893507e-01 4.014480590820312500e+00
2.693050639954601699e-01 3.894607543945312500e+00
2.703887865867309892e-01 3.727355957031250000e+00
2.714725091780018085e-01 3.246643066406250000e+00
2.725562317692726277e-01 2.960433959960937500e+00
2.736399543605434470e-01 3.258529663085937500e+00
2.747236769518143218e-01 3.295761108398437500e+00
2.758073995430851411e-01 3.941513061523437500e+00
2.768911221343559603e-01 3.877487182617187500e+00
2.779748447256267796e-01 3.212890625000000000e+00
2.790585673168975989e-01 3.154617309570312500e+00
2.801422899081684181e-01 3.677413940429687500e+00
2.812260124994392374e-01 2.823547363281250000e+00
2.823097350907101122e-01 2.091415405273437500e+00
2.833934576819809315e-01 3.269348144531250000e+00
2.844771802732517507e-01 3.121765136718750000e+00
2.855609028645225700e-01 2.683471679687500000e+00
2.866446254557933893e-01 3.280715942382812500e+00
2.877283480470642085e-01 2.969589233398437500e+00
2.888120706383350278e-01 3.444015502929687500e+00
2.898957932296059026e-01 3.589035034179687500e+00
2.909795158208767218e-01 3.149154663085937500e+00
2.920632384121475411e-01 3.469055175781250000e+00
2.931469610034183604e-01 2.858963012695312500e+00
2.942306835946891796e-01 2.985275268554687500e+00
2.953144061859599989e-01 2.841918945312500000e+00
2.963981287772308182e-01 3.319869995117187500e+00
2.974818513685016930e-01 2.741516113281250000e+00
2.985655739597725122e-01 2.736114501953125000e+00
2.996492965510433315e-01 2.673431396484375000e+00
3.007330191423141508e-01 2.476577758789062500e+00
3.018167417335849700e-01 2.547515869140625000e+00
3.029004643248558448e-01 2.988845825195312500e+00
3.039841869161266086e-01 2.079467773437500000e+00
3.050679095073974834e-01 2.600097656250000000e+00
3.061516320986683026e-01 3.209625244140625000e+00
3.072353546899391219e-01 2.808792114257812500e+00
3.083190772812099412e-01 2.277084350585937500e+00
3.094027998724807604e-01 1.973175048828125000e+00
3.104865224637516352e-01 1.895812988281250000e+00
3.115702450550223990e-01 2.353942871093750000e+00
3.126539676462932738e-01 2.850189208984375000e+00
3.137376902375640930e-01 2.171386718750000000e+00
3.148214128288349123e-01 2.665649414062500000e+00
3.159051354201057316e-01 2.775741577148437500e+00
3.169888580113765508e-01 2.400497436523437500e+00
3.180725806026474256e-01 2.280517578125000000e+00
3.191563031939181894e-01 1.748519897460937500e+00
3.202400257851890641e-01 2.092330932617187500e+00
3.213237483764598834e-01 2.029479980468750000e+00
3.224074709677307027e-01 2.385314941406250000e+00
3.234911935590015220e-01 2.064834594726562500e+00
3.245749161502723412e-01 2.275268554687500000e+00
3.256586387415432160e-01 1.829711914062500000e+00
3.267423613328139798e-01 2.215835571289062500e+00
3.278260839240848545e-01 2.734405517578125000e+00
3.289098065153556738e-01 3.080383300781250000e+00
3.299935291066264931e-01 2.445228576660156250e+00
3.310772516978973123e-01 2.586456298828125000e+00
3.321609742891681316e-01 2.608139038085937500e+00
3.332446968804390064e-01 3.131370544433593750e+00
3.343284194717097701e-01 2.567001342773437500e+00
3.354121420629806449e-01 2.267425537109375000e+00
3.364958646542514642e-01 2.837028503417968750e+00
3.375795872455222835e-01 2.659103393554687500e+00
3.386633098367931027e-01 2.022872924804687500e+00
3.397470324280639220e-01 1.736778259277343750e+00
3.408307550193347968e-01 2.200164794921875000e+00
3.419144776106055605e-01 2.459274291992187500e+00
3.429982002018764353e-01 2.284416198730468750e+00
3.440819227931472546e-01 1.942520141601562500e+00
3.451656453844180739e-01 2.114974975585937500e+00
3.462493679756888931e-01 2.485412597656250000e+00
3.473330905669597679e-01 2.668151855468750000e+00
3.484168131582305872e-01 2.726409912109375000e+00
3.495005357495013509e-01 2.937713623046875000e+00
3.505842583407722257e-01 2.324531555175781250e+00
3.516679809320430450e-01 2.363700866699218750e+00
3.527517035233138643e-01 2.177833557128906250e+00
3.538354261145846835e-01 1.879470825195312500e+00
3.549191487058555583e-01 1.613021850585937500e+00
3.560028712971263776e-01 1.853034973144531250e+00
3.570865938883971413e-01 2.440734863281250000e+00
3.581703164796680161e-01 2.663063049316406250e+00
3.592540390709388354e-01 2.700057983398437500e+00
3.603377616622096546e-01 2.507209777832031250e+00
3.614214842534804739e-01 2.143035888671875000e+00
3.625052068447513487e-01 2.350585937500000000e+00
3.635889294360221680e-01 2.725830078125000000e+00
3.646726520272929317e-01 2.708335876464843750e+00
3.657563746185638065e-01 2.369468688964843750e+00
3.668400972098346258e-01 2.234352111816406250e+00
3.679238198011054450e-01 1.944496154785156250e+00
3.690075423923762643e-01 2.152206420898437500e+00
3.700912649836471391e-01 1.874122619628906250e+00
3.711749875749179584e-01 2.071144104003906250e+00
3.722587101661887221e-01 1.813568115234375000e+00
3.733424327574595969e-01 2.097671508789062500e+00
3.744261553487304162e-01 2.610885620117187500e+00
3.755098779400012354e-01 1.787254333496093750e+00
3.765936005312720547e-01 2.401184082031250000e+00
3.776773231225429295e-01 2.809036254882812500e+00
3.787610457138137487e-01 2.237014770507812500e+00
3.798447683050845125e-01 2.749832153320312500e+00
3.809284908963553873e-01 2.174865722656250000e+00
3.820122134876262066e-01 2.309112548828125000e+00
3.830959360788970258e-01 2.461669921875000000e+00
3.841796586701678451e-01 2.112808227539062500e+00
3.852633812614387199e-01 1.877723693847656250e+00
3.863471038527095391e-01 2.072250366210937500e+00
3.874308264439803029e-01 1.875434875488281250e+00
3.885145490352511777e-01 1.863601684570312500e+00
3.895982716265219969e-01 1.861877441406250000e+00
3.906819942177928162e-01 1.667335510253906250e+00
3.917657168090636355e-01 1.730354309082031250e+00
3.928494394003345103e-01 1.724296569824218750e+00
3.939331619916053295e-01 1.850341796875000000e+00
3.950168845828760933e-01 1.726158142089843750e+00
3.961006071741469681e-01 1.607765197753906250e+00
3.971843297654177873e-01 1.874916076660156250e+00
3.982680523566886066e-01 1.640327453613281250e+00
3.993517749479594259e-01 1.422706604003906250e+00
4.004354975392302451e-01 1.449974060058593750e+00
4.015192201305010089e-01 1.387382507324218750e+00
4.026029427217718837e-01 1.281570434570312500e+00
4.036866653130427030e-01 1.982185363769531250e+00
4.047703879043135777e-01 2.155143737792968750e+00
4.058541104955843415e-01 1.892440795898437500e+00
4.069378330868551608e-01 1.896667480468750000e+00
4.080215556781260355e-01 1.684806823730468750e+00
4.091052782693967993e-01 1.715476989746093750e+00
4.101890008606676741e-01 1.514732360839843750e+00
4.112727234519384933e-01 1.490509033203125000e+00
4.123564460432093681e-01 1.499588012695312500e+00
4.134401686344801319e-01 1.859069824218750000e+00
4.145238912257509512e-01 1.713119506835937500e+00
4.156076138170218259e-01 1.743995666503906250e+00
4.166913364082925897e-01 1.484764099121093750e+00
4.177750589995634645e-01 1.629783630371093750e+00
4.188587815908342837e-01 1.681793212890625000e+00
4.199425041821051585e-01 1.696952819824218750e+00
4.210262267733759223e-01 2.052253723144531250e+00
4.221099493646467415e-01 2.062988281250000000e+00
4.231936719559176163e-01 1.781753540039062500e+00
4.242773945471884911e-01 1.716934204101562500e+00
4.253611171384592549e-01 1.867744445800781250e+00
4.264448397297300741e-01 2.171333312988281250e+00
4.275285623210009489e-01 1.721649169921875000e+00
4.286122849122717127e-01 1.518013000488281250e+00
4.296960075035425319e-01 1.545265197753906250e+00
4.307797300948134067e-01 2.227188110351562500e+00
4.318634526860842815e-01 1.925498962402343750e+00
4.329471752773550453e-01 1.373008728027343750e+00
4.340308978686258645e-01 1.823272705078125000e+00
4.351146204598967393e-01 1.687057495117187500e+00
4.361983430511675031e-01 1.167221069335937500e+00
4.372820656424383223e-01 1.342475891113281250e+00
4.383657882337091971e-01 1.850463867187500000e+00
4.394495108249800719e-01 1.863723754882812500e+00
4.405332334162508356e-01 1.578041076660156250e+00
4.416169560075216549e-01 1.320167541503906250e+00
4.427006785987925297e-01 1.595771789550781250e+00
4.437844011900632935e-01 1.430389404296875000e+00
4.448681237813341127e-01 1.345870971679687500e+00
4.459518463726049875e-01 1.331878662109375000e+00
4.470355689638758623e-01 1.694679260253906250e+00
4.481192915551466260e-01 2.085258483886718750e+00
4.492030141464174453e-01 1.818496704101562500e+00
4.502867367376883201e-01 1.625808715820312500e+00
4.513704593289590838e-01 1.167015075683593750e+00
