# q (1/angstrom), Intensity (arb)
2.004886800316986462e-02 2.855447218834530076e+02
2.113259059444069429e-02 3.476311093973161519e+02
2.221631318571152050e-02 3.849658938728783824e+02
2.330003577698234671e-02 4.004537137310881008e+02
2.438375836825317292e-02 4.110146833263340795e+02
2.546748095952399912e-02 4.183189250144841367e+02
2.655120355079482186e-02 4.311779693388502892e+02
2.763492614206565501e-02 4.353752935377166864e+02
2.871864873333647775e-02 4.369437407079601599e+02
2.980237132460730742e-02 4.364382884117504204e+02
3.088609391587813363e-02 4.336334342482304578e+02
3.196981650714896678e-02 4.285179205409716019e+02
3.305353909841978605e-02 4.247922874951894983e+02
3.413726168969061919e-02 4.188659544187735264e+02
3.522098428096144540e-02 4.137643126834670397e+02
3.630470687223227161e-02 4.117008974625568953e+02
3.738842946350309782e-02 4.060439236622675594e+02
3.847215205477392402e-02 4.028558705384860446e+02
3.955587464604475717e-02 3.995970513180089370e+02
4.063959723731558338e-02 3.977366006509495264e+02
4.172331982858640959e-02 3.938042002277949223e+02
4.280704241985723579e-02 3.874973482819634683e+02
4.389076501112806894e-02 3.846691981171941279e+02
4.497448760239888821e-02 3.800319013648733630e+02
4.605821019366971442e-02 3.733888100665379284e+02
4.714193278494054756e-02 3.679283533008032805e+02
4.822565537621137377e-02 3.640768871110379905e+02
4.930937796748219998e-02 3.604184768537192554e+02
5.039310055875302619e-02 3.541767174244309331e+02
5.147682315002385933e-02 3.486875258428699453e+02
5.256054574129467860e-02 3.436872256541792581e+02
5.364426833256550481e-02 3.382284854297096217e+02
5.472799092383633796e-02 3.342417542683425040e+02
5.581171351510716416e-02 3.311846300543244297e+02
5.689543610637798343e-02 3.244720923700220965e+02
5.797915869764881658e-02 3.158002069713433002e+02
5.906288128891964972e-02 3.091309711435683312e+02
6.014660388019047593e-02 3.047080803705188146e+02
6.123032647146129520e-02 2.971307912523200798e+02
6.231404906273212835e-02 2.938212393917913232e+02
6.339777165400295456e-02 2.894170338518471794e+02
6.448149424527377382e-02 2.813601910378517346e+02
6.556521683654460697e-02 2.759797608590450295e+02
6.664893942781544012e-02 2.717346290372471458e+02
6.773266201908627326e-02 2.660415040211152018e+02
6.881638461035709253e-02 2.623498522390030985e+02
6.990010720162791180e-02 2.559361394086159294e+02
7.098382979289874495e-02 2.498165350462358276e+02
7.206755238416956422e-02 2.464548374214091098e+02
7.315127497544039736e-02 2.379913732116299343e+02
7.423499756671123051e-02 2.316520142280203061e+02
7.531872015798206366e-02 2.281477662634885633e+02
7.640244274925288293e-02 2.233174401098567614e+02
7.748616534052371607e-02 2.178380796729878170e+02
7.856988793179453534e-02 2.125058727124304028e+02
7.965361052306535461e-02 2.072463761974331931e+02
8.073733311433618776e-02 2.028888897299619316e+02
8.182105570560702090e-02 1.976844858484958820e+02
8.290477829687785405e-02 1.905906450113999142e+02
8.398850088814867332e-02 1.851837917504336986e+02
8.507222347941950646e-02 1.794671234009989007e+02
8.615594607069032573e-02 1.752546561960712665e+02
8.723966866196115888e-02 1.730017011315460138e+02
8.832339125323197815e-02 1.685732498629451470e+02
8.940711384450281130e-02 1.616198837233658026e+02
9.049083643577364444e-02 1.576486463238487374e+02
9.157455902704446371e-02 1.541859815740760666e+02
9.265828161831529686e-02 1.485848124138775859e+02
9.374200420958611613e-02 1.427769591617459071e+02
9.482572680085694927e-02 1.382844853589401453e+02
9.590944939212776854e-02 1.345861037934173225e+02
9.699317198339860169e-02 1.308531453976653154e+02
9.807689457466943483e-02 1.267026213521598947e+02
9.916061716594025410e-02 1.226079211129659825e+02
1.002443397572110872e-01 1.179105646998353905e+02
1.013280623484819065e-01 1.141255004838897946e+02
1.024117849397527397e-01 1.097589919341768905e+02
1.034955075310235728e-01 1.053084302912722308e+02
1.045792301222943782e-01 1.020016378511650146e+02
1.056629527135652113e-01 9.829207399757962094e+01
1.067466753048360445e-01 9.579894735962676577e+01
1.078303978961068776e-01 9.120715288633036266e+01
1.089141204873776969e-01 8.771279124014523632e+01
1.099978430786485301e-01 8.441780601748237700e+01
1.110815656699193632e-01 8.177143745341075487e+01
1.121652882611901964e-01 7.935569618958754745e+01
1.132490108524610017e-01 7.537800359853517307e+01
1.143327334437318349e-01 7.265406832946092663e+01
1.154164560350026680e-01 7.093482826782769735e+01
1.165001786262734873e-01 6.690298719827711693e+01
1.175839012175443204e-01 6.196527135709780509e+01
1.186676238088151536e-01 5.998008965007934989e+01
1.197513464000859867e-01 5.878183641686982241e+01
1.208350689913567921e-01 5.501149178118879490e+01
1.219187915826276253e-01 5.258370494136590878e+01
1.230025141738984584e-01 4.994327771145879069e+01
1.240862367651692777e-01 4.747712558982510700e+01
1.251699593564401247e-01 4.521292337594738342e+01
1.262536819477109440e-01 4.257369962252846562e+01
1.273374045389817633e-01 4.161986746867108877e+01
1.284211271302525825e-01 3.938297254283014581e+01
1.295048497215234018e-01 3.736230974157072637e+01
1.305885723127942488e-01 3.665646319335095882e+01
1.316722949040650681e-01 3.508084500419627716e+01
1.327560174953359151e-01 3.270226567111865279e+01
1.338397400866067344e-01 3.019114084425748956e+01
1.349234626778775537e-01 2.937525448003324868e+01
1.360071852691483729e-01 2.782613429925638115e+01
1.370909078604191922e-01 2.652731356332412815e+01
1.381746304516900392e-01 2.474750903592132545e+01
1.392583530429608585e-01 2.294648091868839401e+01
1.403420756342317055e-01 2.209184527262937081e+01
1.414257982255025248e-01 2.101883513059993902e+01
1.425095208167733440e-01 1.924803352278175339e+01
1.435932434080441633e-01 1.788736609925484800e+01
1.446769659993149826e-01 1.681498443418527700e+01
1.457606885905858296e-01 1.591594253513136437e+01
1.468444111818566489e-01 1.482024906752459970e+01
1.479281337731274959e-01 1.473838179077483801e+01
1.490118563643983152e-01 1.441475226350218009e+01
1.500955789556691622e-01 1.374979213803365496e+01
1.511793015469399537e-01 1.343913285506704369e+01
1.522630241382108007e-01 1.153879817625247028e+01
1.533467467294816200e-01 1.099574237143872324e+01
1.544304693207524393e-01 1.056939481159864158e+01
1.555141919120232863e-01 9.368812371666024319e+00
1.565979145032941056e-01 8.599353312928457171e+00
1.576816370945649526e-01 9.069413456821877162e+00
1.587653596858357441e-01 8.652467287183895905e+00
1.598490822771065911e-01 7.659936815153400858e+00
1.609328048683774104e-01 7.687270465668575525e+00
1.620165274596482297e-01 7.716968203638487012e+00
1.631002500509190767e-01 6.625551561680111945e+00
1.641839726421898960e-01 5.813682706321060323e+00
1.652676952334607430e-01 5.396918226013639242e+00
1.663514178247315345e-01 4.764276583307577084e+00
1.674351404160023815e-01 5.471429412394712699e+00
1.685188630072732008e-01 5.330984080682043214e+00
1.696025855985440201e-01 5.491916905679261163e+00
1.706863081898148671e-01 5.257675092034673980e+00
1.717700307810856863e-01 5.382383139197401078e+00
1.728537533723565334e-01 6.198579269491347077e+00
1.739374759636273526e-01 5.719060373184476020e+00
1.750211985548981719e-01 4.952561829073317767e+00
1.761049211461689912e-01 4.544429099371996017e+00
1.771886437374398104e-01 4.116127267043964366e+00
1.782723663287106575e-01 4.487071158932110393e+00
1.793560889199814767e-01 3.993806262068318347e+00
1.804398115112523238e-01 3.815097311167420457e+00
1.815235341025231430e-01 3.504406213951654081e+00
1.826072566937939623e-01 3.475729265220394382e+00
1.836909792850647816e-01 3.524538088622307441e+00
1.847747018763356008e-01 2.614219883967024316e+00
1.858584244676064479e-01 2.473746474829567887e+00
1.869421470588772671e-01 3.663242373537627827e+00
1.880258696501481142e-01 4.195986596111623612e+00
1.891095922414189334e-01 3.956691084907362210e+00
1.901933148326897527e-01 4.314523383728698036e+00
1.912770374239605720e-01 4.611063814153226303e+00
1.923607600152313912e-01 3.896906324995057957e+00
1.934444826065022383e-01 4.042251270890830028e+00
1.945282051977730575e-01 3.603475907511352716e+00
1.956119277890439045e-01 3.120387961568638957e+00
1.966956503803147238e-01 3.049862173331433723e+00
1.977793729715855431e-01 3.749449958976015296e+00
1.988630955628563624e-01 3.819094009142844470e+00
1.999468181541271816e-01 3.576758165492805119e+00
2.010305407453980286e-01 3.953158665330562371e+00
2.021142633366688757e-01 3.859271143924075886e+00
2.031979859279396949e-01 3.822167147688674049e+00
2.042817085192105420e-01 4.333950450096722307e+00
2.053654311104813335e-01 4.461575489820972962e+00
2.064491537017522083e-01 4.436232192317930867e+00
2.075328762930229998e-01 4.193702273610455222e+00
2.086165988842938190e-01 4.620009692642696564e+00
2.097003214755646661e-01 5.019165311690329645e+00
2.107840440668354853e-01 4.471293725612184744e+00
2.118677666581063324e-01 4.703398405853477016e+00
2.129514892493771239e-01 5.094639167229416898e+00
2.140352118406479986e-01 4.369760326217317470e+00
2.151189344319187902e-01 3.596526967928923568e+00
2.162026570231896372e-01 2.966905334391412907e+00
2.172863796144604565e-01 2.588867240835810435e+00
2.183701022057312757e-01 3.427814095470807843e+00
2.194538247970021227e-01 4.572465788308193169e+00
2.205375473882729143e-01 4.589927929717191546e+00
2.216212699795437890e-01 5.549770264244017426e+00
2.227049925708145806e-01 5.048407945987918310e+00
2.237887151620854276e-01 4.328681403964992569e+00
2.248724377533562468e-01 4.509239557763862649e+00
2.259561603446270661e-01 4.858695567193279885e+00
2.270398829358979131e-01 4.744058485182620188e+00
2.281236055271687047e-01 4.372050876878432746e+00
2.292073281184395794e-01 4.667191352608625721e+00
2.302910507097103709e-01 4.884585712068087560e+00
2.313747733009812180e-01 4.881241924462642601e+00
2.324584958922520372e-01 4.747950710574087907e+00
2.335422184835228565e-01 5.456740309013696333e+00
2.346259410747937035e-01 5.386428034927973840e+00
2.357096636660644950e-01 4.911311264544394817e+00
2.367933862573353698e-01 4.031928785768968737e+00
2.378771088486061613e-01 3.766509070850645458e+00
2.389608314398770084e-01 3.579380654765287773e+00
2.400445540311478276e-01 4.692942101985977388e+00
2.411282766224186469e-01 4.335340726464778527e+00
2.422119992136894939e-01 3.292252880877271082e+00
2.432957218049602854e-01 3.919911658236742369e+00
2.443794443962311602e-01 4.650092737255022257e+00
2.454631669875019517e-01 3.728544052443169221e+00
2.465468895787727988e-01 3.636836413665321288e+00
2.476306121700436180e-01 3.723658069686280214e+00
2.487143347613144373e-01 3.932400024514521419e+00
2.497980573525852843e-01 4.390688779196693758e+00
2.508817799438560758e-01 4.081320660981532455e+00
2.519655025351269506e-01 3.165285148229770584e+00
2.530492251263977699e-01 3.825456390094274184e+00
2.541329477176685891e-01 3.495391443022356270e+00
2.552166703089394084e-01 2.873417121584083134e+00
2.563003929002102277e-01 3.111889492337496677e+00
2.573841154914810470e-01 2.981060853372838437e+00
2.584678380827518662e-01 3.417458650723375513e+00
2.595515606740227410e-01 3.810663235645620261e+00
2.606352832652935603e-01 2.766044811855778107e+00
2.617190058565643795e-01 2.722304475948448044e+00
2.628027284478351988e-01 4.225171346071022072e+00
2.638864510391060181e-01 3.767085140848138280e+00
2.649701736303768373e-01 2.911027496195970343e+00
2.660538962216476566e-01 2.908326867256306514e+00
2.671376188129185314e-01 3.232395605345402601e+00
2.682213414041893507e-01 2.734592568823018155e+00
2.693050639954601699e-01 2.094220574471705731e+00
2.703887865867309892e-01 2.691913643279036705e+00
2.714725091780018085e-01 2.937647111089972896e+00
2.725562317692726277e-01 2.601939347505378919e+00
2.736399543605434470e-01 2.716465375253250158e+00
2.747236769518143218e-01 2.905025158309854305e+00
2.758073995430851411e-01 2.862648505102555418e+00
2.768911221343559603e-01 3.129685736572270116e+00
2.779748447256267796e-01 2.877308420273863021e+00
2.790585673168975989e-01 2.548297486317949279e+00
2.801422899081684181e-01 2.551295431945419523e+00
2.812260124994392374e-01 2.869446011676188846e+00
2.823097350907101122e-01 3.011022780744099236e+00
2.833934576819809315e-01 2.265055477896623870e+00
2.844771802732517507e-01 2.819236419730117404e+00
2.855609028645225700e-01 2.831047142297194341e+00
2.866446254557933893e-01 2.716339888341622100e+00
2.877283480470642085e-01 2.453075381532812571e+00
2.888120706383350278e-01 2.198410210349891258e+00
2.898957932296059026e-01 2.471019772223172595e+00
2.909795158208767218e-01 2.424364543478873202e+00
2.920632384121475411e-01 2.291631881775288093e+00
2.931469610034183604e-01 2.172567944400981332e+00
2.942306835946891796e-01 2.454919232540987650e+00
2.953144061859599989e-01 2.630777410826681262e+00
2.963981287772308182e-01 1.997248974857086523e+00
2.974818513685016930e-01 1.563755607392323554e+00
2.985655739597725122e-01 1.538561381194568867e+00
2.996492965510433315e-01 2.286610661012844048e+00
3.007330191423141508e-01 2.012150777908459531e+00
3.018167417335849700e-01 2.025845795217549039e+00
3.029004643248558448e-01 1.527702189259201759e+00
3.039841869161266086e-01 1.988789880286645939e+00
3.050679095073974834e-01 1.735336274717525384e+00
3.061516320986683026e-01 1.421653666537679328e+00
3.072353546899391219e-01 1.452702358715953324e+00
3.083190772812099412e-01 1.981899178533325312e+00
3.094027998724807604e-01 1.977428776453763248e+00
3.104865224637516352e-01 1.517602643545387764e+00
3.115702450550223990e-01 1.398685010805195361e+00
3.126539676462932738e-01 1.340798109176034814e+00
3.137376902375640930e-01 1.716192364707637807e+00
3.148214128288349123e-01 1.822202951846009000e+00
3.159051354201057316e-01 1.896672213311035193e+00
3.169888580113765508e-01 1.968407838304727875e+00
3.180725806026474256e-01 1.934083863095992228e+00
3.191563031939181894e-01 2.035753080441708107e+00
3.202400257851890641e-01 2.138716011531485606e+00
3.213237483764598834e-01 2.070333747846319739e+00
3.224074709677307027e-01 2.147015764090767220e+00
3.234911935590015220e-01 2.075024623740318930e+00
3.245749161502723412e-01 1.607746906972067791e+00
3.256586387415432160e-01 1.185152889440999502e+00
3.267423613328139798e-01 7.083025610158841801e-01
3.278260839240848545e-01 6.863222786263634134e-01
3.289098065153556738e-01 1.110236086398828093e+00
3.299935291066264931e-01 9.180341282641535372e-01
3.310772516978973123e-01 1.025585379178721723e+00
3.321609742891681316e-01 9.675169068794247096e-01
3.332446968804390064e-01 1.070054626107065587e+00
3.343284194717097701e-01 2.027843579437103472e+00
3.354121420629806449e-01 2.061984935698816912e+00
3.364958646542514642e-01 1.817609161130789630e+00
3.375795872455222835e-01 1.305318706752629510e+00
3.386633098367931027e-01 1.811090461262296003e+00
3.397470324280639220e-01 1.288143616699159111e+00
3.408307550193347968e-01 1.092854195184870036e+00
3.419144776106055605e-01 1.143126735101446911e+00
3.429982002018764353e-01 1.068126765504885611e+00
3.440819227931472546e-01 1.195205593920022125e+00
3.451656453844180739e-01 1.680418183207066818e+00
3.462493679756888931e-01 1.622227600058508301e+00
3.473330905669597679e-01 8.840554391989456917e-01
3.484168131582305872e-01 1.380710251870652883e+00
3.495005357495013509e-01 1.527486740851799141e+00
3.505842583407722257e-01 1.002559629544904851e+00
3.516679809320430450e-01 1.198288209153659523e+00
3.527517035233138643e-01 1.891828042221959549e+00
3.538354261145846835e-01 1.907821733765388217e+00
3.549191487058555583e-01 1.648257440319213174e+00
3.560028712971263776e-01 1.332362931550079566e+00
3.570865938883971413e-01 1.172978852246657766e+00
3.581703164796680161e-01 1.090847110816028476e+00
3.592540390709388354e-01 1.394865192250165364e+00
3.603377616622096546e-01 2.143987766361590275e+00
3.614214842534804739e-01 2.071519078975711636e+00
3.625052068447513487e-01 1.331231657117015743e+00
3.635889294360221680e-01 2.035735786403833458e+00
3.646726520272929317e-01 2.126824786067984974e+00
3.657563746185638065e-01 1.601900928511696520e+00
3.668400972098346258e-01 1.630876837624740006e+00
3.679238198011054450e-01 2.080803444012801151e+00
3.690075423923762643e-01 1.348337820311101609e+00
3.700912649836471391e-01 1.086248610959032135e+00
3.711749875749179584e-01 1.181557654619368236e+00
3.722587101661887221e-01 1.435670513720438635e+00
3.733424327574595969e-01 1.733008577114304671e+00
3.744261553487304162e-01 1.716779418359124065e+00
3.755098779400012354e-01 1.643585444012416019e+00
3.765936005312720547e-01 1.832726920840556772e+00
3.776773231225429295e-01 1.587953744465153250e+00
3.787610457138137487e-01 1.498077714059093068e+00
3.798447683050845125e-01 1.085078972095743666e+00
3.809284908963553873e-01 1.376028864590097101e+00
3.820122134876262066e-01 1.790555705707220113e+00
3.830959360788970258e-01 1.595376302420191905e+00
3.841796586701678451e-01 1.662561257299898898e+00
3.852633812614387199e-01 1.264430491194445949e+00
3.863471038527095391e-01 1.349539284097033942e+00
3.874308264439803029e-01 1.420383910257328353e+00
3.885145490352511777e-01 1.238972600058204421e+00
3.895982716265219969e-01 1.225947045355766818e+00
3.906819942177928162e-01 1.372571430186525276e+00
3.917657168090636355e-01 1.427147869441768080e+00
3.928494394003345103e-01 1.499935453288230747e+00
3.939331619916053295e-01 1.413880333877656881e+00
3.950168845828760933e-01 1.615838086426805376e+00
3.961006071741469681e-01 1.186653641862775999e+00
3.971843297654177873e-01 8.064756224136289120e-01
3.982680523566886066e-01 8.443933398903311627e-01
3.993517749479594259e-01 8.476437451602265583e-01
4.004354975392302451e-01 9.489490627386629740e-01
4.015192201305010089e-01 1.157745027928484660e+00
4.026029427217718837e-01 1.163577774749668947e+00
4.036866653130427030e-01 8.140385479344303121e-01
4.047703879043135777e-01 1.528457971532219517e+00
4.058541104955843415e-01 1.787557229980222928e+00
4.069378330868551608e-01 1.669114684925304459e+00
4.080215556781260355e-01 1.469112679623947315e+00
4.091052782693967993e-01 1.589448986761070159e+00
4.101890008606676741e-01 1.380018616501331508e+00
4.112727234519384933e-01 1.247695263347992523e+00
4.123564460432093681e-01 1.079510219698235574e+00
4.134401686344801319e-01 8.108477138255807404e-01
4.145238912257509512e-01 9.562053752491266323e-01
4.156076138170218259e-01 1.162013073071122449e+00
4.166913364082925897e-01 1.355688333889389696e+00
4.177750589995634645e-01 1.169093443799454235e+00
4.188587815908342837e-01 5.852956417197816563e-01
4.199425041821051585e-01 7.184309173130714044e-01
4.210262267733759223e-01 7.611916186468761225e-01
4.221099493646467415e-01 6.529708423299638298e-01
4.231936719559176163e-01 1.150182393306337758e+00
4.242773945471884911e-01 9.088057046211304169e-01
4.253611171384592549e-01 1.029387820616065596e+00
4.264448397297300741e-01 1.622657931554485344e+00
4.275285623210009489e-01 1.530052348022863384e+00
4.286122849122717127e-01 1.344142379118679287e+00
4.296960075035425319e-01 1.322053304727305090e+00
4.307797300948134067e-01 1.222568041977510234e+00
4.318634526860842815e-01 1.128181179672466783e+00
4.329471752773550453e-01 1.208552025561459686e+00
4.340308978686258645e-01 8.919752800362061862e-01
4.351146204598967393e-01 1.101302054406559705e+00
4.361983430511675031e-01 1.118432409884277945e+00
4.372820656424383223e-01 8.846625103569749626e-01
4.383657882337091971e-01 1.234543099395139620e+00
4.394495108249800719e-01 1.317840277149741723e+00
4.405332334162508356e-01 9.451440653391927071e-01
4.416169560075216549e-01 1.156236768855379182e+00
4.427006785987925297e-01 1.100087081741193629e+00
4.437844011900632935e-01 9.627059123192793777e-01
4.448681237813341127e-01 7.766231784243871061e-01
4.459518463726049875e-01 9.150683006361646221e-01
4.470355689638758623e-01 8.038657817308205722e-01
4.481192915551466260e-01 6.128916666721551110e-01
4.492030141464174453e-01 5.627207116999670689e-01
4.502867367376883201e-01 6.008907280084514468e-01
4.513704593289590838e-01 5.185672595830084219e-01
