# q (1/angstrom), Intensity (arb)
2.004886800316986462e-02 3.742466667577448334e+02
2.113259059444069429e-02 4.457518170463617366e+02
2.221631318571152050e-02 4.795517455773764937e+02
2.330003577698234671e-02 4.980823988968044205e+02
2.438375836825317292e-02 5.078215158445418638e+02
2.546748095952399912e-02 5.161176838701366023e+02
2.655120355079482186e-02 5.311718979928209592e+02
2.763492614206565501e-02 5.327039542301150732e+02
2.871864873333647775e-02 5.219435388703653871e+02
2.980237132460730742e-02 5.134723850465391024e+02
3.088609391587813363e-02 5.063270829239961586e+02
3.196981650714896678e-02 4.977196215278553382e+02
3.305353909841978605e-02 4.918087303181944208e+02
3.413726168969061919e-02 4.846413352218357886e+02
3.522098428096144540e-02 4.762984620910740432e+02
3.630470687223227161e-02 4.689389950420369360e+02
3.738842946350309782e-02 4.637447032414040677e+02
3.847215205477392402e-02 4.546955023709674606e+02
3.955587464604475717e-02 4.429413260252661075e+02
4.063959723731558338e-02 4.373568813086673686e+02
4.172331982858640959e-02 4.278496061384890368e+02
4.280704241985723579e-02 4.234245046931665115e+02
4.389076501112806894e-02 4.197636397198249369e+02
4.497448760239888821e-02 4.127550723628471019e+02
4.605821019366971442e-02 4.051632982182924820e+02
4.714193278494054756e-02 3.984311235112731993e+02
4.822565537621137377e-02 3.912858466991355044e+02
4.930937796748219998e-02 3.862945250057979365e+02
5.039310055875302619e-02 3.825733758223419727e+02
5.147682315002385933e-02 3.732690628938219106e+02
5.256054574129467860e-02 3.638808757619327139e+02
5.364426833256550481e-02 3.592749997035513161e+02
5.472799092383633796e-02 3.526097255780470050e+02
5.581171351510716416e-02 3.470797256608244652e+02
5.689543610637798343e-02 3.420587813984703871e+02
5.797915869764881658e-02 3.353847336218802866e+02
5.906288128891964972e-02 3.256570565650915228e+02
6.014660388019047593e-02 3.205396891931464438e+02
6.123032647146129520e-02 3.166229478387951985e+02
6.231404906273212835e-02 3.093472006888201804e+02
6.339777165400295456e-02 3.018683464749616405e+02
6.448149424527377382e-02 2.949671581231043547e+02
6.556521683654460697e-02 2.906566891384865698e+02
6.664893942781544012e-02 2.876117622600673940e+02
6.773266201908627326e-02 2.830154642707556150e+02
6.881638461035709253e-02 2.786860321928528492e+02
6.990010720162791180e-02 2.740537222798566290e+02
7.098382979289874495e-02 2.684173023277651282e+02
7.206755238416956422e-02 2.634225522499325507e+02
7.315127497544039736e-02 2.568644614968589508e+02
7.423499756671123051e-02 2.543334579626224183e+02
7.531872015798206366e-02 2.517607808582427822e+02
7.640244274925288293e-02 2.455851468714581074e+02
7.748616534052371607e-02 2.417370541662683934e+02
7.856988793179453534e-02 2.382242266380291369e+02
7.965361052306535461e-02 2.342878439960613264e+02
8.073733311433618776e-02 2.281869322218912828e+02
8.182105570560702090e-02 2.221143469131256154e+02
8.290477829687785405e-02 2.172738520133991074e+02
8.398850088814867332e-02 2.135602365251313017e+02
8.507222347941950646e-02 2.068044332918754264e+02
8.615594607069032573e-02 2.015392210156306589e+02
8.723966866196115888e-02 1.940399645695663651e+02
8.832339125323197815e-02 1.862444408728749181e+02
8.940711384450281130e-02 1.810755323111392272e+02
9.049083643577364444e-02 1.752842789341839875e+02
9.157455902704446371e-02 1.680723596920755085e+02
9.265828161831529686e-02 1.621408947614171723e+02
9.374200420958611613e-02 1.573513577919048032e+02
9.482572680085694927e-02 1.519816220156341160e+02
9.590944939212776854e-02 1.449069288057759479e+02
9.699317198339860169e-02 1.392057403491698153e+02
9.807689457466943483e-02 1.327061686147985142e+02
9.916061716594025410e-02 1.282467832992544459e+02
1.002443397572110872e-01 1.224243784255535559e+02
1.013280623484819065e-01 1.163701130041063436e+02
1.024117849397527397e-01 1.088877132968133026e+02
1.034955075310235728e-01 1.022679225440361108e+02
1.045792301222943782e-01 1.004381138997895277e+02
1.056629527135652113e-01 9.755187420720821478e+01
1.067466753048360445e-01 9.268033916856478527e+01
1.078303978961068776e-01 8.868153067368902498e+01
1.089141204873776969e-01 8.464610505624415282e+01
1.099978430786485301e-01 8.029431510977238418e+01
1.110815656699193632e-01 7.642965753333476187e+01
1.121652882611901964e-01 7.258465613225047264e+01
1.132490108524610017e-01 6.861629519926501075e+01
1.143327334437318349e-01 6.334802425736978648e+01
1.154164560350026680e-01 6.063604953781509721e+01
1.165001786262734873e-01 5.899924374251457948e+01
1.175839012175443204e-01 5.616563432243069087e+01
1.186676238088151536e-01 5.345889820161397665e+01
1.197513464000859867e-01 5.055551250880321845e+01
1.208350689913567921e-01 4.826799219283634557e+01
1.219187915826276253e-01 4.522545400051293996e+01
1.230025141738984584e-01 4.235781519753675184e+01
1.240862367651692777e-01 4.187447546008186805e+01
1.251699593564401247e-01 3.851973822109553680e+01
1.262536819477109440e-01 3.648686218965386274e+01
1.273374045389817633e-01 3.266235176229366743e+01
1.284211271302525825e-01 3.016552885569956288e+01
1.295048497215234018e-01 2.961562200644613085e+01
1.305885723127942488e-01 2.872907590113848642e+01
1.316722949040650681e-01 2.751174241739732906e+01
1.327560174953359151e-01 2.416763497578116926e+01
1.338397400866067344e-01 2.176118096222546683e+01
1.349234626778775537e-01 2.039238552054149523e+01
1.360071852691483729e-01 1.947912078411033576e+01
1.370909078604191922e-01 1.863313520323100647e+01
1.381746304516900392e-01 1.672841745969267890e+01
1.392583530429608585e-01 1.552314381455093439e+01
1.403420756342317055e-01 1.327154384571647938e+01
1.414257982255025248e-01 1.330942086837296756e+01
1.425095208167733440e-01 1.193323017553578325e+01
1.435932434080441633e-01 1.054458403915518261e+01
1.446769659993149826e-01 1.038281661483679841e+01
1.457606885905858296e-01 9.185879552485687327e+00
1.468444111818566489e-01 9.166390398377529891e+00
1.479281337731274959e-01 8.967708717535145979e+00
1.490118563643983152e-01 8.634377515261832059e+00
1.500955789556691622e-01 7.590771242827742071e+00
1.511793015469399537e-01 6.897247268136510456e+00
1.522630241382108007e-01 6.774969363736829564e+00
1.533467467294816200e-01 6.268148564411461621e+00
1.544304693207524393e-01 5.688807466342467478e+00
1.555141919120232863e-01 4.961489161664928815e+00
1.565979145032941056e-01 3.696684700965136017e+00
1.576816370945649526e-01 4.199932482652570798e+00
1.587653596858357441e-01 4.642977675640764801e+00
1.598490822771065911e-01 3.609222662976719675e+00
1.609328048683774104e-01 3.693674148253080602e+00
1.620165274596482297e-01 3.877579283657382803e+00
1.631002500509190767e-01 3.049253586130873828e+00
1.641839726421898960e-01 2.588330497699814714e+00
1.652676952334607430e-01 2.214741677723822022e+00
1.663514178247315345e-01 1.728777523695157470e+00
1.674351404160023815e-01 2.300928308556677848e+00
1.685188630072732008e-01 2.884624895253097066e+00
1.696025855985440201e-01 2.714600828139737132e+00
1.706863081898148671e-01 2.304199674705415646e+00
1.717700307810856863e-01 2.466747630915932632e+00
1.728537533723565334e-01 2.858259834155177259e+00
1.739374759636273526e-01 2.903288673177002011e+00
1.750211985548981719e-01 2.249570000028910499e+00
1.761049211461689912e-01 2.716758837034575436e+00
1.771886437374398104e-01 2.747668009733928329e+00
1.782723663287106575e-01 3.105795330853823089e+00
1.793560889199814767e-01 2.728888600090215277e+00
1.804398115112523238e-01 2.473944723661929856e+00
1.815235341025231430e-01 2.335698347344475678e+00
1.826072566937939623e-01 2.647847541850779862e+00
1.836909792850647816e-01 3.261233231424739643e+00
1.847747018763356008e-01 3.187382667727064245e+00
1.858584244676064479e-01 2.640135084379181762e+00
1.869421470588772671e-01 2.573459383794016730e+00
1.880258696501481142e-01 2.614762692997061322e+00
1.891095922414189334e-01 3.306697116820458859e+00
1.901933148326897527e-01 3.086282695050471148e+00
1.912770374239605720e-01 3.148697634260997802e+00
1.923607600152313912e-01 4.258232029064913604e+00
1.934444826065022383e-01 4.129005833175085627e+00
1.945282051977730575e-01 4.122485289098619887e+00
1.956119277890439045e-01 5.065463536016522994e+00
1.966956503803147238e-01 4.881571673556862834e+00
1.977793729715855431e-01 4.403760932636942016e+00
1.988630955628563624e-01 4.754304381852307415e+00
1.999468181541271816e-01 4.680957490113115682e+00
2.010305407453980286e-01 4.568646394697736923e+00
2.021142633366688757e-01 4.551626107083365014e+00
2.031979859279396949e-01 3.776686976301562026e+00
2.042817085192105420e-01 3.386540769500186343e+00
2.053654311104813335e-01 3.639284813237509297e+00
2.064491537017522083e-01 4.420185382642586092e+00
2.075328762930229998e-01 4.837163032560738429e+00
2.086165988842938190e-01 4.931401691594942349e+00
2.097003214755646661e-01 4.800147754495554864e+00
2.107840440668354853e-01 4.475443299775093919e+00
2.118677666581063324e-01 4.260707431899191988e+00
2.129514892493771239e-01 3.903823736988982773e+00
2.140352118406479986e-01 3.834103322223199939e+00
2.151189344319187902e-01 4.849219031072266262e+00
2.162026570231896372e-01 3.963889347694731669e+00
2.172863796144604565e-01 3.812691393840708542e+00
2.183701022057312757e-01 4.064761534160368228e+00
2.194538247970021227e-01 4.393859152091692977e+00
2.205375473882729143e-01 3.840013100558763881e+00
2.216212699795437890e-01 3.694067363270477244e+00
2.227049925708145806e-01 4.260358932616782113e+00
2.237887151620854276e-01 5.333711789828896599e+00
2.248724377533562468e-01 4.077903153711787354e+00
2.259561603446270661e-01 3.469245490319224245e+00
2.270398829358979131e-01 4.309217402117525353e+00
2.281236055271687047e-01 4.742627501058962025e+00
2.292073281184395794e-01 4.511063562511253622e+00
2.302910507097103709e-01 4.741951851817987063e+00
2.313747733009812180e-01 4.541235387340833540e+00
2.324584958922520372e-01 3.863835756729997684e+00
2.335422184835228565e-01 3.651898019704844955e+00
2.346259410747937035e-01 3.174446755596562753e+00
2.357096636660644950e-01 2.803698996309208269e+00
2.367933862573353698e-01 2.656886248822416974e+00
2.378771088486061613e-01 2.640789750709558348e+00
2.389608314398770084e-01 3.259156204477676511e+00
2.400445540311478276e-01 3.090961520477094382e+00
2.411282766224186469e-01 3.373215418605241211e+00
2.422119992136894939e-01 3.075627863369845727e+00
2.432957218049602854e-01 2.969024496666406776e+00
2.443794443962311602e-01 3.015450215356992203e+00
2.454631669875019517e-01 3.102893362097603358e+00
2.465468895787727988e-01 2.728779204157376626e+00
2.476306121700436180e-01 2.991339463471064164e+00
2.487143347613144373e-01 3.158569491591805445e+00
2.497980573525852843e-01 2.863367384355399281e+00
2.508817799438560758e-01 2.042483786855228800e+00
2.519655025351269506e-01 2.409410709628048153e+00
2.530492251263977699e-01 2.760947489745205985e+00
2.541329477176685891e-01 1.292356151973024225e+00
2.552166703089394084e-01 1.456896156970231004e+00
2.563003929002102277e-01 2.550693326400846672e+00
2.573841154914810470e-01 2.408016374794442527e+00
2.584678380827518662e-01 2.409771137632560567e+00
2.595515606740227410e-01 1.797580328470758104e+00
2.606352832652935603e-01 1.053252784717983559e+00
2.617190058565643795e-01 1.808491034189273705e+00
2.628027284478351988e-01 2.135466275880844478e+00
2.638864510391060181e-01 2.204800670930950446e+00
2.649701736303768373e-01 2.055920715716524683e+00
2.660538962216476566e-01 5.732781789282910268e-01
2.671376188129185314e-01 1.140267834904989286e+00
2.682213414041893507e-01 1.658721063439628551e+00
2.693050639954601699e-01 9.480423994165789736e-01
2.703887865867309892e-01 8.387042201109125017e-01
2.714725091780018085e-01 1.165395401038693990e+00
2.725562317692726277e-01 1.524545520934225351e+00
2.736399543605434470e-01 1.652567679588230476e+00
2.747236769518143218e-01 1.422620599399181174e+00
2.758073995430851411e-01 8.199244241715462067e-01
2.768911221343559603e-01 8.919136056389618261e-01
2.779748447256267796e-01 8.499974650128194753e-01
2.790585673168975989e-01 1.014299548662307870e+00
2.801422899081684181e-01 7.583795770101460221e-01
2.812260124994392374e-01 1.015850386864741495e+00
2.823097350907101122e-01 1.158760499469963179e+00
2.833934576819809315e-01 1.100331893607176426e+00
2.844771802732517507e-01 1.964281152370176642e+00
2.855609028645225700e-01 1.607997716821245149e+00
2.866446254557933893e-01 1.146914263719679639e+00
2.877283480470642085e-01 1.306088220305525738e+00
2.888120706383350278e-01 9.586828490575953765e-01
2.898957932296059026e-01 1.039839986412658845e+00
2.909795158208767218e-01 1.151145077749021084e+00
2.920632384121475411e-01 9.243861381077635997e-01
2.931469610034183604e-01 6.592381974238605835e-01
2.942306835946891796e-01 7.145344508977018450e-01
2.953144061859599989e-01 6.703647162964045947e-01
2.963981287772308182e-01 1.094550672129514624e+00
2.974818513685016930e-01 5.708077761435674802e-01
2.985655739597725122e-01 5.779828333565717458e-01
2.996492965510433315e-01 1.236883614294640665e+00
3.007330191423141508e-01 1.045693833934791428e+00
3.018167417335849700e-01 8.475830529989138995e-01
3.029004643248558448e-01 5.743852900360479907e-01
3.039841869161266086e-01 6.224000978435810794e-01
3.050679095073974834e-01 6.832351339769786591e-01
3.061516320986683026e-01 9.188281426258413376e-01
3.072353546899391219e-01 1.089976497966915758e+00
3.083190772812099412e-01 1.288317061628475813e+00
3.094027998724807604e-01 1.598263015700013057e+00
3.104865224637516352e-01 1.486961023617453748e+00
3.115702450550223990e-01 1.305372197874902440e+00
3.126539676462932738e-01 1.064883489314553344e+00
3.137376902375640930e-01 1.211934187937089291e+00
3.148214128288349123e-01 1.125557785406556377e+00
3.159051354201057316e-01 9.830738524863136263e-01
3.169888580113765508e-01 8.585432160669199675e-01
3.180725806026474256e-01 1.121762429388468263e+00
3.191563031939181894e-01 1.047015655713011029e+00
3.202400257851890641e-01 1.069526090387086015e+00
3.213237483764598834e-01 1.016262397921110505e+00
3.224074709677307027e-01 1.101602720283807457e+00
3.234911935590015220e-01 1.022332427744288452e+00
3.245749161502723412e-01 1.190360204889202578e+00
3.256586387415432160e-01 1.102852447633551947e+00
3.267423613328139798e-01 1.137012477647118658e+00
3.278260839240848545e-01 7.858988842842791200e-01
3.289098065153556738e-01 1.208412162668025758e+00
3.299935291066264931e-01 1.471861802371307704e+00
3.310772516978973123e-01 1.545957099093726583e+00
3.321609742891681316e-01 1.094201534524614772e+00
3.332446968804390064e-01 1.029519409424693777e+00
3.343284194717097701e-01 9.369947298638408029e-01
3.354121420629806449e-01 1.215424187537223588e+00
3.364958646542514642e-01 1.498005276083290482e+00
3.375795872455222835e-01 1.321206116082777271e+00
3.386633098367931027e-01 1.327710977728173702e+00
3.397470324280639220e-01 1.064776986850887397e+00
3.408307550193347968e-01 1.157414005094636877e+00
3.419144776106055605e-01 1.223947961366974369e+00
3.429982002018764353e-01 1.488745032344070296e+00
3.440819227931472546e-01 1.780464233914315741e+00
3.451656453844180739e-01 1.758711481724375858e+00
3.462493679756888931e-01 9.376159692730112738e-01
3.473330905669597679e-01 1.241056384380570421e+00
3.484168131582305872e-01 1.038195066133312139e+00
3.495005357495013509e-01 1.114828560897933585e+00
3.505842583407722257e-01 1.666439988588066967e+00
3.516679809320430450e-01 1.320755169898589543e+00
3.527517035233138643e-01 1.792522259364361048e+00
3.538354261145846835e-01 1.518672710641126855e+00
3.549191487058555583e-01 1.208776685928043548e+00
3.560028712971263776e-01 9.179979718870185934e-01
3.570865938883971413e-01 1.190625909195901500e+00
3.581703164796680161e-01 1.631455051222317820e+00
3.592540390709388354e-01 1.557164672766944591e+00
3.603377616622096546e-01 1.063539393120706222e+00
3.614214842534804739e-01 1.339495445934645090e+00
3.625052068447513487e-01 1.241947648863472864e+00
3.635889294360221680e-01 1.167394654587582181e+00
3.646726520272929317e-01 1.358208790612764005e+00
3.657563746185638065e-01 1.462197218980335833e+00
3.668400972098346258e-01 1.460726623864459839e+00
3.679238198011054450e-01 1.674096415464802590e+00
3.690075423923762643e-01 1.337593772163984340e+00
3.700912649836471391e-01 1.317734689899964451e+00
3.711749875749179584e-01 1.151520529978597551e+00
3.722587101661887221e-01 1.096905717601842412e+00
3.733424327574595969e-01 1.372641148546378531e+00
3.744261553487304162e-01 1.164814548211182910e+00
3.755098779400012354e-01 1.258173203058206013e+00
3.765936005312720547e-01 1.048896401290122071e+00
3.776773231225429295e-01 9.776435215447634164e-01
3.787610457138137487e-01 1.350108528317562673e+00
3.798447683050845125e-01 1.317343575494646757e+00
3.809284908963553873e-01 1.260334105102259628e+00
3.820122134876262066e-01 1.081190564536029797e+00
3.830959360788970258e-01 7.660411489372904725e-01
3.841796586701678451e-01 9.869675102225414776e-01
3.852633812614387199e-01 1.236065160233820848e+00
3.863471038527095391e-01 9.013761661997108376e-01
3.874308264439803029e-01 2.294665404396596387e-01
3.885145490352511777e-01 8.463028369640568371e-01
3.895982716265219969e-01 1.797293398620539051e+00
3.906819942177928162e-01 1.765748140280493317e+00
3.917657168090636355e-01 1.213885782105379008e+00
3.928494394003345103e-01 9.094496164153866857e-01
3.939331619916053295e-01 1.257311803984308085e+00
3.950168845828760933e-01 1.233091289055764150e+00
3.961006071741469681e-01 1.357665879579215584e+00
3.971843297654177873e-01 1.586138904858330534e+00
3.982680523566886066e-01 1.139131808551965719e+00
3.993517749479594259e-01 1.320383240969164262e+00
4.004354975392302451e-01 1.254836051786995199e+00
4.015192201305010089e-01 9.691306641106081088e-01
4.026029427217718837e-01 1.104672604211074827e+00
4.036866653130427030e-01 9.780439855376670266e-01
4.047703879043135777e-01 1.292082845602550378e+00
4.058541104955843415e-01 6.759646241686994017e-01
4.069378330868551608e-01 4.847024574665823593e-01
4.080215556781260355e-01 8.117290677557349454e-01
4.091052782693967993e-01 6.073283513167666570e-01
4.101890008606676741e-01 4.348196998060700480e-01
4.112727234519384933e-01 8.907072550692589630e-01
4.123564460432093681e-01 1.098438562808752295e+00
4.134401686344801319e-01 8.208729605679820907e-01
4.145238912257509512e-01 9.089419221768508805e-01
4.156076138170218259e-01 1.332051129566025338e+00
4.166913364082925897e-01 1.158252700107539113e+00
4.177750589995634645e-01 1.064974436494935617e+00
4.188587815908342837e-01 7.833251420566256229e-01
4.199425041821051585e-01 1.064414418147862307e+00
4.210262267733759223e-01 9.048601823513564568e-01
4.221099493646467415e-01 1.244149471904961501e+00
4.231936719559176163e-01 8.926310583416210420e-01
4.242773945471884911e-01 8.868826566532277411e-01
4.253611171384592549e-01 1.165879119618793425e+00
4.264448397297300741e-01 1.344619850917197823e+00
4.275285623210009489e-01 1.005702143373639501e+00
4.286122849122717127e-01 9.363565577022114894e-01
4.296960075035425319e-01 8.032174328172914102e-01
4.307797300948134067e-01 1.037529373771079122e+00
4.318634526860842815e-01 1.253328136084036259e+00
4.329471752773550453e-01 1.326858836937347519e+00
4.340308978686258645e-01 1.510189887150644950e+00
4.351146204598967393e-01 1.518191802849244709e+00
4.361983430511675031e-01 1.161501969018232217e+00
4.372820656424383223e-01 1.242357317122099403e+00
4.383657882337091971e-01 1.025355003491213779e+00
4.394495108249800719e-01 7.622291384591051155e-01
4.405332334162508356e-01 1.136588216664890183e+00
4.416169560075216549e-01 5.454630596119045549e-01
4.427006785987925297e-01 0.000000000000000000e+00
4.437844011900632935e-01 3.792194018060541794e-01
4.448681237813341127e-01 9.667974492026303324e-01
4.459518463726049875e-01 9.679448239381969188e-01
4.470355689638758623e-01 8.390358866710414532e-01
4.481192915551466260e-01 1.021806488893432174e+00
4.492030141464174453e-01 1.142731875681917586e+00
4.502867367376883201e-01 1.502583150943024748e+00
4.513704593289590838e-01 1.008906230222194722e+00
