# q (1/angstrom), Intensity (arb)
2.004886800316986462e-02 4.504881806340937942e+02
2.113259059444069429e-02 5.447889667240294784e+02
2.221631318571152050e-02 5.980632797847488291e+02
2.330003577698234671e-02 6.217703381452632811e+02
2.438375836825317292e-02 6.448540417366950805e+02
2.546748095952399912e-02 6.593165176896638968e+02
2.655120355079482186e-02 6.793564050311540541e+02
2.763492614206565501e-02 6.894648532289793366e+02
2.871864873333647775e-02 6.860745247311376716e+02
2.980237132460730742e-02 6.841147617407452799e+02
3.088609391587813363e-02 6.801953035303065462e+02
3.196981650714896678e-02 6.729500258942778146e+02
3.305353909841978605e-02 6.679368861754916225e+02
3.413726168969061919e-02 6.610214318687121704e+02
3.522098428096144540e-02 6.580381762686761249e+02
3.630470687223227161e-02 6.514533622147649794e+02
3.738842946350309782e-02 6.428981459061801615e+02
3.847215205477392402e-02 6.367337751018900462e+02
3.955587464604475717e-02 6.308488885763060807e+02
4.063959723731558338e-02 6.250322694283579494e+02
4.172331982858640959e-02 6.178041905230247721e+02
4.280704241985723579e-02 6.124248603224243652e+02
4.389076501112806894e-02 6.034739379619388728e+02
4.497448760239888821e-02 5.945932927702560846e+02
4.605821019366971442e-02 5.879361404694666362e+02
4.714193278494054756e-02 5.781377519778934584e+02
4.822565537621137377e-02 5.698198937617802358e+02
4.930937796748219998e-02 5.618182536516418395e+02
5.039310055875302619e-02 5.526419481678175316e+02
5.147682315002385933e-02 5.464329268802905517e+02
5.256054574129467860e-02 5.365317030161576213e+02
5.364426833256550481e-02 5.268238091799013318e+02
5.472799092383633796e-02 5.169896748138837665e+02
5.581171351510716416e-02 5.083794622161624375e+02
5.689543610637798343e-02 5.022764973952473611e+02
5.797915869764881658e-02 4.917805716045642157e+02
5.906288128891964972e-02 4.795706109880507029e+02
6.014660388019047593e-02 4.698423630004094775e+02
6.123032647146129520e-02 4.630575980840505963e+02
6.231404906273212835e-02 4.524681543083220845e+02
6.339777165400295456e-02 4.438549679022441410e+02
6.448149424527377382e-02 4.359838881915705997e+02
6.556521683654460697e-02 4.273104209958170259e+02
6.664893942781544012e-02 4.143574247715101819e+02
6.773266201908627326e-02 4.055046066293811577e+02
6.881638461035709253e-02 3.964715568313507674e+02
6.990010720162791180e-02 3.866998676574149840e+02
7.098382979289874495e-02 3.797666942824197349e+02
7.206755238416956422e-02 3.713632493501683030e+02
7.315127497544039736e-02 3.626885085649126950e+02
7.423499756671123051e-02 3.518776748859049235e+02
7.531872015798206366e-02 3.444234237234877014e+02
7.640244274925288293e-02 3.367617629875039711e+02
7.748616534052371607e-02 3.285701254560465827e+02
7.856988793179453534e-02 3.210746517295526701e+02
7.965361052306535461e-02 3.115672705093680293e+02
8.073733311433618776e-02 3.018434646510472135e+02
8.182105570560702090e-02 2.928568097488730473e+02
8.290477829687785405e-02 2.857016810614592259e+02
8.398850088814867332e-02 2.783405212625541481e+02
8.507222347941950646e-02 2.711081086639673003e+02
8.615594607069032573e-02 2.635501214454350247e+02
8.723966866196115888e-02 2.540460901783340546e+02
8.832339125323197815e-02 2.439796128978855450e+02
8.940711384450281130e-02 2.363729497007385874e+02
9.049083643577364444e-02 2.304634942147267225e+02
9.157455902704446371e-02 2.229294001726755425e+02
9.265828161831529686e-02 2.164830637282773012e+02
9.374200420958611613e-02 2.077754146060754579e+02
9.482572680085694927e-02 2.007710520703782890e+02
9.590944939212776854e-02 1.947648424135853134e+02
9.699317198339860169e-02 1.883681578252069073e+02
9.807689457466943483e-02 1.820172575924263754e+02
9.916061716594025410e-02 1.759772059483157989e+02
1.002443397572110872e-01 1.698992095472615915e+02
1.013280623484819065e-01 1.629265545807166689e+02
1.024117849397527397e-01 1.563186716782745691e+02
1.034955075310235728e-01 1.517721318705040119e+02
1.045792301222943782e-01 1.470254680386476878e+02
1.056629527135652113e-01 1.410731283012258075e+02
1.067466753048360445e-01 1.337751004712293081e+02
1.078303978961068776e-01 1.277700390300643676e+02
1.089141204873776969e-01 1.224563103974862202e+02
1.099978430786485301e-01 1.175465348876579696e+02
1.110815656699193632e-01 1.147149564632462102e+02
1.121652882611901964e-01 1.096607375862380707e+02
1.132490108524610017e-01 1.040302196743182890e+02
1.143327334437318349e-01 9.989129957208032806e+01
1.154164560350026680e-01 9.688538301847296452e+01
1.165001786262734873e-01 9.112851030679917130e+01
1.175839012175443204e-01 8.701572741188999771e+01
1.186676238088151536e-01 8.332450227479083082e+01
1.197513464000859867e-01 7.960828682141297463e+01
1.208350689913567921e-01 7.680379344833079358e+01
1.219187915826276253e-01 7.288551677343471624e+01
1.230025141738984584e-01 6.958528036722174193e+01
1.240862367651692777e-01 6.634047283576506970e+01
1.251699593564401247e-01 6.340079989820682727e+01
1.262536819477109440e-01 6.094603264725679992e+01
1.273374045389817633e-01 5.735835216845310924e+01
1.284211271302525825e-01 5.388488034719262032e+01
1.295048497215234018e-01 5.219482103967195030e+01
1.305885723127942488e-01 4.842919347021634735e+01
1.316722949040650681e-01 4.573664701259005483e+01
1.327560174953359151e-01 4.295311209972845745e+01
1.338397400866067344e-01 4.134402689965682498e+01
1.349234626778775537e-01 3.877728421570370188e+01
1.360071852691483729e-01 3.660416718971120531e+01
1.370909078604191922e-01 3.614226268754831040e+01
1.381746304516900392e-01 3.315186843784164239e+01
1.392583530429608585e-01 3.061471760757817151e+01
1.403420756342317055e-01 2.891258845258047927e+01
1.414257982255025248e-01 2.679861099236777022e+01
1.425095208167733440e-01 2.482674615472822666e+01
1.435932434080441633e-01 2.395529858482413488e+01
1.446769659993149826e-01 2.315175101780528166e+01
1.457606885905858296e-01 2.285656348163922758e+01
1.468444111818566489e-01 2.230074316303239357e+01
1.479281337731274959e-01 2.052068096642577189e+01
1.490118563643983152e-01 1.929288207665297250e+01
1.500955789556691622e-01 1.699781205587237309e+01
1.511793015469399537e-01 1.616127489907310633e+01
1.522630241382108007e-01 1.480326588459089976e+01
1.533467467294816200e-01 1.427249203428797841e+01
1.544304693207524393e-01 1.226813469166609138e+01
1.555141919120232863e-01 1.181586062730278286e+01
1.565979145032941056e-01 1.159553865898999447e+01
1.576816370945649526e-01 1.093117989435867798e+01
1.587653596858357441e-01 1.074495629684363962e+01
1.598490822771065911e-01 9.897482896774334904e+00
1.609328048683774104e-01 9.109361701832568770e+00
1.620165274596482297e-01 8.054347159596204619e+00
1.631002500509190767e-01 8.519627215201410309e+00
1.641839726421898960e-01 7.720111815218814399e+00
1.652676952334607430e-01 6.715263354100500237e+00
1.663514178247315345e-01 6.811217098863465935e+00
1.674351404160023815e-01 6.932607483852194719e+00
1.685188630072732008e-01 6.952485553350641112e+00
1.696025855985440201e-01 7.250494142393023367e+00
1.706863081898148671e-01 6.274347334488965089e+00
1.717700307810856863e-01 5.386795231688296326e+00
1.728537533723565334e-01 4.461037799951668603e+00
1.739374759636273526e-01 4.229040108102736895e+00
1.750211985548981719e-01 4.590473583635201749e+00
1.761049211461689912e-01 4.894043929840393048e+00
1.771886437374398104e-01 5.222187751609283168e+00
1.782723663287106575e-01 4.481243125797391258e+00
1.793560889199814767e-01 5.159208350090437989e+00
1.804398115112523238e-01 4.778865595079167861e+00
1.815235341025231430e-01 3.892014709357169977e+00
1.826072566937939623e-01 4.304809981203021607e+00
1.836909792850647816e-01 4.956359108326864771e+00
1.847747018763356008e-01 4.546578072367282175e+00
1.858584244676064479e-01 5.133296277953860454e+00
1.869421470588772671e-01 5.220316957457697526e+00
1.880258696501481142e-01 4.606371849204379032e+00
1.891095922414189334e-01 4.354648483956680138e+00
1.901933148326897527e-01 4.165879479589989387e+00
1.912770374239605720e-01 3.966130332667177072e+00
1.923607600152313912e-01 4.110839549345797650e+00
1.934444826065022383e-01 4.638296356425968270e+00
1.945282051977730575e-01 5.500440069244888264e+00
1.956119277890439045e-01 4.371532780593184953e+00
1.966956503803147238e-01 4.056411973907813717e+00
1.977793729715855431e-01 3.801901637130242761e+00
1.988630955628563624e-01 4.412601223125648175e+00
1.999468181541271816e-01 5.189529424113828782e+00
2.010305407453980286e-01 4.924504711964885928e+00
2.021142633366688757e-01 4.958405551535804534e+00
2.031979859279396949e-01 5.027071091898790201e+00
2.042817085192105420e-01 5.070702575371143439e+00
2.053654311104813335e-01 5.281100636041713869e+00
2.064491537017522083e-01 4.871349218150243132e+00
2.075328762930229998e-01 4.861698992533803221e+00
2.086165988842938190e-01 4.480484937060282391e+00
2.097003214755646661e-01 4.552534516221300009e+00
2.107840440668354853e-01 4.228028208637311991e+00
2.118677666581063324e-01 4.775739388797120455e+00
2.129514892493771239e-01 5.272229833649532793e+00
2.140352118406479986e-01 5.246610215148194811e+00
2.151189344319187902e-01 5.947587978817040266e+00
2.162026570231896372e-01 5.067888545763509001e+00
2.172863796144604565e-01 5.272705648471486484e+00
2.183701022057312757e-01 4.139799533840488266e+00
2.194538247970021227e-01 4.210033568940701798e+00
2.205375473882729143e-01 4.396155193845430631e+00
2.216212699795437890e-01 5.323966237090616005e+00
2.227049925708145806e-01 5.600203450056852716e+00
2.237887151620854276e-01 4.905409545812972283e+00
2.248724377533562468e-01 5.312081629036356389e+00
2.259561603446270661e-01 5.158176057956694649e+00
2.270398829358979131e-01 4.859559910501360491e+00
2.281236055271687047e-01 4.084756566127566657e+00
2.292073281184395794e-01 4.199389733386652779e+00
2.302910507097103709e-01 4.632580461942382044e+00
2.313747733009812180e-01 4.487194555744508762e+00
2.324584958922520372e-01 4.514273483312109647e+00
2.335422184835228565e-01 4.768229587314522178e+00
2.346259410747937035e-01 4.853475369312377552e+00
2.357096636660644950e-01 4.807852844355153366e+00
2.367933862573353698e-01 4.428406163441621857e+00
2.378771088486061613e-01 3.767362830982506239e+00
2.389608314398770084e-01 4.246578730668119306e+00
2.400445540311478276e-01 4.809403179610796997e+00
2.411282766224186469e-01 4.451345061970386041e+00
2.422119992136894939e-01 3.909413721536054709e+00
2.432957218049602854e-01 4.509698879448848174e+00
2.443794443962311602e-01 4.566871282358079043e+00
2.454631669875019517e-01 3.905968728737946094e+00
2.465468895787727988e-01 3.818369674784747758e+00
2.476306121700436180e-01 3.618052242902308535e+00
2.487143347613144373e-01 4.131134506374792181e+00
2.497980573525852843e-01 4.222896253854827364e+00
2.508817799438560758e-01 3.399363279877633204e+00
2.519655025351269506e-01 4.570683282124207381e+00
2.530492251263977699e-01 4.886921325700711805e+00
2.541329477176685891e-01 4.259670183390653619e+00
2.552166703089394084e-01 2.999274440847102596e+00
2.563003929002102277e-01 2.997952513469471114e+00
2.573841154914810470e-01 3.242698010847220758e+00
2.584678380827518662e-01 3.359108546564840481e+00
2.595515606740227410e-01 2.725261129120042369e+00
2.606352832652935603e-01 2.486028553354458381e+00
2.617190058565643795e-01 2.806972492442980638e+00
2.628027284478351988e-01 3.017417978257981304e+00
2.638864510391060181e-01 2.690108058275825442e+00
2.649701736303768373e-01 3.190794928023962029e+00
2.660538962216476566e-01 3.191031035536440186e+00
2.671376188129185314e-01 2.307558412825756022e+00
2.682213414041893507e-01 2.601098396150803183e+00
2.693050639954601699e-01 3.016949000253248414e+00
2.703887865867309892e-01 2.392202853035144017e+00
2.714725091780018085e-01 1.968937053243223545e+00
2.725562317692726277e-01 1.602560703440985890e+00
2.736399543605434470e-01 1.363772408528660662e+00
2.747236769518143218e-01 1.865234268247718319e+00
2.758073995430851411e-01 2.162203987279866624e+00
2.768911221343559603e-01 2.925781803715921114e+00
2.779748447256267796e-01 3.271974987755442044e+00
2.790585673168975989e-01 3.412004093732946330e+00
2.801422899081684181e-01 3.017176613978676869e+00
2.812260124994392374e-01 1.807226232100191510e+00
2.823097350907101122e-01 1.790707997856429756e+00
2.833934576819809315e-01 2.017630685354134812e+00
2.844771802732517507e-01 2.181288466851128760e+00
2.855609028645225700e-01 1.756117863438646509e+00
2.866446254557933893e-01 2.457000657147204947e+00
2.877283480470642085e-01 3.234975419954025710e+00
2.888120706383350278e-01 2.733004594144659904e+00
2.898957932296059026e-01 2.089492589438890491e+00
2.909795158208767218e-01 2.202101548600182923e+00
2.920632384121475411e-01 2.229647560955044128e+00
2.931469610034183604e-01 1.937069218944657223e+00
2.942306835946891796e-01 2.284986323525913576e+00
2.953144061859599989e-01 2.070836764178636713e+00
2.963981287772308182e-01 1.790362037589233069e+00
2.974818513685016930e-01 1.821567947483913485e+00
2.985655739597725122e-01 1.296908426877479314e+00
2.996492965510433315e-01 1.293400619798688922e+00
3.007330191423141508e-01 1.482205858572996249e+00
3.018167417335849700e-01 1.073132832657933022e+00
3.029004643248558448e-01 1.480250268260988378e+00
3.039841869161266086e-01 1.908101679594381039e+00
3.050679095073974834e-01 2.041705476467996050e+00
3.061516320986683026e-01 1.216721379992662833e+00
3.072353546899391219e-01 1.311605513290118097e+00
3.083190772812099412e-01 1.942475806626219992e+00
3.094027998724807604e-01 1.545401140402304918e+00
3.104865224637516352e-01 1.135712793422356981e+00
3.115702450550223990e-01 1.412142526623711092e+00
3.126539676462932738e-01 1.368045817309848644e+00
3.137376902375640930e-01 1.072311137390016711e+00
3.148214128288349123e-01 9.461983384831995636e-01
3.159051354201057316e-01 6.196453194119015961e-01
3.169888580113765508e-01 1.641358114179524819e+00
3.180725806026474256e-01 1.858691352282932030e+00
3.191563031939181894e-01 2.202478119360279152e+00
3.202400257851890641e-01 1.352644884250679524e+00
3.213237483764598834e-01 1.206195203634536028e+00
3.224074709677307027e-01 9.244276592670956916e-01
3.234911935590015220e-01 5.378541418014322062e-01
3.245749161502723412e-01 9.747216604213519986e-01
3.256586387415432160e-01 1.193661928545878936e+00
3.267423613328139798e-01 9.413970214939979542e-01
3.278260839240848545e-01 4.101230125324519804e-01
3.289098065153556738e-01 8.303239557888133504e-01
3.299935291066264931e-01 1.245873668517603505e+00
3.310772516978973123e-01 1.320445346736079273e+00
3.321609742891681316e-01 1.341154992094701015e+00
3.332446968804390064e-01 6.852029541184521122e-01
3.343284194717097701e-01 5.280306994977763679e-01
3.354121420629806449e-01 4.485318672600158152e-01
3.364958646542514642e-01 1.124751210602553897e+00
3.375795872455222835e-01 1.333913825712500056e+00
3.386633098367931027e-01 1.669232267951684889e+00
3.397470324280639220e-01 1.752249754243820234e+00
3.408307550193347968e-01 1.679137685544503711e+00
3.419144776106055605e-01 1.282642695420989298e+00
3.429982002018764353e-01 1.324374262951550918e+00
3.440819227931472546e-01 1.349847422328380731e+00
3.451656453844180739e-01 1.771589720757646091e+00
3.462493679756888931e-01 1.480248301765612950e+00
3.473330905669597679e-01 1.339275715196620808e+00
3.484168131582305872e-01 1.501564392431546935e+00
3.495005357495013509e-01 1.369059437022400516e+00
3.505842583407722257e-01 1.326883795895170692e+00
3.516679809320430450e-01 1.108408888840799023e+00
3.527517035233138643e-01 1.167818541730810011e+00
3.538354261145846835e-01 1.191375659833099121e+00
3.549191487058555583e-01 1.332220377770227060e+00
3.560028712971263776e-01 1.013088403838935392e+00
3.570865938883971413e-01 8.136074584845260915e-01
3.581703164796680161e-01 1.000974865030940464e+00
3.592540390709388354e-01 1.438143602438344715e+00
3.603377616622096546e-01 1.096694179081353582e+00
3.614214842534804739e-01 9.308077644564463071e-01
3.625052068447513487e-01 1.403534466137656977e+00
3.635889294360221680e-01 1.227563310515023431e+00
3.646726520272929317e-01 8.013849762291584966e-01
3.657563746185638065e-01 4.742585524840876587e-01
3.668400972098346258e-01 8.666776438455059406e-01
3.679238198011054450e-01 8.908975982599400822e-01
3.690075423923762643e-01 1.030675069083386575e+00
3.700912649836471391e-01 1.142759573029707099e+00
3.711749875749179584e-01 9.510452061005736368e-01
3.722587101661887221e-01 1.175876344830726339e+00
3.733424327574595969e-01 1.601103973758100096e+00
3.744261553487304162e-01 1.362615731637887961e+00
3.755098779400012354e-01 1.139992250112797478e+00
3.765936005312720547e-01 9.788465289515499990e-01
3.776773231225429295e-01 9.051145330669356781e-01
3.787610457138137487e-01 9.726358407555011354e-01
3.798447683050845125e-01 1.483826465928913763e+00
3.809284908963553873e-01 1.650132905307742703e+00
3.820122134876262066e-01 9.688709725630673120e-01
3.830959360788970258e-01 9.392748613351500353e-01
3.841796586701678451e-01 1.176181295550392747e+00
3.852633812614387199e-01 1.067142831646464174e+00
3.863471038527095391e-01 9.104749947996282344e-01
3.874308264439803029e-01 1.256676168947592487e+00
3.885145490352511777e-01 1.358550710085737023e+00
3.895982716265219969e-01 1.193705655347486072e+00
3.906819942177928162e-01 1.345740900743450652e+00
3.917657168090636355e-01 1.256841251742031318e+00
3.928494394003345103e-01 1.326448066047106522e+00
3.939331619916053295e-01 1.514815707694580738e+00
3.950168845828760933e-01 1.415165539052637200e+00
3.961006071741469681e-01 1.255883326589611215e+00
3.971843297654177873e-01 1.073966044600567216e+00
3.982680523566886066e-01 8.506526732071790775e-01
3.993517749479594259e-01 1.062512028173387080e+00
4.004354975392302451e-01 9.467824938589330941e-01
4.015192201305010089e-01 1.211223311795720292e+00
4.026029427217718837e-01 1.098999400382737690e+00
4.036866653130427030e-01 1.239383810576399014e+00
4.047703879043135777e-01 1.113450542846365465e+00
4.058541104955843415e-01 8.128804605290440577e-01
4.069378330868551608e-01 1.072261167156170814e+00
4.080215556781260355e-01 1.250083368142441032e+00
4.091052782693967993e-01 1.625949382302039226e+00
4.101890008606676741e-01 1.499988374312991368e+00
4.112727234519384933e-01 9.129990873017987951e-01
4.123564460432093681e-01 5.675435081436717155e-01
4.134401686344801319e-01 9.784717450076101386e-01
4.145238912257509512e-01 1.139828447337933426e+00
4.156076138170218259e-01 1.097590682696434783e+00
4.166913364082925897e-01 1.054865081889502676e+00
4.177750589995634645e-01 1.083964381506930863e+00
4.188587815908342837e-01 1.050211858216542282e+00
4.199425041821051585e-01 7.585785099209374494e-01
4.210262267733759223e-01 6.793416770620410716e-01
4.221099493646467415e-01 1.133822367682085996e+00
4.231936719559176163e-01 1.168285318744395340e+00
4.242773945471884911e-01 9.730653512648501646e-01
4.253611171384592549e-01 1.055282922495564435e+00
4.264448397297300741e-01 9.806564013314300610e-01
4.275285623210009489e-01 5.715062321531974021e-01
4.286122849122717127e-01 7.301582944089801686e-01
4.296960075035425319e-01 1.119719930077195613e+00
4.307797300948134067e-01 9.932446579593658953e-01
4.318634526860842815e-01 7.912104977006890749e-01
4.329471752773550453e-01 8.561756417858532586e-01
4.340308978686258645e-01 9.912436882354285217e-01
4.351146204598967393e-01 7.480606655217343359e-01
4.361983430511675031e-01 6.297541714319123685e-01
4.372820656424383223e-01 7.521261691849758790e-01
4.383657882337091971e-01 1.062239468739619497e+00
4.394495108249800719e-01 7.539974503013553431e-01
4.405332334162508356e-01 8.827123634395803720e-01
4.416169560075216549e-01 9.535475650351941113e-01
4.427006785987925297e-01 8.698004554159979307e-01
4.437844011900632935e-01 8.050596954367392755e-01
4.448681237813341127e-01 9.219367898529782224e-01
4.459518463726049875e-01 6.251320101368804671e-01
4.470355689638758623e-01 3.367767481377512695e-01
4.481192915551466260e-01 2.809863993057462039e-01
4.492030141464174453e-01 0.000000000000000000e+00
4.502867367376883201e-01 2.786122890838811372e-01
4.513704593289590838e-01 6.662762785410194510e-01
