# q (1/angstrom), Intensity (arb)
2.004886800316986462e-02 4.330620707827458773e+02
2.113259059444069429e-02 5.252503570286038439e+02
2.221631318571152050e-02 5.717872493279652417e+02
2.330003577698234671e-02 5.945773628391893908e+02
2.438375836825317292e-02 6.128047888664825678e+02
2.546748095952399912e-02 6.217210571236447549e+02
2.655120355079482186e-02 6.372067779041350377e+02
2.763492614206565501e-02 6.454352201027488718e+02
2.871864873333647775e-02 6.431155742378232389e+02
2.980237132460730742e-02 6.321033865069066451e+02
3.088609391587813363e-02 6.245946712202875233e+02
3.196981650714896678e-02 6.237103893598413151e+02
3.305353909841978605e-02 6.146328914229485463e+02
3.413726168969061919e-02 6.058840086008569870e+02
3.522098428096144540e-02 5.993064028392178670e+02
3.630470687223227161e-02 5.915840868212375199e+02
3.738842946350309782e-02 5.835055445934613090e+02
3.847215205477392402e-02 5.775943822941460439e+02
3.955587464604475717e-02 5.715486075326714399e+02
4.063959723731558338e-02 5.636277271550329715e+02
4.172331982858640959e-02 5.544043301720695354e+02
4.280704241985723579e-02 5.455258609235875156e+02
4.389076501112806894e-02 5.364017995305054001e+02
4.497448760239888821e-02 5.287926772582280819e+02
4.605821019366971442e-02 5.199406115840195071e+02
4.714193278494054756e-02 5.115913554265023322e+02
4.822565537621137377e-02 5.059988055107208993e+02
4.930937796748219998e-02 4.963606591610069358e+02
5.039310055875302619e-02 4.860435199758163662e+02
5.147682315002385933e-02 4.781867806454532683e+02
5.256054574129467860e-02 4.728415774448557727e+02
5.364426833256550481e-02 4.654510844209749507e+02
5.472799092383633796e-02 4.542082967111851417e+02
5.581171351510716416e-02 4.480007594366348940e+02
5.689543610637798343e-02 4.411435890433883742e+02
5.797915869764881658e-02 4.332953154953597732e+02
5.906288128891964972e-02 4.261035824408554618e+02
6.014660388019047593e-02 4.143391536891622309e+02
6.123032647146129520e-02 4.043460939548284045e+02
6.231404906273212835e-02 3.973743402081421436e+02
6.339777165400295456e-02 3.898500080070807599e+02
6.448149424527377382e-02 3.822737604836232208e+02
6.556521683654460697e-02 3.764819461211579323e+02
6.664893942781544012e-02 3.685402133182297462e+02
6.773266201908627326e-02 3.620129815432775331e+02
6.881638461035709253e-02 3.573024488635182934e+02
6.990010720162791180e-02 3.499032122905559845e+02
7.098382979289874495e-02 3.411823574929394454e+02
7.206755238416956422e-02 3.343781783709825959e+02
7.315127497544039736e-02 3.284905472071962436e+02
7.423499756671123051e-02 3.175549585672818012e+02
7.531872015798206366e-02 3.113871429231287493e+02
7.640244274925288293e-02 3.021289570664766870e+02
7.748616534052371607e-02 2.918071527263230678e+02
7.856988793179453534e-02 2.793382993868661970e+02
7.965361052306535461e-02 2.691720797920571613e+02
8.073733311433618776e-02 2.621699585271759361e+02
8.182105570560702090e-02 2.523909757503654987e+02
8.290477829687785405e-02 2.423145870031575555e+02
8.398850088814867332e-02 2.329642385657308239e+02
8.507222347941950646e-02 2.250505616923293246e+02
8.615594607069032573e-02 2.159369683955276003e+02
8.723966866196115888e-02 2.053401977304043839e+02
8.832339125323197815e-02 1.969390107855604697e+02
8.940711384450281130e-02 1.891343186701394643e+02
9.049083643577364444e-02 1.797941257866577587e+02
9.157455902704446371e-02 1.708096032713162913e+02
9.265828161831529686e-02 1.641771880202823866e+02
9.374200420958611613e-02 1.579932379688248147e+02
9.482572680085694927e-02 1.492032242714034851e+02
9.590944939212776854e-02 1.434498262316048454e+02
9.699317198339860169e-02 1.380899795308006048e+02
9.807689457466943483e-02 1.310988359466274744e+02
9.916061716594025410e-02 1.246920642527485938e+02
1.002443397572110872e-01 1.174683313426314442e+02
1.013280623484819065e-01 1.111914220992584035e+02
1.024117849397527397e-01 1.071779843658492553e+02
1.034955075310235728e-01 1.037823179387461039e+02
1.045792301222943782e-01 9.854521142880705042e+01
1.056629527135652113e-01 9.411592724187343606e+01
1.067466753048360445e-01 9.022901370969890422e+01
1.078303978961068776e-01 8.508039424632488590e+01
1.089141204873776969e-01 8.071834302690044183e+01
1.099978430786485301e-01 7.713609278442962136e+01
1.110815656699193632e-01 7.349413863440506134e+01
1.121652882611901964e-01 7.004665396425886570e+01
1.132490108524610017e-01 6.614357353681231189e+01
1.143327334437318349e-01 6.187601050933020019e+01
1.154164560350026680e-01 5.829245013783344120e+01
1.165001786262734873e-01 5.580149671818671209e+01
1.175839012175443204e-01 5.239970256998944365e+01
1.186676238088151536e-01 4.897831001894817859e+01
1.197513464000859867e-01 4.664301564411655932e+01
1.208350689913567921e-01 4.364825511052163165e+01
1.219187915826276253e-01 4.191264612945749946e+01
1.230025141738984584e-01 4.060947356522359541e+01
1.240862367651692777e-01 3.840754022978319426e+01
1.251699593564401247e-01 3.621326463474838420e+01
1.262536819477109440e-01 3.434375479127442077e+01
1.273374045389817633e-01 3.233059821195172390e+01
1.284211271302525825e-01 3.041467493032598668e+01
1.295048497215234018e-01 2.899137766181681286e+01
1.305885723127942488e-01 2.715950503572659613e+01
1.316722949040650681e-01 2.667794029520962340e+01
1.327560174953359151e-01 2.527395656117721501e+01
1.338397400866067344e-01 2.373648925199896098e+01
1.349234626778775537e-01 2.245939049100826423e+01
1.360071852691483729e-01 2.023092516124336271e+01
1.370909078604191922e-01 1.860517508098163830e+01
1.381746304516900392e-01 1.703593769278268155e+01
1.392583530429608585e-01 1.811597432217087089e+01
1.403420756342317055e-01 1.729901103426877285e+01
1.414257982255025248e-01 1.576770467351244065e+01
1.425095208167733440e-01 1.352738549017905711e+01
1.435932434080441633e-01 1.272481901279070371e+01
1.446769659993149826e-01 1.208477606941085014e+01
1.457606885905858296e-01 1.140608537219327445e+01
1.468444111818566489e-01 1.132983689666343707e+01
1.479281337731274959e-01 1.124204858035739107e+01
1.490118563643983152e-01 1.022581127860087236e+01
1.500955789556691622e-01 9.551838484282853869e+00
1.511793015469399537e-01 9.141371146365855793e+00
1.522630241382108007e-01 9.763793736238426391e+00
1.533467467294816200e-01 9.044663259055653270e+00
1.544304693207524393e-01 7.554234581109341207e+00
1.555141919120232863e-01 7.072730181314142328e+00
1.565979145032941056e-01 7.633842334338538649e+00
1.576816370945649526e-01 7.698383313346909063e+00
1.587653596858357441e-01 6.702573767023523033e+00
1.598490822771065911e-01 5.831020151943874907e+00
1.609328048683774104e-01 5.671298912070852793e+00
1.620165274596482297e-01 6.401665308854262548e+00
1.631002500509190767e-01 6.264888927479063341e+00
1.641839726421898960e-01 6.235059629996129615e+00
1.652676952334607430e-01 5.553320663151680492e+00
1.663514178247315345e-01 6.120346019386516900e+00
1.674351404160023815e-01 5.554973941081016164e+00
1.685188630072732008e-01 4.929983245277611559e+00
1.696025855985440201e-01 5.437978238489307614e+00
1.706863081898148671e-01 5.091613954797082897e+00
1.717700307810856863e-01 5.356304665271608201e+00
1.728537533723565334e-01 5.380845935860236295e+00
1.739374759636273526e-01 5.049108236028928332e+00
1.750211985548981719e-01 5.828126550961457042e+00
1.761049211461689912e-01 6.161958557005789316e+00
1.771886437374398104e-01 5.427941802918184067e+00
1.782723663287106575e-01 4.879509134635839018e+00
1.793560889199814767e-01 4.818206814107156788e+00
1.804398115112523238e-01 4.304817628796882900e+00
1.815235341025231430e-01 4.114000771718338001e+00
1.826072566937939623e-01 5.051062880432510838e+00
1.836909792850647816e-01 5.311665366482969830e+00
1.847747018763356008e-01 4.262782367302577313e+00
1.858584244676064479e-01 5.301825006233627846e+00
1.869421470588772671e-01 5.600550151545604649e+00
1.880258696501481142e-01 5.660331978791674601e+00
1.891095922414189334e-01 5.744840847241505344e+00
1.901933148326897527e-01 5.517770192532225337e+00
1.912770374239605720e-01 5.166270101430995965e+00
1.923607600152313912e-01 5.030548552362660075e+00
1.934444826065022383e-01 4.943058448743784083e+00
1.945282051977730575e-01 4.863419831389364845e+00
1.956119277890439045e-01 5.046488939139351260e+00
1.966956503803147238e-01 5.023451606410162640e+00
1.977793729715855431e-01 5.137404970632900358e+00
1.988630955628563624e-01 6.039751721946487351e+00
1.999468181541271816e-01 5.480326956812120898e+00
2.010305407453980286e-01 5.760099161983561089e+00
2.021142633366688757e-01 4.834912218596599587e+00
2.031979859279396949e-01 4.233582859410290666e+00
2.042817085192105420e-01 6.318575479111530058e+00
2.053654311104813335e-01 5.448907365006675718e+00
2.064491537017522083e-01 4.535395635080590182e+00
2.075328762930229998e-01 4.905892670394649713e+00
2.086165988842938190e-01 5.283303532567572347e+00
2.097003214755646661e-01 5.389305287321775495e+00
2.107840440668354853e-01 5.439262051407297349e+00
2.118677666581063324e-01 4.605490986218455873e+00
2.129514892493771239e-01 4.486943925629390151e+00
2.140352118406479986e-01 4.454525473995147422e+00
2.151189344319187902e-01 4.772788496233999922e+00
2.162026570231896372e-01 4.815865467144305967e+00
2.172863796144604565e-01 4.752941822900965008e+00
2.183701022057312757e-01 3.683964236502930589e+00
2.194538247970021227e-01 4.707619269244446514e+00
2.205375473882729143e-01 5.486737568451786728e+00
2.216212699795437890e-01 5.208220800343241308e+00
2.227049925708145806e-01 4.750549441105960113e+00
2.237887151620854276e-01 4.107550455984664950e+00
2.248724377533562468e-01 4.325433709808521598e+00
2.259561603446270661e-01 4.637977421001806988e+00
2.270398829358979131e-01 4.463039313505333894e+00
2.281236055271687047e-01 4.874558394524171945e+00
2.292073281184395794e-01 4.153706300434407694e+00
2.302910507097103709e-01 4.193702515009988474e+00
2.313747733009812180e-01 4.734998728881464558e+00
2.324584958922520372e-01 4.781854108419281602e+00
2.335422184835228565e-01 4.268057615782169023e+00
2.346259410747937035e-01 4.104561414512062356e+00
2.357096636660644950e-01 4.189854609941846775e+00
2.367933862573353698e-01 4.369103144015383577e+00
2.378771088486061613e-01 4.388058604150188557e+00
2.389608314398770084e-01 4.381671165846199756e+00
2.400445540311478276e-01 4.654663902199587255e+00
2.411282766224186469e-01 4.288681345449077753e+00
2.422119992136894939e-01 4.201474505396561199e+00
2.432957218049602854e-01 3.924962413363289215e+00
2.443794443962311602e-01 3.873313041701180737e+00
2.454631669875019517e-01 3.752818359799334758e+00
2.465468895787727988e-01 4.144474630809725113e+00
2.476306121700436180e-01 3.330457171481896239e+00
2.487143347613144373e-01 3.165260722057126941e+00
2.497980573525852843e-01 2.904793854125216512e+00
2.508817799438560758e-01 3.078175350198108617e+00
2.519655025351269506e-01 2.046695827353886443e+00
2.530492251263977699e-01 2.093570717765459221e+00
2.541329477176685891e-01 3.082098847239080897e+00
2.552166703089394084e-01 3.289880892130724988e+00
2.563003929002102277e-01 2.787919221094085742e+00
2.573841154914810470e-01 2.021295412867431196e+00
2.584678380827518662e-01 2.463789092891488508e+00
2.595515606740227410e-01 2.882556124301942191e+00
2.606352832652935603e-01 2.843819086147959752e+00
2.617190058565643795e-01 2.227559808005707964e+00
2.628027284478351988e-01 1.758557741995673496e+00
2.638864510391060181e-01 2.565091844864468840e+00
2.649701736303768373e-01 3.155469647170775715e+00
2.660538962216476566e-01 2.768486914412562783e+00
2.671376188129185314e-01 2.495741937162563318e+00
2.682213414041893507e-01 1.775250198787574618e+00
2.693050639954601699e-01 1.957617345327662406e+00
2.703887865867309892e-01 2.925819806794208944e+00
2.714725091780018085e-01 3.055037794194731759e+00
2.725562317692726277e-01 2.559675995558592376e+00
2.736399543605434470e-01 2.386057529169534064e+00
2.747236769518143218e-01 2.251729627880706630e+00
2.758073995430851411e-01 1.834751970673124788e+00
2.768911221343559603e-01 1.744084865803387174e+00
2.779748447256267796e-01 1.765396685903482421e+00
2.790585673168975989e-01 1.528560980821595194e+00
2.801422899081684181e-01 1.582652115176955476e+00
2.812260124994392374e-01 2.160095932481794989e+00
2.823097350907101122e-01 2.611394580784264008e+00
2.833934576819809315e-01 2.004403712424789319e+00
2.844771802732517507e-01 1.168996517219653697e+00
2.855609028645225700e-01 1.620304446706569479e+00
2.866446254557933893e-01 1.885362656116228663e+00
2.877283480470642085e-01 1.964255397929093760e+00
2.888120706383350278e-01 2.143990936894596189e+00
2.898957932296059026e-01 2.176017731489082507e+00
2.909795158208767218e-01 2.140231101686055126e+00
2.920632384121475411e-01 1.249667025752330574e+00
2.931469610034183604e-01 1.220586546790599414e+00
2.942306835946891796e-01 1.682311126324606221e+00
2.953144061859599989e-01 1.932945200212913051e+00
2.963981287772308182e-01 2.299044815716143830e+00
2.974818513685016930e-01 1.991968074380594089e+00
2.985655739597725122e-01 1.689619918791493092e+00
2.996492965510433315e-01 1.631183258438340999e+00
3.007330191423141508e-01 2.235206488704051253e+00
3.018167417335849700e-01 2.548799356946489070e+00
3.029004643248558448e-01 1.998768314417276315e+00
3.039841869161266086e-01 2.042613996833324563e+00
3.050679095073974834e-01 2.092080228790734964e+00
3.061516320986683026e-01 2.120846972229117000e+00
3.072353546899391219e-01 2.155107592107526671e+00
3.083190772812099412e-01 2.012157579168928123e+00
3.094027998724807604e-01 2.420735235153841813e+00
3.104865224637516352e-01 2.277975339377093178e+00
3.115702450550223990e-01 1.853112676690869876e+00
3.126539676462932738e-01 1.620072562211703371e+00
3.137376902375640930e-01 1.804883826923173729e+00
3.148214128288349123e-01 1.670550080468984788e+00
3.159051354201057316e-01 1.841040444757794603e+00
3.169888580113765508e-01 2.187192056321578093e+00
3.180725806026474256e-01 2.329461550666053427e+00
3.191563031939181894e-01 2.318763055826707387e+00
3.202400257851890641e-01 1.918222576957560932e+00
3.213237483764598834e-01 1.350420322278978347e+00
3.224074709677307027e-01 8.595712976075446932e-01
3.234911935590015220e-01 1.029797407527780706e+00
3.245749161502723412e-01 1.096178195225860463e+00
3.256586387415432160e-01 1.412995500976165886e+00
3.267423613328139798e-01 1.513194377493391585e+00
3.278260839240848545e-01 2.187613947472840437e+00
3.289098065153556738e-01 1.652252904035037773e+00
3.299935291066264931e-01 1.451596810188647169e+00
3.310772516978973123e-01 1.686047607285132699e+00
3.321609742891681316e-01 1.855713680322651271e+00
3.332446968804390064e-01 1.487399081239203724e+00
3.343284194717097701e-01 2.135986085155053615e+00
3.354121420629806449e-01 2.189331873967802267e+00
3.364958646542514642e-01 1.732882895527154687e+00
3.375795872455222835e-01 1.679615907109763384e+00
3.386633098367931027e-01 1.990991006229023697e+00
3.397470324280639220e-01 1.916882030096132894e+00
3.408307550193347968e-01 1.857809786936826413e+00
3.419144776106055605e-01 1.821035285905054479e+00
3.429982002018764353e-01 1.542034531249214524e+00
3.440819227931472546e-01 1.245104030436152698e+00
3.451656453844180739e-01 9.461675221814118686e-01
3.462493679756888931e-01 1.012181073248086705e+00
3.473330905669597679e-01 1.204601677323068998e+00
3.484168131582305872e-01 1.531911214526957110e+00
3.495005357495013509e-01 1.318896142628858570e+00
3.505842583407722257e-01 1.828417704943703370e+00
3.516679809320430450e-01 1.479971086044201911e+00
3.527517035233138643e-01 9.332809058215474352e-01
3.538354261145846835e-01 1.061556447495163980e+00
3.549191487058555583e-01 1.705107008376046451e+00
3.560028712971263776e-01 1.606701906369650601e+00
3.570865938883971413e-01 1.446825315095082942e+00
3.581703164796680161e-01 1.349970716922285874e+00
3.592540390709388354e-01 1.037265542996181011e+00
3.603377616622096546e-01 1.319437330483992810e+00
3.614214842534804739e-01 1.762698600731752663e+00
3.625052068447513487e-01 2.089494081765266742e+00
3.635889294360221680e-01 1.655713641436861394e+00
3.646726520272929317e-01 1.724243510896798171e+00
3.657563746185638065e-01 2.223592344438884538e+00
3.668400972098346258e-01 1.926540167600307996e+00
3.679238198011054450e-01 1.615567926860563830e+00
3.690075423923762643e-01 1.550128552932264370e+00
3.700912649836471391e-01 1.652140014914948551e+00
3.711749875749179584e-01 1.645868630054167170e+00
3.722587101661887221e-01 1.518519210828401356e+00
3.733424327574595969e-01 1.973421154027803937e+00
3.744261553487304162e-01 1.821072281043001340e+00
3.755098779400012354e-01 1.930785723174864188e+00
3.765936005312720547e-01 1.379518048891370086e+00
3.776773231225429295e-01 1.269996691977837600e+00
3.787610457138137487e-01 1.480780612669605034e+00
3.798447683050845125e-01 1.547182702860055770e+00
3.809284908963553873e-01 1.149036445237612725e+00
3.820122134876262066e-01 1.331757653782588591e+00
3.830959360788970258e-01 1.310816271573784775e+00
3.841796586701678451e-01 1.313286278531876405e+00
3.852633812614387199e-01 1.260576607847710306e+00
3.863471038527095391e-01 1.573717051508779718e+00
3.874308264439803029e-01 1.379935273568705156e+00
3.885145490352511777e-01 1.491033037974517583e+00
3.895982716265219969e-01 1.097324507199758159e+00
3.906819942177928162e-01 1.282492836973105454e+00
3.917657168090636355e-01 1.170674267668402990e+00
3.928494394003345103e-01 8.931848260223631542e-01
3.939331619916053295e-01 6.416542210737361529e-01
3.950168845828760933e-01 1.188362251287770732e+00
3.961006071741469681e-01 1.371550063546479237e+00
3.971843297654177873e-01 1.262063039511730267e+00
3.982680523566886066e-01 1.054822477206002418e+00
3.993517749479594259e-01 1.071428948583005081e+00
4.004354975392302451e-01 1.276942405005215164e+00
4.015192201305010089e-01 1.432190516089107746e+00
4.026029427217718837e-01 1.240105380631362664e+00
4.036866653130427030e-01 1.266037061732490088e+00
4.047703879043135777e-01 1.606806254040890281e+00
4.058541104955843415e-01 1.367138748442783935e+00
4.069378330868551608e-01 1.262621060542656437e+00
4.080215556781260355e-01 1.193416545117798933e+00
4.091052782693967993e-01 1.288983845870333766e+00
4.101890008606676741e-01 1.231528644181352661e+00
4.112727234519384933e-01 1.126896956800621297e+00
4.123564460432093681e-01 3.560398866407439300e-01
4.134401686344801319e-01 9.213703961688253230e-01
4.145238912257509512e-01 1.636443375932472577e+00
4.156076138170218259e-01 1.416534475470569987e+00
4.166913364082925897e-01 1.629307679144915255e+00
4.177750589995634645e-01 1.823943423672389486e+00
4.188587815908342837e-01 1.223382002047955552e+00
4.199425041821051585e-01 9.104597022995619682e-01
4.210262267733759223e-01 1.598120265433934151e+00
4.221099493646467415e-01 1.753920467243162307e+00
4.231936719559176163e-01 1.192241062544852070e+00
4.242773945471884911e-01 1.269295251467838170e+00
4.253611171384592549e-01 1.176772161726418631e+00
4.264448397297300741e-01 1.275140915405330588e+00
4.275285623210009489e-01 1.141218966984183680e+00
4.286122849122717127e-01 4.992019155705662570e-01
4.296960075035425319e-01 5.766400255005521558e-01
4.307797300948134067e-01 1.005728497994795134e+00
4.318634526860842815e-01 1.251747776497836639e+00
4.329471752773550453e-01 1.229069878563393559e+00
4.340308978686258645e-01 8.531202432971554117e-01
4.351146204598967393e-01 1.099719416600123623e+00
4.361983430511675031e-01 9.593913991272842168e-01
4.372820656424383223e-01 9.220689622442108657e-01
4.383657882337091971e-01 6.999743032905456630e-01
4.394495108249800719e-01 8.744898183737319641e-01
4.405332334162508356e-01 8.829379893383730860e-01
4.416169560075216549e-01 9.329609965187728449e-01
4.427006785987925297e-01 9.948640077685979577e-01
4.437844011900632935e-01 1.230671463724505088e+00
4.448681237813341127e-01 9.674310092982096876e-01
4.459518463726049875e-01 8.692227512869408201e-01
4.470355689638758623e-01 7.859933483946122124e-01
4.481192915551466260e-01 7.283230641309899056e-01
4.492030141464174453e-01 8.416533449701120162e-01
4.502867367376883201e-01 9.031966881675117520e-01
4.513704593289590838e-01 8.202849518425097131e-01
