# q (1/Angstrom), Intensity (arb)
2.078726924066784734e-02 2.420039252129378724e+02
2.212838338006469993e-02 3.285604215010817484e+02
2.346949751946154905e-02 4.236289677074622091e+02
2.481061165885840164e-02 6.126116906430892186e+02
2.615172579825525423e-02 7.395143510556963520e+02
2.749283993765210335e-02 7.847415317442298601e+02
2.883395407704895941e-02 8.197167978207446595e+02
3.017506821644580506e-02 8.410260920747450655e+02
3.151618235584265765e-02 8.466577687204462563e+02
3.285729649523951718e-02 8.431968362606903611e+02
3.419841063463636283e-02 8.426362147690419988e+02
3.553952477403321542e-02 8.395825068427650422e+02
3.688063891343006800e-02 8.365052842008595917e+02
3.822175305282692059e-02 8.322645476528267636e+02
3.956286719222376624e-02 8.273741605621853523e+02
4.090398133162062577e-02 8.220312588104598035e+02
4.224509547101747142e-02 8.163518368757820554e+02
4.358620961041432401e-02 8.112098151993967576e+02
4.492732374981117660e-02 8.080885204690928276e+02
4.626843788920802919e-02 8.044503774255745157e+02
4.760955202860488178e-02 8.034694904882181845e+02
4.895066616800172743e-02 7.977663661759821707e+02
5.029178030739858696e-02 7.908745564963030574e+02
5.163289444679544649e-02 7.858991157601458326e+02
5.297400858619229214e-02 7.818116382687263695e+02
5.431512272558913779e-02 7.815461764805630764e+02
5.565623686498599731e-02 7.736062216168248824e+02
5.699735100438284990e-02 7.670735215609190618e+02
5.833846514377969555e-02 7.617892763653770771e+02
5.967957928317654814e-02 7.560598979051815149e+02
6.102069342257340767e-02 7.480685372544795655e+02
6.236180756197025332e-02 7.400620836001257885e+02
6.370292170136709897e-02 7.324802919972739801e+02
6.504403584076395850e-02 7.258809274048140878e+02
6.638514998016080415e-02 7.180263703295985351e+02
6.772626411955766368e-02 7.103456009255160097e+02
6.906737825895450933e-02 6.968332897907359893e+02
7.040849239835136886e-02 6.847986205342014046e+02
7.174960653774821451e-02 6.745546411762693424e+02
7.309072067714506016e-02 6.639990272828592879e+02
7.443183481654190581e-02 6.537633306756622460e+02
7.577294895593877921e-02 6.447114816915910751e+02
7.711406309533562486e-02 6.334306789017824713e+02
7.845517723473247051e-02 6.236400397692268598e+02
7.979629137412933004e-02 6.119140059703936458e+02
8.113740551352617569e-02 5.999344456941170165e+02
8.247851965292302134e-02 5.892741930548966138e+02
8.381963379231988087e-02 5.794517854546589888e+02
8.516074793171674040e-02 5.669306865767981662e+02
8.650186207111358605e-02 5.571245098236025797e+02
8.784297621051043170e-02 5.479098311814735780e+02
8.918409034990729123e-02 5.381731645100496735e+02
9.052520448930413688e-02 5.253809333599238016e+02
9.186631862870098253e-02 5.148963502174510722e+02
9.320743276809784206e-02 5.041766178242427259e+02
9.454854690749470159e-02 4.932632793996897931e+02
9.588966104689154724e-02 4.827573544974816855e+02
9.723077518628839289e-02 4.712039885563717121e+02
9.857188932568525241e-02 4.602745317253654775e+02
9.991300346508209806e-02 4.503344605913146097e+02
1.012541176044789437e-01 4.401261951809507877e+02
1.025952317438758032e-01 4.302737772231118925e+02
1.039363458832726350e-01 4.201687392578610343e+02
1.052774600226694945e-01 4.101045248222309283e+02
1.066185741620663541e-01 4.009068852881573548e+02
1.079596883014631858e-01 3.894715809636720110e+02
1.093008024408600454e-01 3.787800494148317512e+02
1.106419165802569049e-01 3.688448289522834216e+02
1.119830307196537506e-01 3.586541400234434604e+02
1.133241448590506101e-01 3.498575329380113317e+02
1.146652589984474419e-01 3.400789309044967013e+02
1.160063731378443014e-01 3.311916319941042275e+02
1.173474872772411609e-01 3.231461181144898660e+02
1.186886014166380066e-01 3.136905507472197314e+02
1.200297155560348661e-01 3.047590421461703727e+02
1.213708296954317256e-01 2.939742405328646555e+02
1.227119438348285574e-01 2.854935835508745186e+02
1.240530579742254169e-01 2.778254680354273205e+02
1.253941721136222764e-01 2.694515255601671697e+02
1.267352862530191082e-01 2.607400274872690602e+02
1.280764003924159677e-01 2.519243010171196886e+02
1.294175145318128273e-01 2.434158129473011059e+02
1.307586286712096590e-01 2.353370881783957316e+02
1.320997428106065186e-01 2.287482158636618692e+02
1.334408569500033781e-01 2.215146635677646714e+02
1.347819710894002376e-01 2.150976903711228942e+02
1.361230852287970972e-01 2.073213585082610848e+02
1.374641993681939289e-01 1.996748876279058322e+02
1.388053135075907885e-01 1.911862179942506828e+02
1.401464276469876480e-01 1.835565896083000439e+02
1.414875417863844798e-01 1.774997707145666936e+02
1.428286559257813393e-01 1.727154254669894158e+02
1.441697700651781988e-01 1.654395365920676682e+02
1.455108842045750306e-01 1.584671299536482252e+02
1.468519983439718901e-01 1.532788448868276419e+02
1.481931124833687219e-01 1.463484522640135879e+02
1.495342266227655814e-01 1.406991975458286674e+02
1.508753407621624687e-01 1.352472796157571224e+02
1.522164549015593005e-01 1.294935424851520906e+02
1.535575690409561600e-01 1.245444406905924666e+02
1.548986831803530195e-01 1.187202379808458943e+02
1.562397973197498513e-01 1.132027149509898294e+02
1.575809114591467108e-01 1.089643535620733132e+02
1.589220255985435704e-01 1.040004588922516575e+02
1.602631397379404021e-01 9.825104194984757555e+01
1.616042538773372617e-01 9.488435786686719098e+01
1.629453680167341212e-01 9.071082736743346686e+01
1.642864821561309530e-01 8.504499982026820248e+01
1.656275962955278125e-01 8.157018343603280641e+01
1.669687104349246720e-01 7.863946544155082563e+01
1.683098245743215315e-01 7.479863982959984980e+01
1.696509387137183911e-01 7.034840161118196988e+01
1.709920528531152228e-01 6.652894250048443325e+01
1.723331669925120824e-01 6.315457243159700340e+01
1.736742811319089419e-01 5.952806550803117602e+01
1.750153952713057737e-01 5.594101268802708660e+01
1.763565094107026332e-01 5.321924619605054829e+01
1.776976235500994927e-01 5.107898928508156189e+01
1.790387376894963245e-01 4.785880456151569717e+01
1.803798518288931840e-01 4.503840604630532596e+01
1.817209659682900158e-01 4.262879556294129202e+01
1.830620801076868753e-01 4.015137457319468695e+01
1.844031942470837349e-01 3.793261302620435060e+01
1.857443083864805944e-01 3.559755659710624798e+01
1.870854225258774539e-01 3.303390039488326124e+01
1.884265366652743134e-01 3.044154207736380613e+01
1.897676508046711452e-01 2.846424273855528497e+01
1.911087649440680047e-01 2.715465581362579428e+01
1.924498790834648643e-01 2.540769954390164287e+01
1.937909932228616960e-01 2.317208239439045769e+01
1.951321073622585556e-01 2.166585248309637279e+01
1.964732215016554151e-01 1.985019037984312718e+01
1.978143356410522469e-01 1.863726228095713111e+01
1.991554497804491064e-01 1.755675459046472042e+01
2.004965639198459382e-01 1.589940200029930395e+01
2.018376780592427977e-01 1.451797627926224266e+01
2.031787921986396572e-01 1.369038721928353652e+01
2.045199063380365168e-01 1.309504526446977479e+01
2.058610204774333763e-01 1.254847817873908866e+01
2.072021346168302081e-01 1.169530916282549526e+01
2.085432487562270676e-01 1.063917954847248382e+01
2.098843628956239271e-01 9.339774874288750084e+00
2.112254770350207866e-01 8.843022352404773301e+00
2.125665911744176462e-01 8.029757336292846048e+00
2.139077053138144502e-01 7.709304229266209063e+00
2.152488194532113097e-01 6.611060819139382261e+00
2.165899335926081692e-01 6.182597976161716247e+00
2.179310477320050288e-01 5.303179200451467068e+00
2.192721618714018883e-01 5.073223964363478444e+00
2.206132760107987478e-01 4.521945763020497111e+00
2.219543901501955796e-01 4.386545458543238851e+00
2.232955042895924391e-01 3.872791664023836233e+00
2.246366184289892987e-01 3.399061744521873152e+00
2.259777325683861582e-01 3.828107279193645240e+00
2.273188467077830177e-01 3.680387998047265796e+00
2.286599608471798217e-01 3.505831467719303873e+00
2.300010749865766813e-01 3.354948633114858580e+00
2.313421891259735408e-01 3.410635594948956850e+00
2.326833032653704003e-01 2.740508999190012673e+00
2.340244174047672598e-01 2.408525690871726965e+00
2.353655315441641194e-01 2.654320311357082574e+00
2.367066456835609234e-01 2.375543194815989523e+00
2.380477598229577829e-01 1.978934410689390688e+00
2.393888739623546424e-01 2.609246415761944604e+00
2.407299881017515020e-01 2.617739212356681833e+00
2.420711022411483615e-01 2.130017716455796517e+00
2.434122163805451933e-01 2.732126257929436974e+00
2.447533305199420528e-01 2.680539267494609135e+00
2.460944446593389123e-01 2.709042374480731041e+00
2.474355587987357719e-01 2.577955395133770367e+00
2.487766729381326314e-01 2.881348621090424444e+00
2.501177870775294632e-01 3.028039717214213056e+00
2.514589012169263227e-01 3.263982616029679207e+00
2.528000153563231822e-01 2.809979596165973703e+00
2.541411294957200417e-01 3.136002745382000967e+00
2.554822436351169013e-01 4.081527524513973049e+00
2.568233577745137608e-01 3.915196363865661056e+00
2.581644719139106203e-01 3.601337933390112767e+00
2.595055860533074243e-01 3.591444442922650637e+00
2.608467001927042839e-01 4.172939092154891227e+00
2.621878143321011434e-01 3.945089788327607039e+00
2.635289284714980029e-01 3.695236819207551093e+00
2.648700426108948625e-01 3.877619923552515502e+00
2.662111567502916665e-01 3.881656759303851345e+00
2.675522708896885260e-01 4.042409954022303964e+00
2.688933850290853855e-01 3.975845553991049997e+00
2.702344991684822451e-01 4.321931693669952779e+00
2.715756133078791046e-01 4.762432237290624926e+00
2.729167274472759641e-01 4.511657163851239716e+00
2.742578415866727681e-01 4.344457690817549178e+00
2.755989557260696277e-01 4.956989169957310537e+00
2.769400698654664872e-01 5.618182972384303753e+00
2.782811840048633467e-01 5.574729244958518848e+00
2.796222981442602062e-01 5.170699316559463909e+00
2.809634122836570103e-01 5.064399997126557196e+00
2.823045264230538698e-01 5.471939457163003340e+00
2.836456405624507293e-01 5.447679664810920031e+00
2.849867547018475888e-01 5.327531252888022095e+00
2.863278688412444484e-01 5.499476607391002858e+00
2.876689829806413079e-01 5.158708243216096889e+00
2.890100971200381674e-01 5.477942521755664984e+00
2.903512112594350270e-01 5.324659394460056205e+00
2.916923253988318865e-01 5.425311747314324862e+00
2.930334395382287460e-01 5.474970029105875824e+00
2.943745536776256055e-01 5.301705833716766847e+00
2.957156678170224096e-01 5.574987785118011629e+00
2.970567819564192691e-01 5.617130004925058984e+00
2.983978960958161286e-01 4.933582823515266114e+00
2.997390102352129881e-01 5.134410257807104472e+00
3.010801243746098477e-01 5.396359267508245239e+00
3.024212385140067072e-01 5.273242204914268427e+00
3.037623526534035112e-01 5.535470447648037862e+00
3.051034667928003707e-01 5.361011891164650933e+00
3.064445809321972303e-01 5.253372375110117787e+00
3.077856950715940898e-01 4.862454084982203995e+00
3.091268092109909493e-01 4.765459339476194600e+00
3.104679233503877533e-01 4.982209321971595273e+00
3.118090374897846129e-01 5.203134446727389673e+00
3.131501516291814724e-01 4.966814019364704791e+00
3.144912657685783319e-01 4.847719001614137824e+00
3.158323799079751915e-01 4.663647971362536282e+00
3.171734940473720510e-01 4.290156420144640492e+00
3.185146081867689105e-01 4.457328759138334817e+00
3.198557223261657700e-01 4.891753262188224483e+00
3.211968364655626296e-01 4.827955619782855479e+00
3.225379506049594891e-01 4.640861410085506122e+00
3.238790647443563486e-01 4.385339576827441022e+00
3.252201788837532082e-01 4.115982282494698552e+00
3.265612930231500122e-01 4.218414865080575282e+00
3.279024071625468717e-01 3.994786073758831435e+00
3.292435213019437312e-01 3.717735211113421201e+00
3.305846354413405908e-01 3.570340440919750336e+00
3.319257495807374503e-01 3.607460255714478592e+00
3.332668637201342543e-01 3.708413296323719521e+00
3.346079778595311138e-01 3.507166014954570699e+00
3.359490919989279734e-01 3.262150735567296067e+00
3.372902061383248329e-01 3.724108352882694817e+00
3.386313202777216924e-01 4.033569852781916154e+00
3.399724344171185519e-01 3.346898230466813118e+00
3.413135485565153560e-01 3.143680235186913308e+00
3.426546626959122155e-01 2.780497039066034404e+00
3.439957768353090750e-01 2.587049079556585696e+00
3.453368909747059345e-01 2.652158658003770597e+00
3.466780051141027941e-01 2.680028203573755263e+00
3.480191192534995981e-01 2.712865201981379926e+00
3.493602333928964576e-01 2.308961758120865682e+00
3.507013475322933171e-01 2.430208100820820505e+00
3.520424616716901767e-01 2.990334667167935834e+00
3.533835758110870362e-01 2.426504252323603339e+00
3.547246899504838957e-01 1.838716887687404267e+00
3.560658040898807553e-01 1.980638889780792056e+00
3.574069182292776148e-01 2.264644796146228600e+00
3.587480323686744743e-01 2.380366410557797963e+00
3.600891465080713338e-01 2.548238396208795109e+00
3.614302606474681934e-01 2.334104824059636485e+00
3.627713747868649974e-01 2.052100074242851235e+00
3.641124889262618569e-01 1.936147347323647239e+00
3.654536030656587164e-01 1.973114336831585547e+00
3.667947172050555760e-01 1.794815500222213700e+00
3.681358313444524355e-01 1.679879363997123676e+00
3.694769454838492950e-01 1.442640336528484113e+00
3.708180596232460990e-01 1.371636169998431853e+00
3.721591737626429586e-01 1.626540231024804939e+00
3.735002879020398181e-01 1.645168649049118414e+00
3.748414020414366776e-01 1.461197610712389405e+00
3.761825161808335372e-01 1.311509518778848360e+00
3.775236303202303967e-01 1.191012993279784382e+00
3.788647444596272007e-01 9.599680733997431048e-01
3.802058585990240602e-01 1.059216219268769521e+00
3.815469727384209198e-01 6.944569732705687670e-01
3.828880868778177793e-01 7.335134186748177854e-01
3.842292010172146388e-01 1.125641818226981172e+00
3.855703151566114428e-01 7.991803567041202427e-01
3.869114292960083024e-01 9.570620489998020730e-01
3.882525434354051619e-01 7.935091063782522269e-01
3.895936575748020214e-01 5.265608465280138262e-01
3.909347717141988809e-01 1.236130864525335937e+00
3.922758858535957405e-01 9.155352739103932436e-01
3.936169999929926000e-01 8.180791485006722041e-01
3.949581141323894595e-01 6.241054424337448836e-01
3.962992282717863191e-01 6.545991682556575597e-01
3.976403424111831786e-01 6.264586707238279928e-01
3.989814565505800381e-01 8.132980468235757598e-01
4.003225706899768976e-01 7.010233246398129836e-01
4.016636848293737572e-01 8.459016013193974004e-01
4.030047989687706167e-01 8.093502228291455936e-01
4.043459131081674207e-01 5.003321205188555609e-01
4.056870272475643358e-01 5.535648935041805885e-01
4.070281413869611398e-01 4.435467664746184369e-01
4.083692555263580548e-01 8.154375594993936716e-01
4.097103696657548588e-01 9.527604036544943256e-01
4.110514838051517739e-01 7.490894989228209511e-01
4.123925979445485779e-01 5.361666096494417388e-01
4.137337120839453819e-01 7.597644961520941820e-01
4.150748262233422969e-01 4.669245717490824177e-01
4.164159403627391010e-01 6.103685919958081740e-01
4.177570545021360160e-01 1.111496915543284558e+00
4.190981686415328200e-01 8.261112625031330481e-01
4.204392827809296240e-01 8.204013106627456864e-01
4.217803969203265391e-01 8.233529207662400040e-01
4.231215110597233431e-01 5.984251904197037675e-01
4.244626251991202581e-01 4.399173328031054098e-01
4.258037393385170621e-01 5.299298963097598403e-01
4.271448534779138662e-01 7.947837708183840277e-01
4.284859676173107812e-01 9.305670917557975486e-01
4.298270817567075852e-01 8.174589135874796852e-01
4.311681958961045003e-01 1.414422870140320754e+00
4.325093100355013043e-01 1.496736047849715590e+00
4.338504241748981638e-01 1.334302098064640063e+00
4.351915383142950233e-01 8.454727614529886637e-01
4.365326524536918829e-01 7.920825010494070284e-01
4.378737665930887424e-01 8.439945048027581720e-01
4.392148807324856019e-01 7.751297447654792450e-01
4.405559948718824614e-01 7.514903144639504262e-01
4.418971090112793210e-01 9.381305185148889336e-01
4.432382231506761250e-01 7.150468525908948436e-01
4.445793372900730400e-01 6.547037671048840934e-01
4.459204514294698440e-01 7.105565284856893982e-01
4.472615655688667591e-01 6.136598086510929306e-01
4.486026797082635631e-01 7.576608197923775379e-01
4.499437938476603671e-01 7.459684573265761287e-01
4.512849079870572822e-01 8.013941179697425810e-01
4.526260221264540862e-01 1.060424792151373197e+00
4.539671362658510012e-01 6.758339517102029959e-01
4.553082504052478052e-01 6.164081595647274980e-01
4.566493645446446092e-01 8.227863923018787773e-01
4.579904786840415243e-01 1.056969658378349664e+00
4.593315928234383283e-01 6.362684094413566527e-01
4.606727069628352433e-01 8.843290641766614613e-01
4.620138211022320474e-01 9.217173596769683286e-01
4.633549352416289624e-01 8.071742077039374408e-01
4.646960493810257664e-01 9.608667637459973321e-01
4.660371635204225704e-01 1.015529843434933355e+00
4.673782776598194855e-01 8.266924522082348403e-01
4.687193917992162895e-01 1.123583769597125581e+00
4.700605059386132045e-01 1.186579923658385383e+00
4.714016200780100085e-01 9.369158139335240776e-01
4.727427342174068681e-01 7.364863130573056083e-01
4.740838483568037276e-01 9.511787993347411430e-01
4.754249624962005871e-01 1.105469931487562008e+00
4.767660766355974467e-01 8.654271812782354800e-01
4.781071907749943062e-01 6.955165584951501501e-01
4.794483049143911102e-01 1.126235160225675713e+00
4.807894190537880252e-01 9.545825674145831385e-01
4.821305331931848293e-01 4.992306138155200301e-01
4.834716473325817443e-01 8.848531588112606983e-01
4.848127614719785483e-01 1.000874766006830896e+00
4.861538756113753523e-01 6.973323947314824522e-01
4.874949897507722674e-01 9.562573946703238903e-01
4.888361038901690714e-01 1.289122989353217008e+00
4.901772180295659864e-01 9.308370601325606231e-01
4.915183321689627904e-01 6.350516892121689239e-01
4.928594463083597055e-01 7.931048390400405879e-01
4.942005604477565095e-01 8.764584663371977058e-01
4.955416745871533135e-01 7.514087486125546889e-01
4.968827887265502286e-01 8.390845170126866037e-01
4.982239028659470326e-01 9.541292473947109443e-01
4.995650170053439476e-01 9.373179634017674289e-01
5.009061311447408071e-01 1.095325287173089635e+00
5.022472452841375556e-01 4.161582534564445268e-01
5.035883594235345262e-01 3.872077995332503519e-01
5.049294735629312747e-01 6.335212032965742424e-01
5.062705877023282452e-01 9.960177272694323847e-01
5.076117018417249938e-01 7.903379169346251842e-01
5.089528159811218533e-01 6.056760485652787906e-01
5.102939301205187128e-01 5.086828299499117634e-01
5.116350442599155723e-01 3.442953558114822954e-01
5.129761583993124319e-01 3.317817027434983856e-01
5.143172725387092914e-01 8.515244626233240410e-01
5.156583866781061509e-01 7.419293695071900174e-01
5.169995008175030105e-01 5.361056071999072969e-01
5.183406149568997590e-01 4.613275093653257386e-01
5.196817290962967295e-01 6.382707240824814221e-01
5.210228432356934780e-01 3.774032470402772788e-01
5.223639573750904486e-01 3.626816049938810238e-01
5.237050715144871971e-01 4.892854666576624822e-01
5.250461856538840566e-01 4.906232296712573770e-01
5.263872997932809161e-01 4.169160068734427682e-01
5.277284139326777757e-01 3.734008660461540785e-02
5.290695280720746352e-01 1.670914817898605520e-01
5.304106422114714947e-01 3.293118478684675665e-01
5.317517563508683542e-01 5.792923045950928440e-01
5.330928704902652138e-01 6.667969981084169717e-01
5.344339846296620733e-01 4.161938718490176825e-01
5.357750987690589328e-01 3.624412956672387054e-01
5.371162129084557924e-01 4.847900083005143301e-01
5.384573270478525409e-01 5.811593387498135144e-01
5.397984411872495114e-01 7.587226959266786253e-01
5.411395553266462599e-01 4.825357518108930321e-01
5.424806694660432305e-01 3.803176036787832004e-01
5.438217836054399790e-01 3.781046399475300746e-01
5.451628977448369495e-01 4.829069453920951105e-01
5.465040118842336980e-01 5.725907645334018525e-01
5.478451260236305576e-01 2.913708373437700061e-01
5.491862401630274171e-01 2.155488708725457059e-01
5.505273543024242766e-01 3.822447664683110702e-01
5.518684684418211361e-01 8.558926475212302876e-01
5.532095825812179957e-01 6.661736100637867253e-01
5.545506967206147442e-01 3.313811168307054800e-01
