# q (1/Angstrom), Intensity (arb)
2.078726924066784734e-02 2.551752327371998774e+02
2.212838338006469993e-02 3.513982464438198576e+02
2.346949751946154905e-02 4.533454553170295185e+02
2.481061165885840164e-02 6.615346580954497995e+02
2.615172579825525423e-02 7.852625160622851581e+02
2.749283993765210335e-02 8.366923233054170623e+02
2.883395407704895941e-02 8.733915486041092890e+02
3.017506821644580506e-02 8.973340904438268808e+02
3.151618235584265765e-02 9.058782193922314718e+02
3.285729649523951718e-02 8.999034688847289090e+02
3.419841063463636283e-02 8.977542764214249473e+02
3.553952477403321542e-02 8.907739112358704006e+02
3.688063891343006800e-02 8.832928911978237920e+02
3.822175305282692059e-02 8.821456345823768288e+02
3.956286719222376624e-02 8.752560045808364748e+02
4.090398133162062577e-02 8.710283426313114887e+02
4.224509547101747142e-02 8.656744230488689027e+02
4.358620961041432401e-02 8.614830547847554953e+02
4.492732374981117660e-02 8.551527228786401338e+02
4.626843788920802919e-02 8.537264907663872009e+02
4.760955202860488178e-02 8.512714878294195842e+02
4.895066616800172743e-02 8.484760189276248639e+02
5.029178030739858696e-02 8.428066989737043286e+02
5.163289444679544649e-02 8.395048902817551379e+02
5.297400858619229214e-02 8.341700217103957584e+02
5.431512272558913779e-02 8.280690455900579536e+02
5.565623686498599731e-02 8.220912802777041861e+02
5.699735100438284990e-02 8.130391412368992405e+02
5.833846514377969555e-02 8.068168153089085308e+02
5.967957928317654814e-02 8.027085250561181056e+02
6.102069342257340767e-02 7.963713864287213937e+02
6.236180756197025332e-02 7.891854070260318395e+02
6.370292170136709897e-02 7.800106984639874099e+02
6.504403584076395850e-02 7.723925456275483157e+02
6.638514998016080415e-02 7.628338614048702766e+02
6.772626411955766368e-02 7.511170562874477810e+02
6.906737825895450933e-02 7.398054489593556582e+02
7.040849239835136886e-02 7.294439750083008676e+02
7.174960653774821451e-02 7.197283856606370591e+02
7.309072067714506016e-02 7.093130609580932742e+02
7.443183481654190581e-02 6.949348335334605054e+02
7.577294895593877921e-02 6.830808546808001438e+02
7.711406309533562486e-02 6.707774836804155711e+02
7.845517723473247051e-02 6.610749714442047207e+02
7.979629137412933004e-02 6.499958850259982910e+02
8.113740551352617569e-02 6.372213249758124221e+02
8.247851965292302134e-02 6.268033891555819537e+02
8.381963379231988087e-02 6.155606400330233328e+02
8.516074793171674040e-02 6.039081058878099384e+02
8.650186207111358605e-02 5.924322235097732801e+02
8.784297621051043170e-02 5.791478156394537109e+02
8.918409034990729123e-02 5.682450864647194066e+02
9.052520448930413688e-02 5.563839430096854812e+02
9.186631862870098253e-02 5.435249870673962960e+02
9.320743276809784206e-02 5.337004585236524008e+02
9.454854690749470159e-02 5.234242231611542593e+02
9.588966104689154724e-02 5.112883765793468456e+02
9.723077518628839289e-02 5.019669539292027594e+02
9.857188932568525241e-02 4.901528597525887676e+02
9.991300346508209806e-02 4.783999108394690438e+02
1.012541176044789437e-01 4.671149831196839841e+02
1.025952317438758032e-01 4.556864139366504673e+02
1.039363458832726350e-01 4.448664558527582358e+02
1.052774600226694945e-01 4.320995342349542625e+02
1.066185741620663541e-01 4.219390223236468387e+02
1.079596883014631858e-01 4.091831313457265082e+02
1.093008024408600454e-01 3.991966662489136866e+02
1.106419165802569049e-01 3.915539344164633917e+02
1.119830307196537506e-01 3.809837675387057061e+02
1.133241448590506101e-01 3.694637790327387847e+02
1.146652589984474419e-01 3.587136586701245733e+02
1.160063731378443014e-01 3.496186097863900386e+02
1.173474872772411609e-01 3.400476929525612491e+02
1.186886014166380066e-01 3.301625831071512494e+02
1.200297155560348661e-01 3.199429325972453171e+02
1.213708296954317256e-01 3.113160298558124168e+02
1.227119438348285574e-01 3.012414765434185142e+02
1.240530579742254169e-01 2.911923224744625713e+02
1.253941721136222764e-01 2.826994150295510053e+02
1.267352862530191082e-01 2.750148654539978565e+02
1.280764003924159677e-01 2.666072450091226074e+02
1.294175145318128273e-01 2.578425544463004826e+02
1.307586286712096590e-01 2.488056825989934850e+02
1.320997428106065186e-01 2.403967095667013041e+02
1.334408569500033781e-01 2.319656372610674566e+02
1.347819710894002376e-01 2.244679912309254917e+02
1.361230852287970972e-01 2.172898938539291294e+02
1.374641993681939289e-01 2.088532519819823392e+02
1.388053135075907885e-01 2.021842217432764812e+02
1.401464276469876480e-01 1.940458552395244567e+02
1.414875417863844798e-01 1.878585284571873899e+02
1.428286559257813393e-01 1.798534089765464046e+02
1.441697700651781988e-01 1.729086666311450813e+02
1.455108842045750306e-01 1.669367314820596846e+02
1.468519983439718901e-01 1.593946256777327335e+02
1.481931124833687219e-01 1.532420112604933422e+02
1.495342266227655814e-01 1.472465259134232838e+02
1.508753407621624687e-01 1.408639502704236008e+02
1.522164549015593005e-01 1.347606160504445256e+02
1.535575690409561600e-01 1.294401086652197819e+02
1.548986831803530195e-01 1.250583130458717847e+02
1.562397973197498513e-01 1.198420754328264763e+02
1.575809114591467108e-01 1.139512351949809812e+02
1.589220255985435704e-01 1.089230339596786763e+02
1.602631397379404021e-01 1.049942407699455487e+02
1.616042538773372617e-01 1.000320613451713001e+02
1.629453680167341212e-01 9.458266948551701603e+01
1.642864821561309530e-01 9.029082275096068599e+01
1.656275962955278125e-01 8.572423387377789084e+01
1.669687104349246720e-01 8.113236524046722309e+01
1.683098245743215315e-01 7.765380185070281982e+01
1.696509387137183911e-01 7.389272290251440722e+01
1.709920528531152228e-01 6.950638739470628025e+01
1.723331669925120824e-01 6.562686603307565747e+01
1.736742811319089419e-01 6.273432029037564917e+01
1.750153952713057737e-01 5.952502920448078783e+01
1.763565094107026332e-01 5.641663577213850544e+01
1.776976235500994927e-01 5.270485531129611445e+01
1.790387376894963245e-01 4.976607037434901315e+01
1.803798518288931840e-01 4.665591471304888671e+01
1.817209659682900158e-01 4.389847600881780920e+01
1.830620801076868753e-01 4.098040018441773213e+01
1.844031942470837349e-01 3.858127597312542889e+01
1.857443083864805944e-01 3.690932417185702263e+01
1.870854225258774539e-01 3.496200117347329694e+01
1.884265366652743134e-01 3.193239057279461690e+01
1.897676508046711452e-01 2.991101243994876313e+01
1.911087649440680047e-01 2.857503971249066410e+01
1.924498790834648643e-01 2.621059164091863636e+01
1.937909932228616960e-01 2.458602987357355119e+01
1.951321073622585556e-01 2.240848336282414266e+01
1.964732215016554151e-01 2.077881422246379373e+01
1.978143356410522469e-01 1.996713910281380322e+01
1.991554497804491064e-01 1.895261790030227189e+01
2.004965639198459382e-01 1.728734023424341615e+01
2.018376780592427977e-01 1.589428743573141389e+01
2.031787921986396572e-01 1.462323319832006518e+01
2.045199063380365168e-01 1.341245810226783419e+01
2.058610204774333763e-01 1.240520509148987571e+01
2.072021346168302081e-01 1.167480567650724765e+01
2.085432487562270676e-01 1.069265503736723133e+01
2.098843628956239271e-01 1.009117574949354434e+01
2.112254770350207866e-01 9.247687843423392451e+00
2.125665911744176462e-01 9.082827566958187049e+00
2.139077053138144502e-01 8.337918933449600445e+00
2.152488194532113097e-01 7.573621867319914713e+00
2.165899335926081692e-01 7.336657565689250760e+00
2.179310477320050288e-01 6.516302853509458259e+00
2.192721618714018883e-01 5.999318475593923949e+00
2.206132760107987478e-01 5.337202514812361187e+00
2.219543901501955796e-01 4.800146066913768550e+00
2.232955042895924391e-01 5.218172472664520001e+00
2.246366184289892987e-01 4.775364268899224385e+00
2.259777325683861582e-01 4.485524753584371638e+00
2.273188467077830177e-01 3.977588615488357959e+00
2.286599608471798217e-01 4.245975461559368114e+00
2.300010749865766813e-01 3.864376481096840621e+00
2.313421891259735408e-01 3.458668218183646559e+00
2.326833032653704003e-01 3.113579206025718804e+00
2.340244174047672598e-01 3.488864353056342793e+00
2.353655315441641194e-01 3.082712750293609361e+00
2.367066456835609234e-01 2.940134038702538533e+00
2.380477598229577829e-01 3.011178785653868317e+00
2.393888739623546424e-01 3.273641163725031333e+00
2.407299881017515020e-01 3.406958250627965867e+00
2.420711022411483615e-01 4.066775096559027247e+00
2.434122163805451933e-01 3.629509424900362546e+00
2.447533305199420528e-01 3.661511463519417475e+00
2.460944446593389123e-01 4.109933182633440651e+00
2.474355587987357719e-01 4.527426740505575253e+00
2.487766729381326314e-01 4.403295610178602715e+00
2.501177870775294632e-01 4.393078534666457813e+00
2.514589012169263227e-01 4.222782396374256564e+00
2.528000153563231822e-01 3.989266741642637726e+00
2.541411294957200417e-01 4.581646753867190114e+00
2.554822436351169013e-01 4.747843810890259419e+00
2.568233577745137608e-01 4.397612493501526387e+00
2.581644719139106203e-01 4.269290418862254910e+00
2.595055860533074243e-01 4.383167603174598526e+00
2.608467001927042839e-01 4.963156177285739545e+00
2.621878143321011434e-01 5.407057595377779080e+00
2.635289284714980029e-01 5.321491546895273927e+00
2.648700426108948625e-01 5.116442664515616912e+00
2.662111567502916665e-01 5.299216329094349476e+00
2.675522708896885260e-01 5.421691549199991300e+00
2.688933850290853855e-01 5.872497976854901935e+00
2.702344991684822451e-01 5.919540489361466484e+00
2.715756133078791046e-01 6.160878569819487893e+00
2.729167274472759641e-01 6.445427300913920021e+00
2.742578415866727681e-01 6.597715650748099847e+00
2.755989557260696277e-01 5.826934919614288333e+00
2.769400698654664872e-01 5.889362980111769730e+00
2.782811840048633467e-01 6.254028172568311561e+00
2.796222981442602062e-01 6.249026802885822462e+00
2.809634122836570103e-01 6.513519307264473923e+00
2.823045264230538698e-01 5.927014258550286741e+00
2.836456405624507293e-01 6.461616047297610521e+00
2.849867547018475888e-01 6.771625795505869405e+00
2.863278688412444484e-01 6.816808630792110080e+00
2.876689829806413079e-01 6.962501044074656420e+00
2.890100971200381674e-01 6.736040542924982333e+00
2.903512112594350270e-01 6.078593063895198156e+00
2.916923253988318865e-01 5.856407942632316121e+00
2.930334395382287460e-01 6.361018925508659549e+00
2.943745536776256055e-01 7.061106039293107983e+00
2.957156678170224096e-01 6.414489583022017882e+00
2.970567819564192691e-01 6.111768138721259902e+00
2.983978960958161286e-01 6.296274730877371439e+00
2.997390102352129881e-01 6.559785534630009352e+00
3.010801243746098477e-01 6.132683973207718964e+00
3.024212385140067072e-01 5.870620623192266407e+00
3.037623526534035112e-01 6.087235660847838403e+00
3.051034667928003707e-01 5.948070752875551648e+00
3.064445809321972303e-01 5.977351520070982360e+00
3.077856950715940898e-01 5.703453088169723628e+00
3.091268092109909493e-01 5.880785969222230847e+00
3.104679233503877533e-01 5.886621739313113721e+00
3.118090374897846129e-01 5.611149627446067711e+00
3.131501516291814724e-01 5.531195957078622882e+00
3.144912657685783319e-01 5.247578897045784174e+00
3.158323799079751915e-01 4.916380561581590314e+00
3.171734940473720510e-01 4.686691359781136157e+00
3.185146081867689105e-01 4.895489360819752278e+00
3.198557223261657700e-01 4.931846710345027418e+00
3.211968364655626296e-01 4.687033638356808751e+00
3.225379506049594891e-01 5.045240200099414096e+00
3.238790647443563486e-01 4.958125713379132549e+00
3.252201788837532082e-01 4.834790268701368632e+00
3.265612930231500122e-01 4.413950294273561781e+00
3.279024071625468717e-01 4.724203141041428466e+00
3.292435213019437312e-01 4.690197210172343034e+00
3.305846354413405908e-01 4.067839428028690918e+00
3.319257495807374503e-01 3.746441033317765346e+00
3.332668637201342543e-01 3.514217481411606059e+00
3.346079778595311138e-01 3.703479548929252019e+00
3.359490919989279734e-01 3.862396676679438201e+00
3.372902061383248329e-01 3.283671171045284609e+00
3.386313202777216924e-01 3.782756766321185182e+00
3.399724344171185519e-01 3.488301198092216282e+00
3.413135485565153560e-01 2.954311370646252044e+00
3.426546626959122155e-01 3.319288221377576065e+00
3.439957768353090750e-01 3.338651909403878904e+00
3.453368909747059345e-01 2.823627253519987335e+00
3.466780051141027941e-01 2.723171488536166862e+00
3.480191192534995981e-01 2.608918713255818034e+00
3.493602333928964576e-01 2.339874484162066892e+00
3.507013475322933171e-01 2.338510474991380761e+00
3.520424616716901767e-01 2.513921553682365584e+00
3.533835758110870362e-01 2.376738372735047733e+00
3.547246899504838957e-01 1.978125526908328879e+00
3.560658040898807553e-01 1.998147239987275725e+00
3.574069182292776148e-01 1.927050068805812089e+00
3.587480323686744743e-01 1.917975418718881997e+00
3.600891465080713338e-01 2.285266856386236611e+00
3.614302606474681934e-01 2.075410818368695232e+00
3.627713747868649974e-01 2.001065262686452684e+00
3.641124889262618569e-01 2.187088265765318340e+00
3.654536030656587164e-01 1.778323445128997093e+00
3.667947172050555760e-01 1.282804079583179657e+00
3.681358313444524355e-01 1.633087538538532613e+00
3.694769454838492950e-01 1.541357060271991486e+00
3.708180596232460990e-01 1.690027067210969847e+00
3.721591737626429586e-01 1.562468421108633265e+00
3.735002879020398181e-01 1.472333936936763621e+00
3.748414020414366776e-01 1.171228755624170503e+00
3.761825161808335372e-01 1.377385002096524147e+00
3.775236303202303967e-01 1.520391223414186754e+00
3.788647444596272007e-01 1.494246497945916019e+00
3.802058585990240602e-01 1.314867983421194708e+00
3.815469727384209198e-01 1.686418490827904293e+00
3.828880868778177793e-01 1.503019632137387873e+00
3.842292010172146388e-01 7.866526617557809686e-01
3.855703151566114428e-01 1.247386577008803954e+00
3.869114292960083024e-01 1.132554518139230026e+00
3.882525434354051619e-01 7.648481450463719966e-01
3.895936575748020214e-01 6.747558098348704902e-01
3.909347717141988809e-01 8.777514877900500778e-01
3.922758858535957405e-01 1.010054757286539484e+00
3.936169999929926000e-01 1.230284818230757082e+00
3.949581141323894595e-01 6.589399359260212918e-01
3.962992282717863191e-01 1.062084233023306012e+00
3.976403424111831786e-01 1.166885862059515944e+00
3.989814565505800381e-01 1.025840569190791030e+00
4.003225706899768976e-01 7.731364605905284293e-01
4.016636848293737572e-01 6.295042611738637106e-01
4.030047989687706167e-01 8.531885136377397316e-01
4.043459131081674207e-01 7.606025478508016135e-01
4.056870272475643358e-01 8.541488811929198732e-01
4.070281413869611398e-01 6.018744834263074495e-01
4.083692555263580548e-01 7.769982568041982063e-01
4.097103696657548588e-01 9.922636756501361788e-01
4.110514838051517739e-01 9.797543054876740598e-01
4.123925979445485779e-01 5.934118799507714925e-01
4.137337120839453819e-01 4.888006449760382566e-01
4.150748262233422969e-01 6.075891895263865194e-01
4.164159403627391010e-01 4.392264791481466091e-01
4.177570545021360160e-01 6.584911623548848070e-01
4.190981686415328200e-01 7.739758185762468656e-01
4.204392827809296240e-01 5.711455835895478117e-01
4.217803969203265391e-01 6.676672683384126117e-01
4.231215110597233431e-01 5.469307990168061906e-01
4.244626251991202581e-01 6.250453598687002454e-01
4.258037393385170621e-01 9.993470974230973525e-01
4.271448534779138662e-01 9.515313506542497635e-01
4.284859676173107812e-01 1.063995484822619630e+00
4.298270817567075852e-01 9.890092052783217014e-01
4.311681958961045003e-01 9.982921765421508553e-01
4.325093100355013043e-01 8.928285708798355813e-01
4.338504241748981638e-01 1.023844684209770151e+00
4.351915383142950233e-01 9.524676503845768138e-01
4.365326524536918829e-01 1.079631259960223133e+00
4.378737665930887424e-01 9.401730898780940038e-01
4.392148807324856019e-01 6.781197437189661059e-01
4.405559948718824614e-01 5.804066342304921022e-01
4.418971090112793210e-01 1.049169966725060021e+00
4.432382231506761250e-01 1.048497656556492075e+00
4.445793372900730400e-01 6.776026186404919827e-01
4.459204514294698440e-01 6.941522333234289022e-01
4.472615655688667591e-01 1.265609728189751593e+00
4.486026797082635631e-01 9.505393236093553355e-01
4.499437938476603671e-01 8.409367245682943803e-01
4.512849079870572822e-01 9.196602610054753768e-01
4.526260221264540862e-01 1.271637635027936142e+00
4.539671362658510012e-01 1.252197499735885344e+00
4.553082504052478052e-01 1.039362877393095630e+00
4.566493645446446092e-01 6.095987669625060335e-01
4.579904786840415243e-01 5.904014376304544953e-01
4.593315928234383283e-01 8.835241425871771526e-01
4.606727069628352433e-01 8.525225623727479274e-01
4.620138211022320474e-01 5.458093280643723233e-01
4.633549352416289624e-01 4.714470452990155991e-01
4.646960493810257664e-01 5.509972279580139798e-01
4.660371635204225704e-01 9.802132932018281508e-01
4.673782776598194855e-01 1.375592652441774533e+00
4.687193917992162895e-01 1.345682600472834167e+00
4.700605059386132045e-01 1.331630009727881259e+00
4.714016200780100085e-01 7.309725038895322768e-01
4.727427342174068681e-01 7.879012809143475238e-01
4.740838483568037276e-01 9.273504824637868182e-01
4.754249624962005871e-01 9.409021510993724746e-01
4.767660766355974467e-01 9.280686764567462887e-01
4.781071907749943062e-01 1.084200116292144855e+00
4.794483049143911102e-01 9.994784135227661181e-01
4.807894190537880252e-01 5.861941608966816375e-01
4.821305331931848293e-01 7.988702595297567655e-01
4.834716473325817443e-01 7.765702151239111117e-01
4.848127614719785483e-01 6.544634362167727204e-01
4.861538756113753523e-01 9.180638338737878712e-01
4.874949897507722674e-01 1.143885931435463021e+00
4.888361038901690714e-01 1.069209890042657207e+00
4.901772180295659864e-01 8.655205125047800152e-01
4.915183321689627904e-01 5.244228373534980392e-01
4.928594463083597055e-01 5.512580985389234911e-01
4.942005604477565095e-01 8.129317264377888819e-01
4.955416745871533135e-01 8.281837166734646871e-01
4.968827887265502286e-01 8.749267824759812129e-01
4.982239028659470326e-01 7.389475539499343881e-01
4.995650170053439476e-01 8.530974149757639680e-01
5.009061311447408071e-01 9.590525052958867036e-01
5.022472452841375556e-01 5.486832998817448015e-01
5.035883594235345262e-01 5.125003103128378257e-01
5.049294735629312747e-01 7.413748567531825984e-01
5.062705877023282452e-01 7.607082103754052582e-01
5.076117018417249938e-01 8.030748910565534970e-01
5.089528159811218533e-01 5.217781274937962621e-01
5.102939301205187128e-01 5.374430617719099246e-01
5.116350442599155723e-01 5.138626840853248723e-01
5.129761583993124319e-01 3.373282342162937653e-01
5.143172725387092914e-01 2.739078183871299643e-01
5.156583866781061509e-01 6.545071920834999446e-02
5.169995008175030105e-01 2.006547285230624311e-01
5.183406149568997590e-01 3.996265678350070516e-01
5.196817290962967295e-01 5.107657241864487219e-01
5.210228432356934780e-01 3.593436745276576971e-01
5.223639573750904486e-01 4.956490542037812475e-01
5.237050715144871971e-01 3.421694844989815465e-01
5.250461856538840566e-01 2.031197100973543002e-01
5.263872997932809161e-01 5.674908385956598522e-01
5.277284139326777757e-01 9.682945033151284520e-01
5.290695280720746352e-01 6.637273082432173510e-01
5.304106422114714947e-01 8.866663521464843711e-01
5.317517563508683542e-01 7.641913129111159719e-01
5.330928704902652138e-01 4.683672943806200806e-01
5.344339846296620733e-01 3.283771813088378622e-01
5.357750987690589328e-01 3.277799805365546604e-01
5.371162129084557924e-01 7.062420004334128976e-01
5.384573270478525409e-01 4.680883543953271442e-01
5.397984411872495114e-01 5.961587373572712067e-01
5.411395553266462599e-01 6.137919189263598696e-01
5.424806694660432305e-01 5.110158839621377069e-01
5.438217836054399790e-01 4.594166190575066366e-01
5.451628977448369495e-01 5.616214015620855093e-01
5.465040118842336980e-01 2.843014839081234868e-01
5.478451260236305576e-01 4.349926968454482790e-01
5.491862401630274171e-01 3.345765378353675601e-01
5.505273543024242766e-01 1.860122362305887123e-01
5.518684684418211361e-01 1.065599179746428149e-01
5.532095825812179957e-01 1.479370689955885609e-01
5.545506967206147442e-01 2.960195903871678524e-01
