# q (1/Angstrom), Intensity (arb)
2.078726924066784734e-02 6.877850600094097899e+01
2.212838338006469993e-02 1.312324431603776134e+02
2.346949751946154905e-02 1.864789004498833833e+02
2.481061165885840164e-02 2.444672701948254030e+02
2.615172579825525423e-02 2.671874270674879881e+02
2.749283993765210335e-02 2.745390070911814746e+02
2.883395407704895941e-02 2.804423887648467826e+02
3.017506821644580506e-02 2.841774332743831906e+02
3.151618235584265765e-02 2.821613019132674935e+02
3.285729649523951718e-02 2.795085545368521593e+02
3.419841063463636283e-02 2.766231380963281481e+02
3.553952477403321542e-02 2.730973778074384199e+02
3.688063891343006800e-02 2.697652617880678463e+02
3.822175305282692059e-02 2.678228123287797189e+02
3.956286719222376624e-02 2.620352183878525807e+02
4.090398133162062577e-02 2.595489915443661744e+02
4.224509547101747142e-02 2.595879907469344516e+02
4.358620961041432401e-02 2.558999376630768552e+02
4.492732374981117660e-02 2.537801063674742750e+02
4.626843788920802919e-02 2.547089765285759029e+02
4.760955202860488178e-02 2.535282657616421034e+02
4.895066616800172743e-02 2.512366424657835751e+02
5.029178030739858696e-02 2.482293003415701946e+02
5.163289444679544649e-02 2.477435370361888829e+02
5.297400858619229214e-02 2.464544400139070603e+02
5.431512272558913779e-02 2.458872303460594537e+02
5.565623686498599731e-02 2.466384269178393822e+02
5.699735100438284990e-02 2.423231396867651313e+02
5.833846514377969555e-02 2.417665638567559654e+02
5.967957928317654814e-02 2.413329475599194609e+02
6.102069342257340767e-02 2.392042445694340245e+02
6.236180756197025332e-02 2.368311360311771807e+02
6.370292170136709897e-02 2.366369838396600755e+02
6.504403584076395850e-02 2.367525985775635604e+02
6.638514998016080415e-02 2.342888702853990139e+02
6.772626411955766368e-02 2.309388999121675852e+02
6.906737825895450933e-02 2.296697250006511695e+02
7.040849239835136886e-02 2.282440415930329891e+02
7.174960653774821451e-02 2.235996305951139504e+02
7.309072067714506016e-02 2.218413394411030595e+02
7.443183481654190581e-02 2.200674013785805982e+02
7.577294895593877921e-02 2.176824981421964367e+02
7.711406309533562486e-02 2.155817262281177591e+02
7.845517723473247051e-02 2.134001329869194876e+02
7.979629137412933004e-02 2.113010304610511980e+02
8.113740551352617569e-02 2.078876471956737078e+02
8.247851965292302134e-02 2.065357056349385516e+02
8.381963379231988087e-02 2.050093568277220868e+02
8.516074793171674040e-02 2.022986827984285583e+02
8.650186207111358605e-02 1.983997601617142266e+02
8.784297621051043170e-02 1.953843138589143109e+02
8.918409034990729123e-02 1.942741227533487631e+02
9.052520448930413688e-02 1.927823559344105604e+02
9.186631862870098253e-02 1.903617262585764252e+02
9.320743276809784206e-02 1.867457117199562049e+02
9.454854690749470159e-02 1.829481166710575621e+02
9.588966104689154724e-02 1.814531497130176092e+02
9.723077518628839289e-02 1.801668156783123891e+02
9.857188932568525241e-02 1.763819408814833309e+02
9.991300346508209806e-02 1.732694074930202532e+02
1.012541176044789437e-01 1.707833540666175054e+02
1.025952317438758032e-01 1.692605632423198472e+02
1.039363458832726350e-01 1.671356385208578956e+02
1.052774600226694945e-01 1.649553830920430642e+02
1.066185741620663541e-01 1.629503865118938393e+02
1.079596883014631858e-01 1.601136387087572075e+02
1.093008024408600454e-01 1.572667122062502472e+02
1.106419165802569049e-01 1.549757833596645469e+02
1.119830307196537506e-01 1.527082522705167094e+02
1.133241448590506101e-01 1.510880609010197304e+02
1.146652589984474419e-01 1.473121941817610150e+02
1.160063731378443014e-01 1.443098116657414209e+02
1.173474872772411609e-01 1.426836906541484495e+02
1.186886014166380066e-01 1.406957030955628056e+02
1.200297155560348661e-01 1.372469007923883453e+02
1.213708296954317256e-01 1.345113029497953505e+02
1.227119438348285574e-01 1.330781813403721117e+02
1.240530579742254169e-01 1.312417645054529771e+02
1.253941721136222764e-01 1.284479223387077411e+02
1.267352862530191082e-01 1.259957498862632832e+02
1.280764003924159677e-01 1.240037106739050330e+02
1.294175145318128273e-01 1.204730146390282073e+02
1.307586286712096590e-01 1.184321992151955101e+02
1.320997428106065186e-01 1.160027789564218068e+02
1.334408569500033781e-01 1.146097637417764616e+02
1.347819710894002376e-01 1.114214246091540446e+02
1.361230852287970972e-01 1.092907807444408235e+02
1.374641993681939289e-01 1.081487797429122821e+02
1.388053135075907885e-01 1.059046270318698646e+02
1.401464276469876480e-01 1.031440847125784899e+02
1.414875417863844798e-01 1.014507602976126037e+02
1.428286559257813393e-01 1.001034011946323403e+02
1.441697700651781988e-01 9.803265944345781691e+01
1.455108842045750306e-01 9.498434996473926617e+01
1.468519983439718901e-01 9.166482348726793816e+01
1.481931124833687219e-01 8.974162027091688287e+01
1.495342266227655814e-01 8.833044020515765737e+01
1.508753407621624687e-01 8.717946126782203464e+01
1.522164549015593005e-01 8.461953626247785110e+01
1.535575690409561600e-01 8.305112908437135388e+01
1.548986831803530195e-01 8.080819883453401076e+01
1.562397973197498513e-01 7.866863840993333667e+01
1.575809114591467108e-01 7.726903659359332721e+01
1.589220255985435704e-01 7.565167706996348329e+01
1.602631397379404021e-01 7.302148756497220461e+01
1.616042538773372617e-01 7.069981436537696595e+01
1.629453680167341212e-01 6.916747658975253898e+01
1.642864821561309530e-01 6.718449416632272175e+01
1.656275962955278125e-01 6.638868318257222256e+01
1.669687104349246720e-01 6.450718819503083523e+01
1.683098245743215315e-01 6.271978041279233196e+01
1.696509387137183911e-01 6.135374410579370874e+01
1.709920528531152228e-01 5.903696506769874475e+01
1.723331669925120824e-01 5.727297934103178534e+01
1.736742811319089419e-01 5.588152626697664971e+01
1.750153952713057737e-01 5.441602115990976074e+01
1.763565094107026332e-01 5.329937879379278343e+01
1.776976235500994927e-01 5.124496326095233201e+01
1.790387376894963245e-01 4.952258369020648843e+01
1.803798518288931840e-01 4.859442244981691772e+01
1.817209659682900158e-01 4.712880168786095680e+01
1.830620801076868753e-01 4.602903311161675504e+01
1.844031942470837349e-01 4.481067505828808351e+01
1.857443083864805944e-01 4.323831177637282508e+01
1.870854225258774539e-01 4.121409401461912125e+01
1.884265366652743134e-01 3.956785031090772975e+01
1.897676508046711452e-01 3.894584872145445331e+01
1.911087649440680047e-01 3.809706883322499493e+01
1.924498790834648643e-01 3.641814937747962233e+01
1.937909932228616960e-01 3.563912252041183137e+01
1.951321073622585556e-01 3.438560888195594600e+01
1.964732215016554151e-01 3.388479591224961496e+01
1.978143356410522469e-01 3.254855097007975928e+01
1.991554497804491064e-01 3.067392760314558586e+01
2.004965639198459382e-01 2.948265302817449651e+01
2.018376780592427977e-01 2.884751765499443366e+01
2.031787921986396572e-01 2.824823329491462687e+01
2.045199063380365168e-01 2.690578299066797285e+01
2.058610204774333763e-01 2.604238176276929551e+01
2.072021346168302081e-01 2.493380913964116985e+01
2.085432487562270676e-01 2.467423315004037931e+01
2.098843628956239271e-01 2.383347186577989874e+01
2.112254770350207866e-01 2.316316299556442004e+01
2.125665911744176462e-01 2.205845727723233551e+01
2.139077053138144502e-01 2.068946996733643573e+01
2.152488194532113097e-01 1.991709339661684908e+01
2.165899335926081692e-01 1.952861451178020502e+01
2.179310477320050288e-01 1.882153016869371243e+01
2.192721618714018883e-01 1.782599437289599109e+01
2.206132760107987478e-01 1.714505341665775973e+01
2.219543901501955796e-01 1.686134839461560375e+01
2.232955042895924391e-01 1.604581752599749223e+01
2.246366184289892987e-01 1.528431003515596842e+01
2.259777325683861582e-01 1.479985170917845494e+01
2.273188467077830177e-01 1.401841309137569169e+01
2.286599608471798217e-01 1.362758847545278229e+01
2.300010749865766813e-01 1.279331469159629364e+01
2.313421891259735408e-01 1.237344985147728949e+01
2.326833032653704003e-01 1.212526997767911041e+01
2.340244174047672598e-01 1.179091531441525831e+01
2.353655315441641194e-01 1.088658024510037592e+01
2.367066456835609234e-01 1.065411067012435353e+01
2.380477598229577829e-01 1.006997050076064681e+01
2.393888739623546424e-01 9.511429012869484723e+00
2.407299881017515020e-01 8.920040115473511833e+00
2.420711022411483615e-01 8.652632002592945071e+00
2.434122163805451933e-01 8.622618167038432091e+00
2.447533305199420528e-01 8.009741126254226629e+00
2.460944446593389123e-01 7.309608598429313986e+00
2.474355587987357719e-01 7.288415705049871463e+00
2.487766729381326314e-01 7.059587886773982746e+00
2.501177870775294632e-01 6.649444050828151376e+00
2.514589012169263227e-01 6.011230688660099020e+00
2.528000153563231822e-01 5.589547996597758583e+00
2.541411294957200417e-01 4.927138359578371762e+00
2.554822436351169013e-01 4.872531576387522989e+00
2.568233577745137608e-01 5.253497332402453424e+00
2.581644719139106203e-01 5.329966453700336615e+00
2.595055860533074243e-01 4.612560821179428672e+00
2.608467001927042839e-01 4.620287224933207426e+00
2.621878143321011434e-01 4.759112988098593178e+00
2.635289284714980029e-01 4.370956873797744890e+00
2.648700426108948625e-01 3.776434850465520299e+00
2.662111567502916665e-01 3.975040512015084460e+00
2.675522708896885260e-01 4.017390306498207053e+00
2.688933850290853855e-01 3.804833867227273458e+00
2.702344991684822451e-01 3.517212578112072663e+00
2.715756133078791046e-01 3.002568015407000246e+00
2.729167274472759641e-01 2.872394073088322841e+00
2.742578415866727681e-01 2.829287582091005504e+00
2.755989557260696277e-01 2.892522348406295407e+00
2.769400698654664872e-01 2.689968298630923016e+00
2.782811840048633467e-01 2.331070951397663293e+00
2.796222981442602062e-01 2.354869096336926759e+00
2.809634122836570103e-01 2.571382566490207466e+00
2.823045264230538698e-01 2.029963501401084613e+00
2.836456405624507293e-01 2.388202837086645047e+00
2.849867547018475888e-01 2.045497168666258858e+00
2.863278688412444484e-01 2.272982618106603070e+00
2.876689829806413079e-01 2.502109645790348225e+00
2.890100971200381674e-01 2.040682419650202917e+00
2.903512112594350270e-01 2.232376257369601547e+00
2.916923253988318865e-01 2.262552653846803707e+00
2.930334395382287460e-01 2.141210822093626120e+00
2.943745536776256055e-01 2.080276784966720527e+00
2.957156678170224096e-01 2.001004325680369789e+00
2.970567819564192691e-01 1.984456687277138087e+00
2.983978960958161286e-01 1.825869455459283586e+00
2.997390102352129881e-01 2.062191918570547955e+00
3.010801243746098477e-01 2.088541695547746713e+00
3.024212385140067072e-01 2.087274345778396878e+00
3.037623526534035112e-01 1.845079815701154757e+00
3.051034667928003707e-01 1.798158102608333309e+00
3.064445809321972303e-01 2.007264283311769759e+00
3.077856950715940898e-01 1.547989662328447480e+00
3.091268092109909493e-01 1.460820395149525552e+00
3.104679233503877533e-01 1.998446653386537264e+00
3.118090374897846129e-01 2.029689779992573051e+00
3.131501516291814724e-01 2.013907928650297663e+00
3.144912657685783319e-01 1.917205081488340568e+00
3.158323799079751915e-01 2.116708881974481926e+00
3.171734940473720510e-01 1.954175919672465511e+00
3.185146081867689105e-01 1.190878372511072314e+00
3.198557223261657700e-01 1.676812003410951490e+00
3.211968364655626296e-01 1.698150688535982056e+00
3.225379506049594891e-01 1.418781674252365121e+00
3.238790647443563486e-01 1.382023652985786555e+00
3.252201788837532082e-01 1.754118493048203220e+00
3.265612930231500122e-01 1.676553408520696564e+00
3.279024071625468717e-01 2.021457469985683986e+00
3.292435213019437312e-01 2.027111969158511329e+00
3.305846354413405908e-01 2.123094588331056798e+00
3.319257495807374503e-01 1.609173828148669827e+00
3.332668637201342543e-01 1.712524623194873641e+00
3.346079778595311138e-01 1.782163487498046095e+00
3.359490919989279734e-01 1.822847467422477052e+00
3.372902061383248329e-01 1.950857763542799717e+00
3.386313202777216924e-01 2.182142524711935039e+00
3.399724344171185519e-01 1.871742111989803448e+00
3.413135485565153560e-01 2.192052524778368650e+00
3.426546626959122155e-01 1.637647799252675895e+00
3.439957768353090750e-01 1.643837401615876104e+00
3.453368909747059345e-01 1.699090836006391214e+00
3.466780051141027941e-01 1.814824125509957753e+00
3.480191192534995981e-01 1.668549617981639699e+00
3.493602333928964576e-01 1.733664281605150848e+00
3.507013475322933171e-01 2.011678969857570110e+00
3.520424616716901767e-01 1.530942151880410051e+00
3.533835758110870362e-01 1.679277898820629389e+00
3.547246899504838957e-01 1.598581213167243220e+00
3.560658040898807553e-01 1.368561858422459920e+00
3.574069182292776148e-01 1.361610711997435885e+00
3.587480323686744743e-01 1.684107062665987087e+00
3.600891465080713338e-01 2.151955606194555060e+00
3.614302606474681934e-01 1.789644524159520245e+00
3.627713747868649974e-01 1.321131763290999572e+00
3.641124889262618569e-01 1.795419366591090693e+00
3.654536030656587164e-01 1.772706396240842253e+00
3.667947172050555760e-01 2.094747022361580946e+00
3.681358313444524355e-01 2.195731782630772955e+00
3.694769454838492950e-01 2.500799067965715494e+00
3.708180596232460990e-01 2.094420879507090660e+00
3.721591737626429586e-01 1.881081821599799753e+00
3.735002879020398181e-01 1.789995889845613419e+00
3.748414020414366776e-01 2.142402776799229969e+00
3.761825161808335372e-01 1.874413870397908966e+00
3.775236303202303967e-01 2.084393181463759959e+00
3.788647444596272007e-01 1.817762318521538134e+00
3.802058585990240602e-01 1.555606419836763621e+00
3.815469727384209198e-01 1.684943339872063461e+00
3.828880868778177793e-01 1.758250758329246821e+00
3.842292010172146388e-01 2.115633818726074367e+00
3.855703151566114428e-01 1.799336624630115011e+00
3.869114292960083024e-01 1.835446773222898287e+00
3.882525434354051619e-01 1.908040210017247773e+00
3.895936575748020214e-01 1.969802994863762535e+00
3.909347717141988809e-01 1.489778422761624199e+00
3.922758858535957405e-01 1.318493701026334008e+00
3.936169999929926000e-01 1.991720139668089473e+00
3.949581141323894595e-01 1.704256693951940349e+00
3.962992282717863191e-01 1.644703795769459020e+00
3.976403424111831786e-01 1.894173534204185216e+00
3.989814565505800381e-01 1.925446367805569992e+00
4.003225706899768976e-01 1.723409908942379332e+00
4.016636848293737572e-01 1.697765662220319882e+00
4.030047989687706167e-01 1.255789974569140099e+00
4.043459131081674207e-01 1.253860486830177479e+00
4.056870272475643358e-01 1.572537076196390160e+00
4.070281413869611398e-01 1.795917207548505701e+00
4.083692555263580548e-01 2.107597683898731589e+00
4.097103696657548588e-01 1.984737493527028107e+00
4.110514838051517739e-01 1.951020358956014888e+00
4.123925979445485779e-01 1.859475336365463249e+00
4.137337120839453819e-01 1.502271645742389694e+00
4.150748262233422969e-01 1.544305610766990355e+00
4.164159403627391010e-01 1.514427221441174254e+00
4.177570545021360160e-01 1.739969838882601039e+00
4.190981686415328200e-01 1.537319947579383950e+00
4.204392827809296240e-01 1.347408242751676255e+00
4.217803969203265391e-01 1.170175677806426506e+00
4.231215110597233431e-01 1.305921760039154833e+00
4.244626251991202581e-01 1.527886192536236365e+00
4.258037393385170621e-01 1.535919675972742482e+00
4.271448534779138662e-01 1.457468050320578357e+00
4.284859676173107812e-01 1.322708999144211361e+00
4.298270817567075852e-01 1.370944618473536991e+00
4.311681958961045003e-01 1.135157650946474917e+00
4.325093100355013043e-01 1.426553240512404841e+00
4.338504241748981638e-01 1.378128174526658256e+00
4.351915383142950233e-01 1.075261646527991388e+00
4.365326524536918829e-01 1.418173867185835491e+00
4.378737665930887424e-01 1.612199663260632576e+00
4.392148807324856019e-01 1.493744386942736924e+00
4.405559948718824614e-01 1.351683697410265950e+00
4.418971090112793210e-01 1.325993546165584291e+00
4.432382231506761250e-01 1.007369246575670729e+00
4.445793372900730400e-01 1.166236505463700723e+00
4.459204514294698440e-01 1.173813282264504210e+00
4.472615655688667591e-01 1.207959199605909362e+00
4.486026797082635631e-01 1.238474991411059989e+00
4.499437938476603671e-01 1.278498453548259306e+00
4.512849079870572822e-01 1.071009358519667387e+00
4.526260221264540862e-01 1.076338228229914762e+00
4.539671362658510012e-01 9.135072536931403420e-01
4.553082504052478052e-01 7.709627743757963003e-01
4.566493645446446092e-01 8.241158871502065608e-01
4.579904786840415243e-01 8.337502005013774919e-01
4.593315928234383283e-01 4.831405578015761648e-01
4.606727069628352433e-01 8.009460075214036578e-01
4.620138211022320474e-01 8.906680959762596217e-01
4.633549352416289624e-01 8.325074047808911359e-01
4.646960493810257664e-01 8.886834457167651635e-01
4.660371635204225704e-01 1.095259003545322685e+00
4.673782776598194855e-01 7.926848383312474766e-01
4.687193917992162895e-01 9.859259002608595779e-01
4.700605059386132045e-01 8.434650818559106256e-01
4.714016200780100085e-01 8.496887540958724117e-01
4.727427342174068681e-01 7.854546097772470148e-01
4.740838483568037276e-01 5.013350444077886436e-01
4.754249624962005871e-01 3.914747298413345789e-01
4.767660766355974467e-01 7.506593210386327542e-01
4.781071907749943062e-01 7.049374115368536309e-01
4.794483049143911102e-01 5.249597654115731871e-01
4.807894190537880252e-01 7.911009009500062916e-01
4.821305331931848293e-01 8.290356772362486026e-01
4.834716473325817443e-01 9.013493701572343753e-01
4.848127614719785483e-01 8.326965695905599318e-01
4.861538756113753523e-01 6.213029643711465155e-01
4.874949897507722674e-01 3.321130177211770729e-01
4.888361038901690714e-01 7.820482099732473102e-01
4.901772180295659864e-01 7.511860693205179018e-01
4.915183321689627904e-01 7.680361123433385728e-01
4.928594463083597055e-01 8.200584934083607891e-01
4.942005604477565095e-01 6.379070232532129126e-01
4.955416745871533135e-01 5.982703723590034883e-01
4.968827887265502286e-01 8.519888212017789897e-01
4.982239028659470326e-01 7.476650724875852916e-01
4.995650170053439476e-01 7.927515049298108352e-01
5.009061311447408071e-01 3.805532806161835424e-01
5.022472452841375556e-01 2.654352751975537217e-01
5.035883594235345262e-01 6.875733809222026593e-01
5.049294735629312747e-01 7.183331988165093662e-01
5.062705877023282452e-01 6.981386461942022947e-01
5.076117018417249938e-01 4.356811659399895120e-01
5.089528159811218533e-01 5.150856329509068132e-01
5.102939301205187128e-01 8.027364201830238244e-01
5.116350442599155723e-01 8.131653087650789757e-01
5.129761583993124319e-01 5.948086505396545931e-01
5.143172725387092914e-01 2.070036266230061983e-01
5.156583866781061509e-01 1.835119046766422457e-01
5.169995008175030105e-01 5.818102829946312227e-01
5.183406149568997590e-01 7.857563231240050072e-01
5.196817290962967295e-01 7.192708212292018288e-01
5.210228432356934780e-01 5.078894996692966401e-01
5.223639573750904486e-01 5.877370445954994693e-01
5.237050715144871971e-01 7.776191184957781388e-01
5.250461856538840566e-01 5.622167771131856284e-01
5.263872997932809161e-01 6.321789918501252714e-01
5.277284139326777757e-01 7.003458730176035374e-01
5.290695280720746352e-01 6.224136756730160869e-01
5.304106422114714947e-01 7.918419820567095258e-01
5.317517563508683542e-01 7.180081714327357645e-01
5.330928704902652138e-01 5.777733921699237385e-01
5.344339846296620733e-01 5.082740054296266408e-01
5.357750987690589328e-01 6.585304410972199207e-01
5.371162129084557924e-01 6.854048103631669164e-01
5.384573270478525409e-01 5.770261931263078736e-01
5.397984411872495114e-01 4.379093745470328258e-01
5.411395553266462599e-01 2.612013619323079183e-01
5.424806694660432305e-01 2.424530091103918039e-01
5.438217836054399790e-01 2.184529503148056051e-01
5.451628977448369495e-01 2.004244199911724422e-01
5.465040118842336980e-01 1.936611501075375941e-01
5.478451260236305576e-01 2.010733311422185920e-01
5.491862401630274171e-01 2.629633016189245609e-01
5.505273543024242766e-01 2.956528338291946056e-01
5.518684684418211361e-01 3.484852366199717721e-01
5.532095825812179957e-01 3.867193901108691989e-01
5.545506967206147442e-01 5.269665334143098789e-01
