# q (1/Angstrom), Intensity (arb)
2.078726924066784734e-02 1.491976973507140656e+02
2.212838338006469993e-02 2.663226773861530887e+02
2.346949751946154905e-02 3.890987804463728708e+02
2.481061165885840164e-02 5.266290887727349173e+02
2.615172579825525423e-02 5.965068255292582080e+02
2.749283993765210335e-02 6.235986720799338627e+02
2.883395407704895941e-02 6.484098132513083783e+02
3.017506821644580506e-02 6.598249180484417593e+02
3.151618235584265765e-02 6.631802609843151686e+02
3.285729649523951718e-02 6.626300796211974102e+02
3.419841063463636283e-02 6.603513592186184269e+02
3.553952477403321542e-02 6.586389373132024048e+02
3.688063891343006800e-02 6.528801141408333706e+02
3.822175305282692059e-02 6.483190060333848805e+02
3.956286719222376624e-02 6.464411028584271435e+02
4.090398133162062577e-02 6.428349290892901990e+02
4.224509547101747142e-02 6.417325167487350654e+02
4.358620961041432401e-02 6.369471587567710458e+02
4.492732374981117660e-02 6.311261542859435849e+02
4.626843788920802919e-02 6.298658826281896381e+02
4.760955202860488178e-02 6.312972435823344313e+02
4.895066616800172743e-02 6.273472521729910341e+02
5.029178030739858696e-02 6.244393072879774991e+02
5.163289444679544649e-02 6.235505345062185825e+02
5.297400858619229214e-02 6.206198727118528495e+02
5.431512272558913779e-02 6.184976569469276910e+02
5.565623686498599731e-02 6.155792150408558427e+02
5.699735100438284990e-02 6.089381193866458943e+02
5.833846514377969555e-02 6.062763174389740470e+02
5.967957928317654814e-02 6.024225158342497934e+02
6.102069342257340767e-02 5.984991087628122841e+02
6.236180756197025332e-02 5.937211842295283759e+02
6.370292170136709897e-02 5.900224623976179146e+02
6.504403584076395850e-02 5.852540948742956743e+02
6.638514998016080415e-02 5.797120996091587131e+02
6.772626411955766368e-02 5.726892195255694560e+02
6.906737825895450933e-02 5.650643794525088879e+02
7.040849239835136886e-02 5.595798324272531090e+02
7.174960653774821451e-02 5.515568371517083506e+02
7.309072067714506016e-02 5.446077764354400870e+02
7.443183481654190581e-02 5.392495030152471145e+02
7.577294895593877921e-02 5.321581172906866186e+02
7.711406309533562486e-02 5.242350573836810099e+02
7.845517723473247051e-02 5.187633835969486427e+02
7.979629137412933004e-02 5.089212686732839757e+02
8.113740551352617569e-02 5.005891314026811756e+02
8.247851965292302134e-02 4.938226116768819907e+02
8.381963379231988087e-02 4.875466039624529344e+02
8.516074793171674040e-02 4.804554761548882880e+02
8.650186207111358605e-02 4.729544033733973265e+02
8.784297621051043170e-02 4.658747971169547100e+02
8.918409034990729123e-02 4.551795212163983706e+02
9.052520448930413688e-02 4.479241873382333097e+02
9.186631862870098253e-02 4.397663931258305183e+02
9.320743276809784206e-02 4.334806116898796517e+02
9.454854690749470159e-02 4.274696626315583217e+02
9.588966104689154724e-02 4.202087758717549377e+02
9.723077518628839289e-02 4.132179045565222850e+02
9.857188932568525241e-02 4.043537141814715596e+02
9.991300346508209806e-02 3.961254663181955493e+02
1.012541176044789437e-01 3.903078879788806717e+02
1.025952317438758032e-01 3.835100262801693134e+02
1.039363458832726350e-01 3.764559288068121532e+02
1.052774600226694945e-01 3.688332900057755523e+02
1.066185741620663541e-01 3.603474658510741619e+02
1.079596883014631858e-01 3.517553391784648511e+02
1.093008024408600454e-01 3.466651697214848582e+02
1.106419165802569049e-01 3.395519958853981848e+02
1.119830307196537506e-01 3.319933098953968056e+02
1.133241448590506101e-01 3.253549185492624360e+02
1.146652589984474419e-01 3.169866230585686822e+02
1.160063731378443014e-01 3.101056036173932284e+02
1.173474872772411609e-01 3.023994860391607062e+02
1.186886014166380066e-01 2.970267536942470201e+02
1.200297155560348661e-01 2.908340648979045113e+02
1.213708296954317256e-01 2.824273851842302179e+02
1.227119438348285574e-01 2.763429470016886853e+02
1.240530579742254169e-01 2.708140237696860027e+02
1.253941721136222764e-01 2.640209447024552674e+02
1.267352862530191082e-01 2.563600266759200395e+02
1.280764003924159677e-01 2.493068590883635807e+02
1.294175145318128273e-01 2.430138532663386854e+02
1.307586286712096590e-01 2.373814291238104772e+02
1.320997428106065186e-01 2.314725447677375598e+02
1.334408569500033781e-01 2.263357313222320499e+02
1.347819710894002376e-01 2.199748917249946771e+02
1.361230852287970972e-01 2.135350770493223536e+02
1.374641993681939289e-01 2.078457017670743880e+02
1.388053135075907885e-01 2.022724859867335567e+02
1.401464276469876480e-01 1.980159017742590493e+02
1.414875417863844798e-01 1.911524054151710743e+02
1.428286559257813393e-01 1.842710177464539640e+02
1.441697700651781988e-01 1.796857499551181832e+02
1.455108842045750306e-01 1.746663008862198865e+02
1.468519983439718901e-01 1.684756556473427622e+02
1.481931124833687219e-01 1.635814673051934562e+02
1.495342266227655814e-01 1.598891535873869429e+02
1.508753407621624687e-01 1.544407465650088511e+02
1.522164549015593005e-01 1.496791331134090228e+02
1.535575690409561600e-01 1.443951670452862572e+02
1.548986831803530195e-01 1.390461648939431711e+02
1.562397973197498513e-01 1.345383970000531804e+02
1.575809114591467108e-01 1.303042979131177788e+02
1.589220255985435704e-01 1.264806004561021098e+02
1.602631397379404021e-01 1.224133520448987014e+02
1.616042538773372617e-01 1.178649987603045730e+02
1.629453680167341212e-01 1.129802635673044904e+02
1.642864821561309530e-01 1.086745111024142858e+02
1.656275962955278125e-01 1.044961961733621081e+02
1.669687104349246720e-01 1.004865265060216615e+02
1.683098245743215315e-01 9.717293593000393059e+01
1.696509387137183911e-01 9.431577524351220632e+01
1.709920528531152228e-01 9.022610455466642065e+01
1.723331669925120824e-01 8.723418077496226886e+01
1.736742811319089419e-01 8.308684522397737737e+01
1.750153952713057737e-01 7.950395247464496151e+01
1.763565094107026332e-01 7.696022918662121981e+01
1.776976235500994927e-01 7.353976352904955149e+01
1.790387376894963245e-01 6.917947952604748707e+01
1.803798518288931840e-01 6.676920386463547175e+01
1.817209659682900158e-01 6.485618795835101480e+01
1.830620801076868753e-01 6.268867842521640910e+01
1.844031942470837349e-01 6.024441581743303686e+01
1.857443083864805944e-01 5.713173775370540852e+01
1.870854225258774539e-01 5.370983564787302100e+01
1.884265366652743134e-01 5.081926370542394977e+01
1.897676508046711452e-01 4.779085399853856586e+01
1.911087649440680047e-01 4.592535803320841126e+01
1.924498790834648643e-01 4.487272354198672986e+01
1.937909932228616960e-01 4.215916350770598342e+01
1.951321073622585556e-01 3.974075366843206325e+01
1.964732215016554151e-01 3.796184182705812304e+01
1.978143356410522469e-01 3.568017673596150985e+01
1.991554497804491064e-01 3.439615871664176439e+01
2.004965639198459382e-01 3.344436609908876790e+01
2.018376780592427977e-01 3.162118524968130373e+01
2.031787921986396572e-01 2.963193537353234319e+01
2.045199063380365168e-01 2.809865758620615850e+01
2.058610204774333763e-01 2.650903046499307436e+01
2.072021346168302081e-01 2.456423796434707185e+01
2.085432487562270676e-01 2.371767924996017030e+01
2.098843628956239271e-01 2.219385286459763051e+01
2.112254770350207866e-01 2.105025364395191900e+01
2.125665911744176462e-01 1.978123208524463905e+01
2.139077053138144502e-01 1.841045934302694320e+01
2.152488194532113097e-01 1.662532224624811761e+01
2.165899335926081692e-01 1.639044557058937812e+01
2.179310477320050288e-01 1.544538586644893030e+01
2.192721618714018883e-01 1.462940224539379130e+01
2.206132760107987478e-01 1.378245709171349631e+01
2.219543901501955796e-01 1.237145794761806883e+01
2.232955042895924391e-01 1.124811987960357840e+01
2.246366184289892987e-01 1.043371030718374470e+01
2.259777325683861582e-01 9.925690366679887688e+00
2.273188467077830177e-01 9.820735501601248529e+00
2.286599608471798217e-01 9.116852907335115219e+00
2.300010749865766813e-01 8.050428512158958938e+00
2.313421891259735408e-01 7.426198336848543136e+00
2.326833032653704003e-01 6.364507075224310029e+00
2.340244174047672598e-01 5.977845345411225253e+00
2.353655315441641194e-01 6.156138505621598256e+00
2.367066456835609234e-01 6.089885503416581969e+00
2.380477598229577829e-01 5.395936778078535667e+00
2.393888739623546424e-01 4.813845152920123383e+00
2.407299881017515020e-01 4.100264417678843643e+00
2.420711022411483615e-01 3.117722987589914396e+00
2.434122163805451933e-01 3.789087706108162479e+00
2.447533305199420528e-01 3.347055205992433002e+00
2.460944446593389123e-01 3.033584614762290244e+00
2.474355587987357719e-01 3.143862608769651956e+00
2.487766729381326314e-01 2.651771918744287859e+00
2.501177870775294632e-01 2.472651798721955174e+00
2.514589012169263227e-01 2.673668369135938860e+00
2.528000153563231822e-01 2.491325699114923964e+00
2.541411294957200417e-01 2.424493822143261923e+00
2.554822436351169013e-01 2.421923738263117798e+00
2.568233577745137608e-01 2.082024451795476239e+00
2.581644719139106203e-01 2.189867015933714356e+00
2.595055860533074243e-01 1.696736241528668643e+00
2.608467001927042839e-01 1.352642977777307465e+00
2.621878143321011434e-01 1.538034121048113434e+00
2.635289284714980029e-01 1.905610759312025948e+00
2.648700426108948625e-01 2.333887164680604087e+00
2.662111567502916665e-01 2.105989055559305712e+00
2.675522708896885260e-01 2.274206192707183050e+00
2.688933850290853855e-01 1.990648947559790827e+00
2.702344991684822451e-01 2.145901631649081764e+00
2.715756133078791046e-01 1.863807352236804604e+00
2.729167274472759641e-01 1.341097723304770284e+00
2.742578415866727681e-01 1.670649246580538261e+00
2.755989557260696277e-01 2.301667438753383976e+00
2.769400698654664872e-01 2.313113827324954741e+00
2.782811840048633467e-01 2.428974164486831455e+00
2.796222981442602062e-01 2.504473486297413842e+00
2.809634122836570103e-01 2.903661375039817472e+00
2.823045264230538698e-01 2.674896042685929842e+00
2.836456405624507293e-01 2.911906919945906225e+00
2.849867547018475888e-01 2.699883236262806463e+00
2.863278688412444484e-01 3.092110093751145428e+00
2.876689829806413079e-01 2.153903848432307200e+00
2.890100971200381674e-01 1.913884553459212157e+00
2.903512112594350270e-01 2.638425637393751799e+00
2.916923253988318865e-01 3.156355511851572260e+00
2.930334395382287460e-01 3.501536115745039979e+00
2.943745536776256055e-01 2.790865855569720111e+00
2.957156678170224096e-01 3.035242025126294152e+00
2.970567819564192691e-01 3.257013107145354525e+00
2.983978960958161286e-01 2.931611964366069856e+00
2.997390102352129881e-01 2.830680751948690954e+00
3.010801243746098477e-01 3.145461189369427757e+00
3.024212385140067072e-01 3.169570963502494010e+00
3.037623526534035112e-01 3.333135318942439085e+00
3.051034667928003707e-01 3.444319676030659139e+00
3.064445809321972303e-01 3.800869991170259254e+00
3.077856950715940898e-01 3.745290862797588716e+00
3.091268092109909493e-01 3.571420135420794395e+00
3.104679233503877533e-01 3.852594426257326177e+00
3.118090374897846129e-01 4.129053211836307469e+00
3.131501516291814724e-01 3.670142899398214809e+00
3.144912657685783319e-01 3.378306812071826926e+00
3.158323799079751915e-01 4.066866243384524182e+00
3.171734940473720510e-01 4.075447385109555398e+00
3.185146081867689105e-01 4.208323139152170711e+00
3.198557223261657700e-01 4.482485411585940938e+00
3.211968364655626296e-01 3.751432855000672362e+00
3.225379506049594891e-01 3.743394931415963356e+00
3.238790647443563486e-01 3.584023415382716848e+00
3.252201788837532082e-01 3.732973608512125452e+00
3.265612930231500122e-01 3.808441726334677924e+00
3.279024071625468717e-01 3.805833691515530859e+00
3.292435213019437312e-01 3.944720953288594956e+00
3.305846354413405908e-01 4.075424229439462920e+00
3.319257495807374503e-01 4.261136765103714197e+00
3.332668637201342543e-01 3.944092684223505785e+00
3.346079778595311138e-01 3.929367888688020116e+00
3.359490919989279734e-01 3.141541018628117854e+00
3.372902061383248329e-01 3.223756797278781505e+00
3.386313202777216924e-01 3.859693819122185232e+00
3.399724344171185519e-01 3.654891850863435820e+00
3.413135485565153560e-01 3.835534430823813068e+00
3.426546626959122155e-01 3.567878561170374496e+00
3.439957768353090750e-01 3.238655077839283081e+00
3.453368909747059345e-01 3.397723305003665928e+00
3.466780051141027941e-01 3.285672688107780459e+00
3.480191192534995981e-01 3.597578548326907821e+00
3.493602333928964576e-01 3.950375366031323665e+00
3.507013475322933171e-01 3.230724021321236705e+00
3.520424616716901767e-01 3.061631560476456571e+00
3.533835758110870362e-01 2.697652032891483032e+00
3.547246899504838957e-01 3.209451926746879735e+00
3.560658040898807553e-01 3.446953360683735923e+00
3.574069182292776148e-01 2.947465946957237293e+00
3.587480323686744743e-01 2.780075299876003214e+00
3.600891465080713338e-01 2.841266376619643097e+00
3.614302606474681934e-01 2.516725728750671465e+00
3.627713747868649974e-01 2.805465306389521629e+00
3.641124889262618569e-01 2.561987601451193086e+00
3.654536030656587164e-01 2.468471085640558726e+00
3.667947172050555760e-01 2.643860892171851162e+00
3.681358313444524355e-01 2.427414782067295107e+00
3.694769454838492950e-01 2.130702387813649068e+00
3.708180596232460990e-01 2.262958772956778830e+00
3.721591737626429586e-01 2.501746788883174588e+00
3.735002879020398181e-01 2.709811362490320619e+00
3.748414020414366776e-01 2.471133874210721615e+00
3.761825161808335372e-01 2.565901436178876338e+00
3.775236303202303967e-01 2.045431081592653300e+00
3.788647444596272007e-01 1.810954982376152600e+00
3.802058585990240602e-01 1.842267249557956177e+00
3.815469727384209198e-01 2.022715183612206147e+00
3.828880868778177793e-01 2.095694709597417216e+00
3.842292010172146388e-01 1.626634857314179783e+00
3.855703151566114428e-01 1.597029964282796755e+00
3.869114292960083024e-01 1.510287856653143024e+00
3.882525434354051619e-01 2.162679990514668305e+00
3.895936575748020214e-01 1.675343652670505890e+00
3.909347717141988809e-01 1.331243785364634391e+00
3.922758858535957405e-01 1.234974057462686403e+00
3.936169999929926000e-01 1.349947209018765193e+00
3.949581141323894595e-01 1.484476654668782203e+00
3.962992282717863191e-01 1.800442740744372827e+00
3.976403424111831786e-01 1.361444634462266379e+00
3.989814565505800381e-01 1.201217260971368717e+00
4.003225706899768976e-01 1.458925229939069368e+00
4.016636848293737572e-01 1.211915032286704275e+00
4.030047989687706167e-01 1.128348817029269924e+00
4.043459131081674207e-01 1.067934374808736209e+00
4.056870272475643358e-01 1.325706491481895455e+00
4.070281413869611398e-01 1.385297172921710285e+00
4.083692555263580548e-01 1.248313045373762975e+00
4.097103696657548588e-01 1.247949917612736215e+00
4.110514838051517739e-01 1.034256316126928255e+00
4.123925979445485779e-01 9.777280867535864672e-01
4.137337120839453819e-01 6.325408294187795377e-01
4.150748262233422969e-01 1.007497575583229832e+00
4.164159403627391010e-01 8.027321640257696345e-01
4.177570545021360160e-01 6.582758899387783913e-01
4.190981686415328200e-01 9.859204713431495293e-01
4.204392827809296240e-01 7.325493688671684822e-01
4.217803969203265391e-01 9.641564549386103522e-01
4.231215110597233431e-01 1.109014562175808294e+00
4.244626251991202581e-01 8.884402731614926552e-01
4.258037393385170621e-01 6.230488572024981409e-01
4.271448534779138662e-01 5.223479289187693553e-01
4.284859676173107812e-01 4.549318947240834632e-01
4.298270817567075852e-01 5.198965777305986080e-01
4.311681958961045003e-01 4.085778294275499434e-01
4.325093100355013043e-01 4.093556700160618789e-01
4.338504241748981638e-01 7.126686303679505841e-01
4.351915383142950233e-01 4.963441893890703227e-01
4.365326524536918829e-01 5.350072197527140361e-01
4.378737665930887424e-01 3.874896054226510955e-01
4.392148807324856019e-01 6.233666577767351669e-01
4.405559948718824614e-01 3.979991630818631165e-01
4.418971090112793210e-01 4.337942834717267715e-01
4.432382231506761250e-01 1.919981559979220265e-01
4.445793372900730400e-01 2.745909805758728339e-01
4.459204514294698440e-01 3.647780815883550076e-01
4.472615655688667591e-01 2.118153002841722810e-01
4.486026797082635631e-01 6.948788045547260595e-01
4.499437938476603671e-01 5.085396045104175755e-01
4.512849079870572822e-01 6.503115757113064888e-01
4.526260221264540862e-01 9.440668015110560418e-01
4.539671362658510012e-01 6.949957308599366002e-01
4.553082504052478052e-01 4.189189788934726266e-01
4.566493645446446092e-01 2.905347691367552443e-01
4.579904786840415243e-01 3.311237388630416945e-01
4.593315928234383283e-01 4.616699209518628777e-01
4.606727069628352433e-01 4.343894808610713199e-01
4.620138211022320474e-01 3.199377159158274253e-01
4.633549352416289624e-01 4.397791075459949184e-01
4.646960493810257664e-01 4.375971070637518778e-01
4.660371635204225704e-01 5.458552512451788630e-01
4.673782776598194855e-01 7.450342143597126210e-01
4.687193917992162895e-01 5.601426890878329345e-01
4.700605059386132045e-01 3.797055115545830972e-01
4.714016200780100085e-01 3.686357440421872411e-01
4.727427342174068681e-01 1.408193771459451682e-01
4.740838483568037276e-01 1.744653421737325516e-01
4.754249624962005871e-01 5.206701272345384268e-01
4.767660766355974467e-01 1.106755925337893132e+00
4.781071907749943062e-01 1.121932615137154698e+00
4.794483049143911102e-01 7.198675473590228080e-01
4.807894190537880252e-01 5.420691672125244054e-01
4.821305331931848293e-01 8.857579272069173726e-01
4.834716473325817443e-01 1.176946482718769005e+00
4.848127614719785483e-01 1.073066985589342437e+00
4.861538756113753523e-01 7.079159084267701019e-01
4.874949897507722674e-01 5.566814773514678905e-01
4.888361038901690714e-01 5.343624598300706907e-01
4.901772180295659864e-01 2.738293546984280624e-01
4.915183321689627904e-01 5.666413471525828527e-01
4.928594463083597055e-01 4.308998246211857008e-01
4.942005604477565095e-01 7.671373732942043944e-01
4.955416745871533135e-01 6.927532820133919245e-01
4.968827887265502286e-01 4.831133008427954678e-01
4.982239028659470326e-01 4.331297121882755619e-01
4.995650170053439476e-01 4.495369036935557006e-01
5.009061311447408071e-01 5.999521089752164471e-01
5.022472452841375556e-01 5.050241167424616151e-01
5.035883594235345262e-01 2.817618125869785217e-01
5.049294735629312747e-01 3.498792563937627165e-01
5.062705877023282452e-01 8.143161161857008778e-01
5.076117018417249938e-01 1.039381464150544332e+00
5.089528159811218533e-01 9.260273175957181024e-01
5.102939301205187128e-01 4.914943367340924851e-01
5.116350442599155723e-01 4.203165214149819917e-01
5.129761583993124319e-01 4.018996940432515430e-01
5.143172725387092914e-01 5.555501548837966652e-01
5.156583866781061509e-01 9.065248095427307362e-01
5.169995008175030105e-01 9.190597337881385442e-01
5.183406149568997590e-01 7.338826700955962679e-01
5.196817290962967295e-01 5.110936957860943153e-01
5.210228432356934780e-01 4.834525148840214115e-01
5.223639573750904486e-01 8.321545659025204600e-01
5.237050715144871971e-01 6.238903271146583052e-01
5.250461856538840566e-01 7.357043002211014482e-01
5.263872997932809161e-01 5.345002174264692485e-01
5.277284139326777757e-01 6.147195761120300972e-01
5.290695280720746352e-01 4.976828587884796207e-01
5.304106422114714947e-01 7.410939942373104827e-01
5.317517563508683542e-01 8.851973432099811134e-01
5.330928704902652138e-01 6.813327702598783731e-01
5.344339846296620733e-01 6.977235476195531305e-01
5.357750987690589328e-01 8.672056758967556789e-01
5.371162129084557924e-01 1.117375186486043503e+00
5.384573270478525409e-01 9.182473819649246138e-01
5.397984411872495114e-01 8.720737179855220234e-01
5.411395553266462599e-01 9.754511213936964964e-01
5.424806694660432305e-01 4.665718750874461307e-01
5.438217836054399790e-01 2.345096388416010313e-01
5.451628977448369495e-01 4.466640027622048592e-01
5.465040118842336980e-01 3.003881927384242090e-01
5.478451260236305576e-01 1.056998925803966927e-01
5.491862401630274171e-01 2.171950923888346097e-01
5.505273543024242766e-01 2.979557478185910213e-01
5.518684684418211361e-01 2.567469183763364526e-01
5.532095825812179957e-01 5.819822277922739318e-01
5.545506967206147442e-01 5.051140651890975164e-01
