# q (1/Angstrom), Intensity (arb)
2.078726924066784734e-02 1.489711954616266780e+02
2.212838338006469993e-02 2.665884770218442554e+02
2.346949751946154905e-02 3.876291976311426879e+02
2.481061165885840164e-02 5.311253422974251635e+02
2.615172579825525423e-02 5.959749758331241765e+02
2.749283993765210335e-02 6.212880572082467552e+02
2.883395407704895941e-02 6.438714600081805202e+02
3.017506821644580506e-02 6.605453750424428563e+02
3.151618235584265765e-02 6.612918893355613363e+02
3.285729649523951718e-02 6.630292175073342378e+02
3.419841063463636283e-02 6.600195462715795429e+02
3.553952477403321542e-02 6.531051176882762093e+02
3.688063891343006800e-02 6.510368746659087265e+02
3.822175305282692059e-02 6.450743767167869009e+02
3.956286719222376624e-02 6.411319643023626895e+02
4.090398133162062577e-02 6.385763054295928214e+02
4.224509547101747142e-02 6.367087564830194424e+02
4.358620961041432401e-02 6.311088014078699189e+02
4.492732374981117660e-02 6.269659846996224815e+02
4.626843788920802919e-02 6.320245308393001551e+02
4.760955202860488178e-02 6.336729174674655951e+02
4.895066616800172743e-02 6.305812488800096389e+02
5.029178030739858696e-02 6.242982588965916193e+02
5.163289444679544649e-02 6.214476510999899119e+02
5.297400858619229214e-02 6.207985100301278862e+02
5.431512272558913779e-02 6.190271105672726435e+02
5.565623686498599731e-02 6.131285047182598191e+02
5.699735100438284990e-02 6.077924864606853816e+02
5.833846514377969555e-02 6.037957760263342379e+02
5.967957928317654814e-02 6.010097205097022197e+02
6.102069342257340767e-02 5.957161305619272298e+02
6.236180756197025332e-02 5.918241411783728836e+02
6.370292170136709897e-02 5.879387374594872426e+02
6.504403584076395850e-02 5.838633674292050273e+02
6.638514998016080415e-02 5.807548339214166617e+02
6.772626411955766368e-02 5.732191746700797239e+02
6.906737825895450933e-02 5.642212231196506309e+02
7.040849239835136886e-02 5.560815983572579171e+02
7.174960653774821451e-02 5.498631818866942922e+02
7.309072067714506016e-02 5.451813008626951387e+02
7.443183481654190581e-02 5.369180748457408754e+02
7.577294895593877921e-02 5.309508375802548699e+02
7.711406309533562486e-02 5.247570969696018892e+02
7.845517723473247051e-02 5.166984003554936180e+02
7.979629137412933004e-02 5.083771919694245298e+02
8.113740551352617569e-02 5.022482833509701550e+02
8.247851965292302134e-02 4.933138673620662757e+02
8.381963379231988087e-02 4.862433302483233888e+02
8.516074793171674040e-02 4.768782101298821203e+02
8.650186207111358605e-02 4.693024360879742289e+02
8.784297621051043170e-02 4.632627268963691449e+02
8.918409034990729123e-02 4.569875603097608519e+02
9.052520448930413688e-02 4.487340901416899328e+02
9.186631862870098253e-02 4.418514993314242929e+02
9.320743276809784206e-02 4.357710607621063446e+02
9.454854690749470159e-02 4.266117970524141469e+02
9.588966104689154724e-02 4.187048998804415874e+02
9.723077518628839289e-02 4.111553538105585517e+02
9.857188932568525241e-02 4.027646047851914091e+02
9.991300346508209806e-02 3.964336021324106696e+02
1.012541176044789437e-01 3.912656007738342510e+02
1.025952317438758032e-01 3.818255119004334119e+02
1.039363458832726350e-01 3.743522091684731095e+02
1.052774600226694945e-01 3.666582734754203443e+02
1.066185741620663541e-01 3.601803892721396778e+02
1.079596883014631858e-01 3.539747694275342837e+02
1.093008024408600454e-01 3.475526985694547761e+02
1.106419165802569049e-01 3.392539744295772266e+02
1.119830307196537506e-01 3.324066331421572613e+02
1.133241448590506101e-01 3.236038789410812342e+02
1.146652589984474419e-01 3.158133162298032630e+02
1.160063731378443014e-01 3.102469252508534510e+02
1.173474872772411609e-01 3.047144515298336955e+02
1.186886014166380066e-01 2.975516769026502857e+02
1.200297155560348661e-01 2.898792505921703082e+02
1.213708296954317256e-01 2.806665943466833255e+02
1.227119438348285574e-01 2.740966927456215672e+02
1.240530579742254169e-01 2.681035145342500527e+02
1.253941721136222764e-01 2.622740386575692355e+02
1.267352862530191082e-01 2.558302668949023655e+02
1.280764003924159677e-01 2.499869289931468757e+02
1.294175145318128273e-01 2.432059212137202735e+02
1.307586286712096590e-01 2.367387246077698251e+02
1.320997428106065186e-01 2.298013653875484579e+02
1.334408569500033781e-01 2.246915225211250799e+02
1.347819710894002376e-01 2.201656667929232185e+02
1.361230852287970972e-01 2.137968644826035529e+02
1.374641993681939289e-01 2.070149205101479879e+02
1.388053135075907885e-01 2.008276976237045233e+02
1.401464276469876480e-01 1.955179352698704633e+02
1.414875417863844798e-01 1.888935575558513165e+02
1.428286559257813393e-01 1.852835304802262044e+02
1.441697700651781988e-01 1.796781289805389576e+02
1.455108842045750306e-01 1.744701447354460981e+02
1.468519983439718901e-01 1.701737919965031551e+02
1.481931124833687219e-01 1.647769869547067287e+02
1.495342266227655814e-01 1.591908504758509935e+02
1.508753407621624687e-01 1.539957773571464941e+02
1.522164549015593005e-01 1.482952423830038242e+02
1.535575690409561600e-01 1.443037120031517304e+02
1.548986831803530195e-01 1.394744872308531285e+02
1.562397973197498513e-01 1.355431880160782043e+02
1.575809114591467108e-01 1.298333946196254374e+02
1.589220255985435704e-01 1.250200842165284030e+02
1.602631397379404021e-01 1.210176411059218538e+02
1.616042538773372617e-01 1.170172554102938705e+02
1.629453680167341212e-01 1.122521837122908295e+02
1.642864821561309530e-01 1.083344559573225183e+02
1.656275962955278125e-01 1.051920130743075532e+02
1.669687104349246720e-01 1.018069493860778181e+02
1.683098245743215315e-01 9.796674689508606093e+01
1.696509387137183911e-01 9.375451330032284147e+01
1.709920528531152228e-01 9.011854212700801270e+01
1.723331669925120824e-01 8.616163736866465683e+01
1.736742811319089419e-01 8.322655356607650390e+01
1.750153952713057737e-01 8.020730646754660143e+01
1.763565094107026332e-01 7.734894469581338683e+01
1.776976235500994927e-01 7.351154578232757331e+01
1.790387376894963245e-01 6.987028477601376153e+01
1.803798518288931840e-01 6.734852682535439783e+01
1.817209659682900158e-01 6.420410251483031061e+01
1.830620801076868753e-01 6.162596298934251138e+01
1.844031942470837349e-01 5.891748188032572386e+01
1.857443083864805944e-01 5.681713797074080219e+01
1.870854225258774539e-01 5.404147655130648786e+01
1.884265366652743134e-01 5.179522312374051296e+01
1.897676508046711452e-01 4.897423227475016461e+01
1.911087649440680047e-01 4.703289816325546724e+01
1.924498790834648643e-01 4.398565132235135877e+01
1.937909932228616960e-01 4.163577164399298169e+01
1.951321073622585556e-01 3.998227019332686893e+01
1.964732215016554151e-01 3.771552198869500216e+01
1.978143356410522469e-01 3.633400702516344438e+01
1.991554497804491064e-01 3.459172198919080188e+01
2.004965639198459382e-01 3.250346638780337116e+01
2.018376780592427977e-01 3.053852064876261352e+01
2.031787921986396572e-01 2.907700217201303872e+01
2.045199063380365168e-01 2.806922687703055885e+01
2.058610204774333763e-01 2.673452557458408307e+01
2.072021346168302081e-01 2.559649489033951397e+01
2.085432487562270676e-01 2.380405495020137607e+01
2.098843628956239271e-01 2.154947213525183258e+01
2.112254770350207866e-01 2.056292024410933550e+01
2.125665911744176462e-01 1.910071962071181417e+01
2.139077053138144502e-01 1.838600509385284454e+01
2.152488194532113097e-01 1.733458552286765553e+01
2.165899335926081692e-01 1.615000547260027020e+01
2.179310477320050288e-01 1.533252085820311095e+01
2.192721618714018883e-01 1.417695630050980071e+01
2.206132760107987478e-01 1.338348170735126530e+01
2.219543901501955796e-01 1.249135908674139728e+01
2.232955042895924391e-01 1.133613709219807220e+01
2.246366184289892987e-01 1.028012848039843163e+01
2.259777325683861582e-01 1.062741389544611081e+01
2.273188467077830177e-01 9.877419379925157727e+00
2.286599608471798217e-01 9.005372327111601294e+00
2.300010749865766813e-01 8.087624430502728501e+00
2.313421891259735408e-01 7.634207142031073090e+00
2.326833032653704003e-01 6.755066907151004330e+00
2.340244174047672598e-01 6.304964442759555254e+00
2.353655315441641194e-01 6.197482793750793917e+00
2.367066456835609234e-01 5.920843664647080118e+00
2.380477598229577829e-01 5.289682378644073424e+00
2.393888739623546424e-01 5.070405838839505464e+00
2.407299881017515020e-01 4.780671914025418801e+00
2.420711022411483615e-01 3.944653365181082449e+00
2.434122163805451933e-01 3.769379002855174576e+00
2.447533305199420528e-01 3.690560746714453444e+00
2.460944446593389123e-01 3.832811731848593695e+00
2.474355587987357719e-01 3.354856819747539021e+00
2.487766729381326314e-01 3.035917161516948681e+00
2.501177870775294632e-01 2.700065851273109274e+00
2.514589012169263227e-01 2.798917540465097886e+00
2.528000153563231822e-01 2.534863263487821428e+00
2.541411294957200417e-01 2.397715220554559323e+00
2.554822436351169013e-01 2.610684690667326890e+00
2.568233577745137608e-01 2.637702482585737584e+00
2.581644719139106203e-01 2.359247521268628134e+00
2.595055860533074243e-01 2.105395197822247155e+00
2.608467001927042839e-01 2.583744017164534057e+00
2.621878143321011434e-01 2.384651766343921508e+00
2.635289284714980029e-01 1.794297836892866371e+00
2.648700426108948625e-01 1.718138749185598613e+00
2.662111567502916665e-01 1.781685222726537177e+00
2.675522708896885260e-01 2.140848766159393790e+00
2.688933850290853855e-01 1.911161367918950305e+00
2.702344991684822451e-01 1.702696351865981228e+00
2.715756133078791046e-01 2.088593005558720961e+00
2.729167274472759641e-01 1.942723901903519845e+00
2.742578415866727681e-01 1.691873407956038022e+00
2.755989557260696277e-01 1.999488640642198334e+00
2.769400698654664872e-01 2.403275327638112913e+00
2.782811840048633467e-01 2.597179718665501014e+00
2.796222981442602062e-01 2.563679093833741263e+00
2.809634122836570103e-01 2.317542759387194451e+00
2.823045264230538698e-01 2.309879154509701493e+00
2.836456405624507293e-01 2.316010889251472804e+00
2.849867547018475888e-01 2.959073323483821127e+00
2.863278688412444484e-01 3.271247345149916441e+00
2.876689829806413079e-01 3.154399262934262538e+00
2.890100971200381674e-01 3.425535718793227602e+00
2.903512112594350270e-01 3.187051746277333564e+00
2.916923253988318865e-01 2.556514594386044337e+00
2.930334395382287460e-01 2.483661130314601451e+00
2.943745536776256055e-01 2.538211030811311275e+00
2.957156678170224096e-01 2.777000479922236309e+00
2.970567819564192691e-01 2.933948708209740630e+00
2.983978960958161286e-01 3.154772889030553529e+00
2.997390102352129881e-01 3.247771923028011543e+00
3.010801243746098477e-01 3.478471970716711326e+00
3.024212385140067072e-01 3.913581163624499482e+00
3.037623526534035112e-01 3.695942466726492626e+00
3.051034667928003707e-01 3.590682811826511056e+00
3.064445809321972303e-01 3.534455478272931828e+00
3.077856950715940898e-01 3.632896040102039592e+00
3.091268092109909493e-01 3.781137225320705397e+00
3.104679233503877533e-01 3.971491017765146125e+00
3.118090374897846129e-01 4.069900502191998726e+00
3.131501516291814724e-01 3.768216349599924797e+00
3.144912657685783319e-01 3.327419984381108975e+00
3.158323799079751915e-01 3.177033004737637611e+00
3.171734940473720510e-01 2.998015804026849196e+00
3.185146081867689105e-01 3.615760161911381942e+00
3.198557223261657700e-01 4.337474454444546268e+00
3.211968364655626296e-01 3.920365966959650450e+00
3.225379506049594891e-01 4.011708313350027311e+00
3.238790647443563486e-01 4.086333394773660643e+00
3.252201788837532082e-01 3.960321972419833969e+00
3.265612930231500122e-01 4.153869452582782174e+00
3.279024071625468717e-01 4.270257251455447545e+00
3.292435213019437312e-01 4.125705614711790759e+00
3.305846354413405908e-01 3.570975715240308546e+00
3.319257495807374503e-01 3.671039967623983102e+00
3.332668637201342543e-01 4.040348796992674352e+00
3.346079778595311138e-01 3.959789137078431054e+00
3.359490919989279734e-01 4.028312331270569757e+00
3.372902061383248329e-01 4.042809330606047524e+00
3.386313202777216924e-01 4.113045282937491720e+00
3.399724344171185519e-01 3.709087795229507378e+00
3.413135485565153560e-01 3.537129283040556516e+00
3.426546626959122155e-01 3.527448850063777286e+00
3.439957768353090750e-01 3.252349001837245623e+00
3.453368909747059345e-01 3.229451220997631822e+00
3.466780051141027941e-01 3.549757360902290770e+00
3.480191192534995981e-01 3.564842268994269148e+00
3.493602333928964576e-01 2.939088327943821355e+00
3.507013475322933171e-01 2.775346141548851620e+00
3.520424616716901767e-01 3.544023243464152984e+00
3.533835758110870362e-01 3.511168938506955328e+00
3.547246899504838957e-01 2.928719421500431963e+00
3.560658040898807553e-01 3.093070355814305117e+00
3.574069182292776148e-01 2.949150287281590010e+00
3.587480323686744743e-01 2.765981113330887808e+00
3.600891465080713338e-01 2.766090007379844451e+00
3.614302606474681934e-01 2.733193777255216617e+00
3.627713747868649974e-01 2.411383316491438222e+00
3.641124889262618569e-01 2.728103256037904600e+00
3.654536030656587164e-01 2.749831279582956256e+00
3.667947172050555760e-01 2.774063089568834073e+00
3.681358313444524355e-01 2.499666367607055406e+00
3.694769454838492950e-01 2.505761296368447688e+00
3.708180596232460990e-01 2.461272173826550613e+00
3.721591737626429586e-01 2.887107202175386078e+00
3.735002879020398181e-01 2.786659070878513944e+00
3.748414020414366776e-01 2.524976022818002264e+00
3.761825161808335372e-01 2.114766947360386951e+00
3.775236303202303967e-01 2.149922405470668707e+00
3.788647444596272007e-01 2.500031279516250038e+00
3.802058585990240602e-01 2.301100193745440947e+00
3.815469727384209198e-01 1.882238250596962814e+00
3.828880868778177793e-01 1.842462176688428599e+00
3.842292010172146388e-01 1.645042543268658619e+00
3.855703151566114428e-01 1.752926814709759640e+00
3.869114292960083024e-01 1.720116416183856245e+00
3.882525434354051619e-01 1.654284811617181106e+00
3.895936575748020214e-01 1.890590208270552353e+00
3.909347717141988809e-01 2.225439452399619711e+00
3.922758858535957405e-01 1.864715166017013814e+00
3.936169999929926000e-01 1.760521618155934220e+00
3.949581141323894595e-01 1.607257301001489225e+00
3.962992282717863191e-01 1.270254676957939921e+00
3.976403424111831786e-01 1.036382745905612524e+00
3.989814565505800381e-01 1.236531870459224081e+00
4.003225706899768976e-01 1.263552724404924277e+00
4.016636848293737572e-01 1.359958045011808281e+00
4.030047989687706167e-01 1.505988035752210408e+00
4.043459131081674207e-01 1.683013898887722348e+00
4.056870272475643358e-01 1.236513708690353042e+00
4.070281413869611398e-01 9.952416804438115605e-01
4.083692555263580548e-01 1.106951698810050289e+00
4.097103696657548588e-01 1.262116226078056513e+00
4.110514838051517739e-01 1.070281489584587575e+00
4.123925979445485779e-01 3.177087711492987410e-01
4.137337120839453819e-01 4.518600612047549703e-01
4.150748262233422969e-01 8.653684485783301739e-01
4.164159403627391010e-01 7.030946109690390244e-01
4.177570545021360160e-01 1.125471030454377797e+00
4.190981686415328200e-01 1.216974654360079455e+00
4.204392827809296240e-01 1.003518512330032308e+00
4.217803969203265391e-01 7.250884257474652372e-01
4.231215110597233431e-01 6.882301976021807377e-01
4.244626251991202581e-01 6.655629818862252023e-01
4.258037393385170621e-01 7.123109308067867573e-01
4.271448534779138662e-01 8.530414930826921704e-01
4.284859676173107812e-01 1.038797277618805026e+00
4.298270817567075852e-01 8.452046197713229958e-01
4.311681958961045003e-01 1.004060811945521436e+00
4.325093100355013043e-01 1.126944713801080411e+00
4.338504241748981638e-01 1.150044673595772338e+00
4.351915383142950233e-01 8.073666036879387775e-01
4.365326524536918829e-01 6.237301489722000269e-01
4.378737665930887424e-01 7.462348666855760371e-01
4.392148807324856019e-01 6.146042770515762754e-01
4.405559948718824614e-01 8.010230858784268548e-01
4.418971090112793210e-01 6.322195160605801334e-01
4.432382231506761250e-01 3.356957257739097145e-01
4.445793372900730400e-01 4.212016267361562427e-01
4.459204514294698440e-01 5.484278367880079941e-01
4.472615655688667591e-01 4.127937542046140607e-01
4.486026797082635631e-01 4.468941633951359904e-01
4.499437938476603671e-01 6.848226694087955480e-01
4.512849079870572822e-01 8.103620392595516364e-01
4.526260221264540862e-01 5.691632511097495239e-01
4.539671362658510012e-01 3.456677550284297240e-01
4.553082504052478052e-01 3.097511821578748936e-01
4.566493645446446092e-01 5.066782860454850379e-01
4.579904786840415243e-01 7.095114530710091572e-01
4.593315928234383283e-01 2.713817557999647079e-01
4.606727069628352433e-01 3.574773335639918059e-01
4.620138211022320474e-01 7.829057941872150650e-01
4.633549352416289624e-01 5.578966249165020486e-01
4.646960493810257664e-01 5.923553445857336897e-01
4.660371635204225704e-01 5.212396039012361371e-01
4.673782776598194855e-01 5.572316824348106934e-01
4.687193917992162895e-01 6.860719684543639119e-01
4.700605059386132045e-01 4.783629148854586788e-01
4.714016200780100085e-01 6.002437793229020713e-01
4.727427342174068681e-01 7.386707413644231224e-01
4.740838483568037276e-01 5.450621544258353879e-01
4.754249624962005871e-01 5.668761936946324909e-01
4.767660766355974467e-01 8.617059128471140639e-01
4.781071907749943062e-01 8.446818506927655790e-01
4.794483049143911102e-01 8.856324409378757423e-01
4.807894190537880252e-01 4.287196522489509221e-01
4.821305331931848293e-01 3.029832062260382486e-01
4.834716473325817443e-01 9.368325345272623395e-01
4.848127614719785483e-01 9.553021259851703917e-01
4.861538756113753523e-01 9.673063357932605300e-01
4.874949897507722674e-01 9.999173073751634888e-01
4.888361038901690714e-01 9.852017421942349529e-01
4.901772180295659864e-01 9.095826769974237891e-01
4.915183321689627904e-01 6.615795824302779238e-01
4.928594463083597055e-01 5.895130280708968940e-01
4.942005604477565095e-01 7.423595586534403878e-01
4.955416745871533135e-01 3.313091846464359946e-01
4.968827887265502286e-01 7.267493877058228691e-01
4.982239028659470326e-01 8.953151284178844094e-01
4.995650170053439476e-01 7.325275910691360082e-01
5.009061311447408071e-01 6.428155601485130433e-01
5.022472452841375556e-01 2.467398051882341292e-01
5.035883594235345262e-01 2.204789464414105282e-01
5.049294735629312747e-01 6.544553098102099398e-01
5.062705877023282452e-01 9.947511735309291225e-01
5.076117018417249938e-01 6.275906009612057801e-01
5.089528159811218533e-01 5.795148696274594613e-01
5.102939301205187128e-01 8.607261413868272371e-01
5.116350442599155723e-01 6.411676651278739314e-01
5.129761583993124319e-01 3.424384865370626585e-01
5.143172725387092914e-01 6.315361242350974180e-01
5.156583866781061509e-01 6.409103953364265749e-01
5.169995008175030105e-01 5.128437491534398873e-01
5.183406149568997590e-01 5.289576318434825453e-01
5.196817290962967295e-01 5.184701005709442256e-01
5.210228432356934780e-01 5.901525690093833987e-01
5.223639573750904486e-01 6.772870322409616506e-01
5.237050715144871971e-01 6.042907040719072143e-01
5.250461856538840566e-01 7.150494624283680878e-01
5.263872997932809161e-01 8.261954826841488853e-01
5.277284139326777757e-01 5.404286264345330437e-01
5.290695280720746352e-01 4.186253439813469868e-01
5.304106422114714947e-01 4.051801497292473186e-01
5.317517563508683542e-01 7.333924922833716664e-01
5.330928704902652138e-01 8.060258469398107195e-01
5.344339846296620733e-01 7.090274783377097378e-01
5.357750987690589328e-01 6.731415081238836251e-01
5.371162129084557924e-01 8.830270910638517989e-01
5.384573270478525409e-01 6.865377838623771822e-01
5.397984411872495114e-01 9.200676836532153402e-01
5.411395553266462599e-01 6.192918981608599438e-01
5.424806694660432305e-01 3.721925398585312905e-01
5.438217836054399790e-01 2.402598968393760970e-01
5.451628977448369495e-01 2.428194682717901287e-01
5.465040118842336980e-01 4.833251781950593795e-01
5.478451260236305576e-01 4.093915838096009452e-01
5.491862401630274171e-01 4.175217518523339777e-01
5.505273543024242766e-01 4.791854580434531385e-01
5.518684684418211361e-01 7.024730691262419668e-01
5.532095825812179957e-01 5.254388378203245225e-01
5.545506967206147442e-01 5.165948021161668180e-01
