# q (1/Angstrom), Intensity (arb)
2.078726924066784734e-02 1.503795078321954861e+02
2.212838338006469993e-02 2.600974767652583637e+02
2.346949751946154905e-02 3.751335226668829819e+02
2.481061165885840164e-02 5.197774991617930027e+02
2.615172579825525423e-02 5.820268792817703343e+02
2.749283993765210335e-02 6.085443631937323516e+02
2.883395407704895941e-02 6.339789064095007234e+02
3.017506821644580506e-02 6.468749808602021858e+02
3.151618235584265765e-02 6.506651056387440804e+02
3.285729649523951718e-02 6.523529807916581831e+02
3.419841063463636283e-02 6.461224111411941067e+02
3.553952477403321542e-02 6.417668639794069350e+02
3.688063891343006800e-02 6.382673868838766111e+02
3.822175305282692059e-02 6.325432095749858945e+02
3.956286719222376624e-02 6.293464541356131576e+02
4.090398133162062577e-02 6.271687720116336777e+02
4.224509547101747142e-02 6.235329690129955225e+02
4.358620961041432401e-02 6.209582547833358603e+02
4.492732374981117660e-02 6.187247925258440091e+02
4.626843788920802919e-02 6.169053387477371189e+02
4.760955202860488178e-02 6.162760268981019181e+02
4.895066616800172743e-02 6.108121290521814899e+02
5.029178030739858696e-02 6.091173618044996374e+02
5.163289444679544649e-02 6.087339369812505083e+02
5.297400858619229214e-02 6.067157519800398404e+02
5.431512272558913779e-02 6.049685838149272286e+02
5.565623686498599731e-02 6.039371746297966865e+02
5.699735100438284990e-02 5.974342946111793253e+02
5.833846514377969555e-02 5.933422473555081069e+02
5.967957928317654814e-02 5.888388953489908317e+02
6.102069342257340767e-02 5.839471622650810332e+02
6.236180756197025332e-02 5.792491741484323029e+02
6.370292170136709897e-02 5.776608114061783681e+02
6.504403584076395850e-02 5.735555054013735798e+02
6.638514998016080415e-02 5.677879619685784292e+02
6.772626411955766368e-02 5.612090466697904958e+02
6.906737825895450933e-02 5.523858832104750718e+02
7.040849239835136886e-02 5.463730105452568750e+02
7.174960653774821451e-02 5.381117579518644334e+02
7.309072067714506016e-02 5.328020033955771169e+02
7.443183481654190581e-02 5.265648681064308221e+02
7.577294895593877921e-02 5.167528593972961062e+02
7.711406309533562486e-02 5.101256102882481400e+02
7.845517723473247051e-02 5.035793582843917306e+02
7.979629137412933004e-02 4.940877646748854204e+02
8.113740551352617569e-02 4.868052630190246646e+02
8.247851965292302134e-02 4.836127255516913692e+02
8.381963379231988087e-02 4.795611216698691237e+02
8.516074793171674040e-02 4.686895503367750280e+02
8.650186207111358605e-02 4.612942211334527087e+02
8.784297621051043170e-02 4.529893368729151462e+02
8.918409034990729123e-02 4.458794117023433046e+02
9.052520448930413688e-02 4.386989936956446172e+02
9.186631862870098253e-02 4.324399953786498827e+02
9.320743276809784206e-02 4.254613776097011737e+02
9.454854690749470159e-02 4.185362429918464500e+02
9.588966104689154724e-02 4.098987574909340310e+02
9.723077518628839289e-02 4.046870425704489094e+02
9.857188932568525241e-02 3.964131831467011580e+02
9.991300346508209806e-02 3.872268646302787261e+02
1.012541176044789437e-01 3.804440355262195226e+02
1.025952317438758032e-01 3.732902516537066049e+02
1.039363458832726350e-01 3.664187429113884491e+02
1.052774600226694945e-01 3.595793204939453744e+02
1.066185741620663541e-01 3.524086559937068728e+02
1.079596883014631858e-01 3.459378584668545500e+02
1.093008024408600454e-01 3.396693113861233542e+02
1.106419165802569049e-01 3.313842382243125826e+02
1.119830307196537506e-01 3.245816380965655412e+02
1.133241448590506101e-01 3.173403163238742195e+02
1.146652589984474419e-01 3.098917078798504008e+02
1.160063731378443014e-01 3.039894200267127076e+02
1.173474872772411609e-01 2.976064607574837169e+02
1.186886014166380066e-01 2.906644817824293341e+02
1.200297155560348661e-01 2.847585061300756024e+02
1.213708296954317256e-01 2.757808817753038966e+02
1.227119438348285574e-01 2.697425850642557634e+02
1.240530579742254169e-01 2.636439853448421218e+02
1.253941721136222764e-01 2.572866141041905053e+02
1.267352862530191082e-01 2.513459548085656365e+02
1.280764003924159677e-01 2.448324265197622935e+02
1.294175145318128273e-01 2.386218779143390520e+02
1.307586286712096590e-01 2.322383154366673068e+02
1.320997428106065186e-01 2.263399622119913204e+02
1.334408569500033781e-01 2.210073081848511265e+02
1.347819710894002376e-01 2.163385542165209188e+02
1.361230852287970972e-01 2.101330848882049622e+02
1.374641993681939289e-01 2.023024854906762187e+02
1.388053135075907885e-01 1.968505139003615625e+02
1.401464276469876480e-01 1.920383886232290251e+02
1.414875417863844798e-01 1.865841025921483265e+02
1.428286559257813393e-01 1.805704763534807000e+02
1.441697700651781988e-01 1.763125564252159165e+02
1.455108842045750306e-01 1.709300683391019220e+02
1.468519983439718901e-01 1.656138247188540049e+02
1.481931124833687219e-01 1.597605773373138618e+02
1.495342266227655814e-01 1.555352613435300100e+02
1.508753407621624687e-01 1.509822797275438120e+02
1.522164549015593005e-01 1.458377018349445962e+02
1.535575690409561600e-01 1.412848659993503873e+02
1.548986831803530195e-01 1.363437497794550382e+02
1.562397973197498513e-01 1.315020101089695856e+02
1.575809114591467108e-01 1.278207804376584278e+02
1.589220255985435704e-01 1.233282603128470925e+02
1.602631397379404021e-01 1.193823703430616234e+02
1.616042538773372617e-01 1.158075718079852834e+02
1.629453680167341212e-01 1.107563389223894887e+02
1.642864821561309530e-01 1.071618625052698377e+02
1.656275962955278125e-01 1.026253935952126000e+02
1.669687104349246720e-01 9.836500219375723475e+01
1.683098245743215315e-01 9.589068125216587646e+01
1.696509387137183911e-01 9.231222307167941210e+01
1.709920528531152228e-01 8.822713310399174702e+01
1.723331669925120824e-01 8.492943384323365308e+01
1.736742811319089419e-01 8.212709983198823238e+01
1.750153952713057737e-01 7.819194593706069440e+01
1.763565094107026332e-01 7.506501691456064407e+01
1.776976235500994927e-01 7.190858257713239254e+01
1.790387376894963245e-01 6.841614210219731262e+01
1.803798518288931840e-01 6.574684523177741369e+01
1.817209659682900158e-01 6.324559738623351279e+01
1.830620801076868753e-01 6.024126707469528696e+01
1.844031942470837349e-01 5.773509851411110105e+01
1.857443083864805944e-01 5.557573049001487675e+01
1.870854225258774539e-01 5.231693049079235891e+01
1.884265366652743134e-01 4.935627964383374433e+01
1.897676508046711452e-01 4.659118652470148447e+01
1.911087649440680047e-01 4.548995359470812616e+01
1.924498790834648643e-01 4.329978629297168879e+01
1.937909932228616960e-01 4.156204621802041288e+01
1.951321073622585556e-01 3.904051071619657876e+01
1.964732215016554151e-01 3.753951809917236915e+01
1.978143356410522469e-01 3.569483986452046054e+01
1.991554497804491064e-01 3.410973325916283727e+01
2.004965639198459382e-01 3.209316100108307523e+01
2.018376780592427977e-01 3.031476340388068991e+01
2.031787921986396572e-01 2.910377257798680262e+01
2.045199063380365168e-01 2.712589965254511526e+01
2.058610204774333763e-01 2.599352630166445977e+01
2.072021346168302081e-01 2.417650267813974096e+01
2.085432487562270676e-01 2.268523584638342072e+01
2.098843628956239271e-01 2.167548199394246922e+01
2.112254770350207866e-01 2.017730125021526533e+01
2.125665911744176462e-01 1.899792476490728177e+01
2.139077053138144502e-01 1.761746538318118382e+01
2.152488194532113097e-01 1.657884489357667235e+01
2.165899335926081692e-01 1.579834140947244236e+01
2.179310477320050288e-01 1.461038154075231432e+01
2.192721618714018883e-01 1.378929587611747820e+01
2.206132760107987478e-01 1.297647785664989328e+01
2.219543901501955796e-01 1.208549051058972168e+01
2.232955042895924391e-01 1.127501151741691388e+01
2.246366184289892987e-01 1.056064368925960650e+01
2.259777325683861582e-01 1.014321120496683193e+01
2.273188467077830177e-01 9.384285604255495628e+00
2.286599608471798217e-01 8.860836702390457731e+00
2.300010749865766813e-01 7.887799898276483646e+00
2.313421891259735408e-01 6.928164610278642499e+00
2.326833032653704003e-01 6.238178056652756709e+00
2.340244174047672598e-01 6.049259334794214737e+00
2.353655315441641194e-01 5.862049052986236575e+00
2.367066456835609234e-01 5.409021676600445971e+00
2.380477598229577829e-01 5.018984247652738873e+00
2.393888739623546424e-01 4.472506130068097718e+00
2.407299881017515020e-01 3.879560121314696630e+00
2.420711022411483615e-01 2.885354004236944547e+00
2.434122163805451933e-01 3.441316389859920832e+00
2.447533305199420528e-01 3.046460858360518387e+00
2.460944446593389123e-01 2.752208124356187113e+00
2.474355587987357719e-01 2.469737397630538567e+00
2.487766729381326314e-01 2.153274919246527475e+00
2.501177870775294632e-01 2.287511913510542172e+00
2.514589012169263227e-01 1.921800707941841324e+00
2.528000153563231822e-01 1.947500908996602220e+00
2.541411294957200417e-01 2.021004595260620817e+00
2.554822436351169013e-01 1.674089929996682713e+00
2.568233577745137608e-01 1.678893144118404734e+00
2.581644719139106203e-01 1.791296691747987779e+00
2.595055860533074243e-01 1.413619152442265658e+00
2.608467001927042839e-01 8.523320278749508816e-01
2.621878143321011434e-01 9.685300912013872221e-01
2.635289284714980029e-01 9.929621274852280521e-01
2.648700426108948625e-01 1.587397169364578531e+00
2.662111567502916665e-01 2.344369301517616577e+00
2.675522708896885260e-01 2.140200345933564563e+00
2.688933850290853855e-01 1.836999667906979994e+00
2.702344991684822451e-01 2.296500443605680175e+00
2.715756133078791046e-01 2.097623807193244261e+00
2.729167274472759641e-01 1.846221761445178799e+00
2.742578415866727681e-01 1.532981586809029295e+00
2.755989557260696277e-01 1.877569750573556462e+00
2.769400698654664872e-01 1.849635695649183731e+00
2.782811840048633467e-01 1.770660461566961885e+00
2.796222981442602062e-01 2.170395546978937773e+00
2.809634122836570103e-01 2.747516045944095708e+00
2.823045264230538698e-01 1.952306451147762800e+00
2.836456405624507293e-01 1.911080286702144804e+00
2.849867547018475888e-01 1.949933699880276095e+00
2.863278688412444484e-01 2.093002650130443953e+00
2.876689829806413079e-01 1.587805094652637194e+00
2.890100971200381674e-01 1.807516372507919300e+00
2.903512112594350270e-01 2.022879155271070317e+00
2.916923253988318865e-01 2.596455220431053590e+00
2.930334395382287460e-01 2.609694881352055518e+00
2.943745536776256055e-01 2.447875168017674241e+00
2.957156678170224096e-01 2.356212896200446494e+00
2.970567819564192691e-01 2.686395065728746090e+00
2.983978960958161286e-01 2.739608033716450564e+00
2.997390102352129881e-01 3.016712754433214627e+00
3.010801243746098477e-01 3.181927094801423550e+00
3.024212385140067072e-01 2.961321711678110091e+00
3.037623526534035112e-01 2.948726298454374728e+00
3.051034667928003707e-01 2.935033385297558084e+00
3.064445809321972303e-01 3.085120519246771664e+00
3.077856950715940898e-01 3.097111117671715874e+00
3.091268092109909493e-01 2.927776587102243866e+00
3.104679233503877533e-01 3.195481898266507415e+00
3.118090374897846129e-01 3.376960215605521398e+00
3.131501516291814724e-01 3.699730643350534365e+00
3.144912657685783319e-01 3.427320297918214465e+00
3.158323799079751915e-01 3.732457868539398760e+00
3.171734940473720510e-01 3.560862956426987580e+00
3.185146081867689105e-01 3.537050622321274318e+00
3.198557223261657700e-01 3.467553955999790105e+00
3.211968364655626296e-01 3.570692945683575203e+00
3.225379506049594891e-01 3.595202953618965580e+00
3.238790647443563486e-01 3.905182474772729506e+00
3.252201788837532082e-01 3.896526665020175528e+00
3.265612930231500122e-01 3.793699417078954639e+00
3.279024071625468717e-01 3.778534038471676126e+00
3.292435213019437312e-01 3.798153042285761671e+00
3.305846354413405908e-01 3.783939822309136503e+00
3.319257495807374503e-01 4.138858856336618430e+00
3.332668637201342543e-01 3.409508086069678257e+00
3.346079778595311138e-01 3.371405568857582580e+00
3.359490919989279734e-01 3.357260701289732197e+00
3.372902061383248329e-01 3.456530241045896901e+00
3.386313202777216924e-01 3.344195743166054058e+00
3.399724344171185519e-01 3.390873473087928858e+00
3.413135485565153560e-01 3.538619791614330268e+00
3.426546626959122155e-01 3.237674829125033682e+00
3.439957768353090750e-01 3.022845735326711747e+00
3.453368909747059345e-01 3.120465653124384175e+00
3.466780051141027941e-01 3.081481452611193106e+00
3.480191192534995981e-01 3.519699021434256281e+00
3.493602333928964576e-01 3.531933296362524288e+00
3.507013475322933171e-01 3.042764223923683176e+00
3.520424616716901767e-01 2.977954472018396359e+00
3.533835758110870362e-01 2.786895397826363308e+00
3.547246899504838957e-01 2.504454812880673842e+00
3.560658040898807553e-01 2.726732223436137303e+00
3.574069182292776148e-01 2.794486971132670305e+00
3.587480323686744743e-01 2.524122669776616590e+00
3.600891465080713338e-01 2.309037075565171904e+00
3.614302606474681934e-01 2.152537996253869323e+00
3.627713747868649974e-01 2.141027992107346734e+00
3.641124889262618569e-01 2.086778728844045361e+00
3.654536030656587164e-01 2.138306630310502499e+00
3.667947172050555760e-01 2.183741997059186701e+00
3.681358313444524355e-01 2.401168383946163942e+00
3.694769454838492950e-01 2.313155460016119491e+00
3.708180596232460990e-01 2.168730325143705784e+00
3.721591737626429586e-01 2.271367976631907482e+00
3.735002879020398181e-01 2.324665647666421364e+00
3.748414020414366776e-01 2.442909597420985790e+00
3.761825161808335372e-01 2.548737814302654670e+00
3.775236303202303967e-01 1.973922428661879280e+00
3.788647444596272007e-01 1.998998518595989538e+00
3.802058585990240602e-01 1.720221271968192411e+00
3.815469727384209198e-01 1.654128900952954950e+00
3.828880868778177793e-01 1.674905629030149612e+00
3.842292010172146388e-01 1.626114461353807883e+00
3.855703151566114428e-01 1.679119302576147277e+00
3.869114292960083024e-01 1.373096492513099065e+00
3.882525434354051619e-01 1.915616337437867855e+00
3.895936575748020214e-01 1.686825231493514821e+00
3.909347717141988809e-01 1.550516165452187067e+00
3.922758858535957405e-01 1.151590649348207762e+00
3.936169999929926000e-01 8.467650878327361852e-01
3.949581141323894595e-01 7.539097993826331390e-01
3.962992282717863191e-01 1.159553798980297756e+00
3.976403424111831786e-01 1.011100990605321215e+00
3.989814565505800381e-01 1.120159658968532312e+00
4.003225706899768976e-01 1.464543536512586286e+00
4.016636848293737572e-01 9.617154366300653123e-01
4.030047989687706167e-01 9.688837067514342039e-01
4.043459131081674207e-01 1.090238897344256941e+00
4.056870272475643358e-01 1.078136746923611611e+00
4.070281413869611398e-01 1.039222591716296051e+00
4.083692555263580548e-01 1.277168805885558811e+00
4.097103696657548588e-01 9.658359884755327585e-01
4.110514838051517739e-01 8.450957009826609578e-01
4.123925979445485779e-01 7.380085341995155090e-01
4.137337120839453819e-01 5.948391888678585815e-01
4.150748262233422969e-01 7.018352683183550766e-01
4.164159403627391010e-01 7.003707701304762168e-01
4.177570545021360160e-01 7.773049558893632138e-01
4.190981686415328200e-01 7.108075548088024220e-01
4.204392827809296240e-01 4.600815500995096841e-01
4.217803969203265391e-01 4.196084492656453335e-01
4.231215110597233431e-01 8.605725776238699609e-01
4.244626251991202581e-01 4.801099185924755375e-01
4.258037393385170621e-01 3.408966287429677777e-01
4.271448534779138662e-01 4.892181707984022410e-01
4.284859676173107812e-01 2.551266944159351624e-01
4.298270817567075852e-01 6.356939185468704068e-01
4.311681958961045003e-01 5.879996851335178576e-01
4.325093100355013043e-01 3.987768174529335852e-01
4.338504241748981638e-01 9.307922206426795242e-01
4.351915383142950233e-01 6.453617615688074238e-01
4.365326524536918829e-01 8.415873851226862712e-01
4.378737665930887424e-01 5.259917164875318463e-01
4.392148807324856019e-01 4.792941937228576421e-01
4.405559948718824614e-01 5.257469119577251604e-01
4.418971090112793210e-01 7.737856709534440824e-02
4.432382231506761250e-01 5.749516226341455649e-02
4.445793372900730400e-01 2.298067401941210619e-01
4.459204514294698440e-01 9.343136912344363054e-02
4.472615655688667591e-01 0.000000000000000000e+00
4.486026797082635631e-01 4.729184272196533811e-01
4.499437938476603671e-01 5.973156231043432740e-01
4.512849079870572822e-01 6.708219897237697182e-01
4.526260221264540862e-01 6.740484106130182340e-01
4.539671362658510012e-01 4.521121251430457733e-01
4.553082504052478052e-01 5.819040759033029531e-01
4.566493645446446092e-01 2.246912748810743210e-01
4.579904786840415243e-01 1.650419821916599972e-01
4.593315928234383283e-01 3.709406612309749107e-01
4.606727069628352433e-01 3.936005314472197369e-01
4.620138211022320474e-01 4.006176099129490353e-01
4.633549352416289624e-01 5.370780433657245112e-01
4.646960493810257664e-01 6.054697279439551494e-01
4.660371635204225704e-01 5.416002705717204435e-01
4.673782776598194855e-01 5.176372836269038658e-01
4.687193917992162895e-01 1.734375678619670680e-01
4.700605059386132045e-01 3.703272609199288468e-01
4.714016200780100085e-01 5.187296995672454614e-01
4.727427342174068681e-01 3.009757106279806749e-01
4.740838483568037276e-01 5.281321551338464815e-01
4.754249624962005871e-01 7.499263052404216978e-01
4.767660766355974467e-01 8.729300424056205543e-01
4.781071907749943062e-01 9.862510279994012308e-01
4.794483049143911102e-01 8.622478380481624072e-01
4.807894190537880252e-01 2.722851398841115156e-01
4.821305331931848293e-01 5.242101845010509464e-01
4.834716473325817443e-01 9.451989411609531544e-01
4.848127614719785483e-01 9.008962943440437243e-01
4.861538756113753523e-01 5.767381332580399089e-01
4.874949897507722674e-01 6.972600047967105752e-01
4.888361038901690714e-01 2.334336110899712935e-01
4.901772180295659864e-01 3.461237133966150736e-01
4.915183321689627904e-01 6.647321467889568680e-01
4.928594463083597055e-01 5.029503683563021355e-01
4.942005604477565095e-01 4.858578247335501032e-01
4.955416745871533135e-01 6.258637699675375643e-01
4.968827887265502286e-01 5.968381673007598920e-01
4.982239028659470326e-01 5.284918377052321148e-01
4.995650170053439476e-01 4.666491801187433452e-01
5.009061311447408071e-01 5.192023927844147124e-01
5.022472452841375556e-01 4.601849022705621906e-01
5.035883594235345262e-01 3.458769249531243872e-01
5.049294735629312747e-01 4.779871375677657852e-01
5.062705877023282452e-01 8.701410193013074945e-01
5.076117018417249938e-01 8.256468052737702124e-01
5.089528159811218533e-01 9.347120237605182069e-01
5.102939301205187128e-01 5.872256739675520976e-01
5.116350442599155723e-01 5.070820644852318537e-01
5.129761583993124319e-01 4.235060701032153929e-01
5.143172725387092914e-01 5.256128869932084058e-01
5.156583866781061509e-01 8.034650973516832551e-01
5.169995008175030105e-01 7.550341230592891861e-01
5.183406149568997590e-01 6.610006405410260300e-01
5.196817290962967295e-01 4.632216500539882986e-01
5.210228432356934780e-01 1.758864798129806672e-01
5.223639573750904486e-01 5.626394887343408868e-01
5.237050715144871971e-01 7.262240835950564133e-01
5.250461856538840566e-01 6.483290485949027016e-01
5.263872997932809161e-01 3.878234246308167599e-01
5.277284139326777757e-01 6.469846286162663773e-01
5.290695280720746352e-01 8.686911674956405705e-01
5.304106422114714947e-01 1.004668154794657653e+00
5.317517563508683542e-01 9.126624086625056975e-01
5.330928704902652138e-01 7.922335440361436554e-01
5.344339846296620733e-01 5.274774156085868526e-01
5.357750987690589328e-01 6.913829140520846295e-01
5.371162129084557924e-01 9.629696424508225050e-01
5.384573270478525409e-01 9.154991178942069041e-01
5.397984411872495114e-01 7.405144261090583768e-01
5.411395553266462599e-01 7.143037762801682788e-01
5.424806694660432305e-01 4.429252103299319288e-01
5.438217836054399790e-01 4.227374095911784480e-01
5.451628977448369495e-01 3.992769273628482551e-01
5.465040118842336980e-01 2.966171808970585744e-01
5.478451260236305576e-01 3.432703827903793581e-01
5.491862401630274171e-01 2.482366122207650960e-01
5.505273543024242766e-01 4.721765649213054417e-01
5.518684684418211361e-01 6.473610319553912973e-01
5.532095825812179957e-01 6.882582545024931164e-01
5.545506967206147442e-01 6.280700747142091700e-01
