# q (1/Angstrom), Intensity (arb)
2.078726924066784734e-02 1.530391691739312421e+02
2.212838338006469993e-02 2.674859999078878445e+02
2.346949751946154905e-02 3.840904076249911441e+02
2.481061165885840164e-02 5.245539388123053186e+02
2.615172579825525423e-02 5.910428585792939202e+02
2.749283993765210335e-02 6.176388322707382486e+02
2.883395407704895941e-02 6.440577214967227064e+02
3.017506821644580506e-02 6.575698420123814003e+02
3.151618235584265765e-02 6.627369330047195035e+02
3.285729649523951718e-02 6.585295859886682592e+02
3.419841063463636283e-02 6.534096629216992369e+02
3.553952477403321542e-02 6.520675880482136790e+02
3.688063891343006800e-02 6.485888034428699029e+02
3.822175305282692059e-02 6.439987086405120635e+02
3.956286719222376624e-02 6.423211669937745683e+02
4.090398133162062577e-02 6.396909387372425044e+02
4.224509547101747142e-02 6.340764292818889771e+02
4.358620961041432401e-02 6.296516029556801186e+02
4.492732374981117660e-02 6.256882554057502830e+02
4.626843788920802919e-02 6.270362009046799585e+02
4.760955202860488178e-02 6.275526004924055314e+02
4.895066616800172743e-02 6.247298989403004725e+02
5.029178030739858696e-02 6.196288797500266128e+02
5.163289444679544649e-02 6.163149038568553806e+02
5.297400858619229214e-02 6.157463736917547976e+02
5.431512272558913779e-02 6.147710539355994115e+02
5.565623686498599731e-02 6.087637262637055073e+02
5.699735100438284990e-02 6.024676230812648328e+02
5.833846514377969555e-02 6.040273476271009940e+02
5.967957928317654814e-02 5.996810458658850393e+02
6.102069342257340767e-02 5.926697190027082343e+02
6.236180756197025332e-02 5.854473533228174347e+02
6.370292170136709897e-02 5.834397431297452385e+02
6.504403584076395850e-02 5.812927485498712485e+02
6.638514998016080415e-02 5.758079230362276348e+02
6.772626411955766368e-02 5.691711670764223072e+02
6.906737825895450933e-02 5.624239751468992381e+02
7.040849239835136886e-02 5.562335381981250748e+02
7.174960653774821451e-02 5.498497960323877578e+02
7.309072067714506016e-02 5.391305306679313389e+02
7.443183481654190581e-02 5.313831244688037714e+02
7.577294895593877921e-02 5.279046139184764570e+02
7.711406309533562486e-02 5.194274944861912218e+02
7.845517723473247051e-02 5.105924503060999768e+02
7.979629137412933004e-02 5.023950929793587648e+02
8.113740551352617569e-02 4.938198515209311950e+02
8.247851965292302134e-02 4.885165850512780708e+02
8.381963379231988087e-02 4.835005563903901020e+02
8.516074793171674040e-02 4.756103413795678989e+02
8.650186207111358605e-02 4.673717596173905804e+02
8.784297621051043170e-02 4.593248090137656163e+02
8.918409034990729123e-02 4.532661923950818732e+02
9.052520448930413688e-02 4.459353440786871943e+02
9.186631862870098253e-02 4.381406523265864621e+02
9.320743276809784206e-02 4.314663239973717737e+02
9.454854690749470159e-02 4.240453465978134773e+02
9.588966104689154724e-02 4.158564869833121520e+02
9.723077518628839289e-02 4.071548076583844136e+02
9.857188932568525241e-02 3.996685375590992635e+02
9.991300346508209806e-02 3.930191234994692877e+02
1.012541176044789437e-01 3.867480521040822055e+02
1.025952317438758032e-01 3.789000764884810906e+02
1.039363458832726350e-01 3.700681153898684101e+02
1.052774600226694945e-01 3.637377086535038870e+02
1.066185741620663541e-01 3.555263723421958275e+02
1.079596883014631858e-01 3.494475766194889843e+02
1.093008024408600454e-01 3.447448510917047884e+02
1.106419165802569049e-01 3.357276098601076910e+02
1.119830307196537506e-01 3.272941431345317937e+02
1.133241448590506101e-01 3.194617195548355539e+02
1.146652589984474419e-01 3.141174770058506169e+02
1.160063731378443014e-01 3.077136600379673155e+02
1.173474872772411609e-01 3.012870917650755587e+02
1.186886014166380066e-01 2.941819913018746320e+02
1.200297155560348661e-01 2.866137272958608833e+02
1.213708296954317256e-01 2.802698695221745311e+02
1.227119438348285574e-01 2.737619234006153306e+02
1.240530579742254169e-01 2.663816033291597023e+02
1.253941721136222764e-01 2.602540514963001783e+02
1.267352862530191082e-01 2.539378555053008881e+02
1.280764003924159677e-01 2.481068708536649012e+02
1.294175145318128273e-01 2.409700075984431464e+02
1.307586286712096590e-01 2.343250694310176243e+02
1.320997428106065186e-01 2.285101002451496583e+02
1.334408569500033781e-01 2.220132178655676967e+02
1.347819710894002376e-01 2.177202936317380590e+02
1.361230852287970972e-01 2.113278764678053108e+02
1.374641993681939289e-01 2.045740461885989703e+02
1.388053135075907885e-01 1.984979679201914564e+02
1.401464276469876480e-01 1.927247860006007159e+02
1.414875417863844798e-01 1.887121811814427303e+02
1.428286559257813393e-01 1.834996596468210441e+02
1.441697700651781988e-01 1.773832758267342058e+02
1.455108842045750306e-01 1.713365638569663361e+02
1.468519983439718901e-01 1.661029658139009371e+02
1.481931124833687219e-01 1.611731717067745535e+02
1.495342266227655814e-01 1.566951094090827041e+02
1.508753407621624687e-01 1.517183441095348826e+02
1.522164549015593005e-01 1.464853059100099415e+02
1.535575690409561600e-01 1.423051438680634817e+02
1.548986831803530195e-01 1.375966145913753849e+02
1.562397973197498513e-01 1.329872699055131307e+02
1.575809114591467108e-01 1.274062269465088235e+02
1.589220255985435704e-01 1.239357524789847531e+02
1.602631397379404021e-01 1.201072098368518226e+02
1.616042538773372617e-01 1.156684198158096564e+02
1.629453680167341212e-01 1.113059667720345516e+02
1.642864821561309530e-01 1.070705582636735471e+02
1.656275962955278125e-01 1.035084365802034796e+02
1.669687104349246720e-01 9.995375297311633744e+01
1.683098245743215315e-01 9.655352331851619851e+01
1.696509387137183911e-01 9.320222352637237861e+01
1.709920528531152228e-01 8.939728683046254787e+01
1.723331669925120824e-01 8.561138435949195014e+01
1.736742811319089419e-01 8.220181832649400633e+01
1.750153952713057737e-01 7.882829162702256554e+01
1.763565094107026332e-01 7.531490154412509241e+01
1.776976235500994927e-01 7.204776443728336233e+01
1.790387376894963245e-01 6.910683554768779402e+01
1.803798518288931840e-01 6.642655937027153357e+01
1.817209659682900158e-01 6.308087715219211589e+01
1.830620801076868753e-01 6.035096628217311832e+01
1.844031942470837349e-01 5.791687985462257870e+01
1.857443083864805944e-01 5.526831227675015157e+01
1.870854225258774539e-01 5.307167162393011495e+01
1.884265366652743134e-01 5.020573651693322859e+01
1.897676508046711452e-01 4.811564100289795931e+01
1.911087649440680047e-01 4.584368594656652363e+01
1.924498790834648643e-01 4.370338317414915252e+01
1.937909932228616960e-01 4.208734026607865530e+01
1.951321073622585556e-01 3.964518557201566296e+01
1.964732215016554151e-01 3.735513865348141849e+01
1.978143356410522469e-01 3.532735318831110760e+01
1.991554497804491064e-01 3.363478884999641139e+01
2.004965639198459382e-01 3.196841618961380505e+01
2.018376780592427977e-01 3.087498089161609016e+01
2.031787921986396572e-01 2.885443129636675508e+01
2.045199063380365168e-01 2.675455347065832257e+01
2.058610204774333763e-01 2.508430747304549868e+01
2.072021346168302081e-01 2.383675384165589151e+01
2.085432487562270676e-01 2.242432038710346376e+01
2.098843628956239271e-01 2.115958178731578698e+01
2.112254770350207866e-01 1.988535479639297421e+01
2.125665911744176462e-01 1.887132649835689335e+01
2.139077053138144502e-01 1.775150470555556126e+01
2.152488194532113097e-01 1.692487515502982376e+01
2.165899335926081692e-01 1.612061719681112493e+01
2.179310477320050288e-01 1.479317347344409939e+01
2.192721618714018883e-01 1.384073048871958633e+01
2.206132760107987478e-01 1.255920505324576197e+01
2.219543901501955796e-01 1.197883463245256053e+01
2.232955042895924391e-01 1.160952600852967009e+01
2.246366184289892987e-01 1.039046489590543842e+01
2.259777325683861582e-01 9.811115630077239302e+00
2.273188467077830177e-01 9.218559743338460066e+00
2.286599608471798217e-01 8.358964488466966714e+00
2.300010749865766813e-01 7.721412277226491483e+00
2.313421891259735408e-01 7.381460325734707340e+00
2.326833032653704003e-01 6.904246257238497719e+00
2.340244174047672598e-01 5.988955823340859297e+00
2.353655315441641194e-01 5.711123745687160635e+00
2.367066456835609234e-01 5.235329817130505603e+00
2.380477598229577829e-01 4.445840306047344370e+00
2.393888739623546424e-01 4.313160423945490152e+00
2.407299881017515020e-01 4.702438850285460603e+00
2.420711022411483615e-01 4.556504134348259072e+00
2.434122163805451933e-01 3.196302450478896162e+00
2.447533305199420528e-01 2.694072851420358461e+00
2.460944446593389123e-01 2.869183935919096484e+00
2.474355587987357719e-01 2.992328875527661580e+00
2.487766729381326314e-01 3.058689233749163350e+00
2.501177870775294632e-01 2.432996598415016365e+00
2.514589012169263227e-01 2.272400604330400142e+00
2.528000153563231822e-01 2.172929201509035124e+00
2.541411294957200417e-01 2.604655900106990885e+00
2.554822436351169013e-01 2.152357324204245970e+00
2.568233577745137608e-01 1.544411010610417634e+00
2.581644719139106203e-01 1.448299360308993755e+00
2.595055860533074243e-01 1.558480751624529148e+00
2.608467001927042839e-01 1.530791430909786754e+00
2.621878143321011434e-01 1.844183434290016521e+00
2.635289284714980029e-01 2.038553839808542989e+00
2.648700426108948625e-01 1.790301267760199266e+00
2.662111567502916665e-01 2.034248024312077519e+00
2.675522708896885260e-01 2.125366026475717263e+00
2.688933850290853855e-01 1.788461300511059449e+00
2.702344991684822451e-01 1.930131436672880341e+00
2.715756133078791046e-01 2.477905018782408320e+00
2.729167274472759641e-01 2.855457384930701892e+00
2.742578415866727681e-01 2.783113298273065084e+00
2.755989557260696277e-01 2.162089344455111473e+00
2.769400698654664872e-01 2.220223277286393682e+00
2.782811840048633467e-01 2.284561934342420386e+00
2.796222981442602062e-01 2.087888586538028335e+00
2.809634122836570103e-01 2.189849920338005518e+00
2.823045264230538698e-01 2.265186264093017598e+00
2.836456405624507293e-01 2.144570914878457302e+00
2.849867547018475888e-01 2.110251825285317295e+00
2.863278688412444484e-01 2.539685423672921161e+00
2.876689829806413079e-01 2.344859219838298259e+00
2.890100971200381674e-01 2.667103405346452405e+00
2.903512112594350270e-01 2.466336739074037609e+00
2.916923253988318865e-01 2.798551156736650114e+00
2.930334395382287460e-01 2.941800851561438890e+00
2.943745536776256055e-01 3.219075736328292692e+00
2.957156678170224096e-01 3.235655749782225143e+00
2.970567819564192691e-01 2.848446633938436889e+00
2.983978960958161286e-01 2.944135496879667357e+00
2.997390102352129881e-01 3.167737654264641378e+00
3.010801243746098477e-01 3.227951826096131072e+00
3.024212385140067072e-01 3.064190310925525296e+00
3.037623526534035112e-01 3.338784902637129903e+00
3.051034667928003707e-01 3.344972298068299210e+00
3.064445809321972303e-01 3.342660984524229661e+00
3.077856950715940898e-01 3.469264972396643998e+00
3.091268092109909493e-01 3.186365213897076387e+00
3.104679233503877533e-01 3.344161113270430974e+00
3.118090374897846129e-01 3.321070095444412118e+00
3.131501516291814724e-01 3.408850884167776485e+00
3.144912657685783319e-01 3.279996516011763674e+00
3.158323799079751915e-01 3.042153677533462997e+00
3.171734940473720510e-01 3.146881538000286582e+00
3.185146081867689105e-01 3.423899547588632686e+00
3.198557223261657700e-01 3.757639635938801348e+00
3.211968364655626296e-01 3.497823106686567485e+00
3.225379506049594891e-01 3.882157999194404852e+00
3.238790647443563486e-01 4.074660860802822526e+00
3.252201788837532082e-01 3.889658791570951735e+00
3.265612930231500122e-01 3.810906240503001641e+00
3.279024071625468717e-01 3.780672218553505104e+00
3.292435213019437312e-01 3.655046783532469590e+00
3.305846354413405908e-01 3.628713170773607999e+00
3.319257495807374503e-01 3.262001013434300489e+00
3.332668637201342543e-01 3.310954823115395129e+00
3.346079778595311138e-01 3.220208981051911223e+00
3.359490919989279734e-01 3.752998974317932834e+00
3.372902061383248329e-01 3.793366057727439511e+00
3.386313202777216924e-01 3.913969107852381057e+00
3.399724344171185519e-01 3.520608050441566661e+00
3.413135485565153560e-01 3.250622016192906472e+00
3.426546626959122155e-01 3.418378338289116414e+00
3.439957768353090750e-01 3.683036820109194309e+00
3.453368909747059345e-01 3.184053106360821062e+00
3.466780051141027941e-01 3.212242654973010758e+00
3.480191192534995981e-01 3.030528835528542686e+00
3.493602333928964576e-01 2.836442013450678701e+00
3.507013475322933171e-01 2.911110576011381568e+00
3.520424616716901767e-01 2.826642299681424220e+00
3.533835758110870362e-01 2.764398368649906956e+00
3.547246899504838957e-01 2.368901327260999778e+00
3.560658040898807553e-01 2.193166172596932029e+00
3.574069182292776148e-01 2.351110552266760578e+00
3.587480323686744743e-01 2.483437227201363839e+00
3.600891465080713338e-01 2.833573778633244444e+00
3.614302606474681934e-01 2.891142140495588819e+00
3.627713747868649974e-01 2.504581372974158171e+00
3.641124889262618569e-01 2.840132244749035806e+00
3.654536030656587164e-01 2.276092812637408258e+00
3.667947172050555760e-01 2.067278929943142884e+00
3.681358313444524355e-01 2.655775839819376927e+00
3.694769454838492950e-01 2.291569486624673857e+00
3.708180596232460990e-01 2.239790836450858080e+00
3.721591737626429586e-01 2.226207167114935714e+00
3.735002879020398181e-01 2.227801155758072582e+00
3.748414020414366776e-01 2.054872641402177180e+00
3.761825161808335372e-01 2.236561715904819891e+00
3.775236303202303967e-01 1.846633977288384187e+00
3.788647444596272007e-01 2.015584964716886418e+00
3.802058585990240602e-01 2.232029221330463997e+00
3.815469727384209198e-01 2.140701827017949199e+00
3.828880868778177793e-01 2.414658490383963851e+00
3.842292010172146388e-01 2.068823060709469530e+00
3.855703151566114428e-01 2.038456709211992290e+00
3.869114292960083024e-01 1.845276840618907954e+00
3.882525434354051619e-01 1.205803926192203335e+00
3.895936575748020214e-01 1.358445759093925176e+00
3.909347717141988809e-01 1.279721418919869791e+00
3.922758858535957405e-01 1.293402494236275402e+00
3.936169999929926000e-01 1.494117366930417745e+00
3.949581141323894595e-01 1.010893225904943904e+00
3.962992282717863191e-01 9.588922500180316888e-01
3.976403424111831786e-01 1.092276094941212250e+00
3.989814565505800381e-01 1.039084169510559263e+00
4.003225706899768976e-01 8.221673556713327002e-01
4.016636848293737572e-01 1.124540259642500928e+00
4.030047989687706167e-01 1.363014569850186319e+00
4.043459131081674207e-01 1.317680067458020687e+00
4.056870272475643358e-01 1.189251631134268905e+00
4.070281413869611398e-01 1.036212761271571026e+00
4.083692555263580548e-01 1.059655614717520677e+00
4.097103696657548588e-01 6.922439524584262927e-01
4.110514838051517739e-01 7.798765369183229268e-01
4.123925979445485779e-01 8.462358357398827025e-01
4.137337120839453819e-01 8.576538386715171214e-01
4.150748262233422969e-01 8.193795490580697560e-01
4.164159403627391010e-01 6.792547269592361658e-01
4.177570545021360160e-01 6.005352851579672802e-01
4.190981686415328200e-01 3.631541721549638169e-01
4.204392827809296240e-01 2.674565176864049931e-01
4.217803969203265391e-01 6.231195683671373331e-01
4.231215110597233431e-01 8.298042925399045089e-01
4.244626251991202581e-01 3.967272322569783682e-01
4.258037393385170621e-01 5.934475353056782865e-01
4.271448534779138662e-01 9.198513873399676299e-01
4.284859676173107812e-01 7.081602095549470732e-01
4.298270817567075852e-01 8.779492642977402284e-01
4.311681958961045003e-01 9.835207266029755147e-01
4.325093100355013043e-01 7.512434692438958450e-01
4.338504241748981638e-01 4.606029429840532430e-01
4.351915383142950233e-01 6.428658128493722757e-01
4.365326524536918829e-01 6.943308161208889828e-01
4.378737665930887424e-01 6.429130301353325194e-01
4.392148807324856019e-01 2.816897870611612120e-01
4.405559948718824614e-01 3.905523766812493136e-01
4.418971090112793210e-01 7.315038935555051580e-01
4.432382231506761250e-01 4.711211351871398278e-01
4.445793372900730400e-01 3.327513422050500935e-01
4.459204514294698440e-01 4.591626962351682550e-01
4.472615655688667591e-01 5.176563490645733623e-01
4.486026797082635631e-01 5.601774636684098141e-01
4.499437938476603671e-01 7.528114691288720906e-01
4.512849079870572822e-01 5.656019735864745712e-01
4.526260221264540862e-01 8.658560361579219489e-01
4.539671362658510012e-01 7.160075392489417823e-01
4.553082504052478052e-01 7.329224245454426523e-01
4.566493645446446092e-01 5.526433150587024556e-01
4.579904786840415243e-01 3.495035687457033191e-01
4.593315928234383283e-01 3.205260220365815371e-01
4.606727069628352433e-01 5.008357567372456742e-01
4.620138211022320474e-01 3.783301930312319428e-01
4.633549352416289624e-01 2.174109058041864273e-01
4.646960493810257664e-01 4.208626693818260378e-01
4.660371635204225704e-01 7.358870680252920238e-01
4.673782776598194855e-01 7.933764933669422703e-01
4.687193917992162895e-01 6.824574106911569515e-01
4.700605059386132045e-01 4.329939781912557351e-01
4.714016200780100085e-01 4.037685717736678725e-01
4.727427342174068681e-01 5.704306559254348485e-01
4.740838483568037276e-01 3.741559340610862705e-01
4.754249624962005871e-01 1.559109455739218220e-01
4.767660766355974467e-01 5.075393502221317021e-01
4.781071907749943062e-01 5.853763898535504495e-01
4.794483049143911102e-01 5.803008191922032211e-01
4.807894190537880252e-01 8.951979992452478996e-01
4.821305331931848293e-01 7.687345543738786091e-01
4.834716473325817443e-01 4.573924063651020333e-01
4.848127614719785483e-01 4.798619115667648316e-01
4.861538756113753523e-01 6.498768666893397494e-01
4.874949897507722674e-01 7.623976257674272006e-01
4.888361038901690714e-01 7.412924611675961728e-01
4.901772180295659864e-01 6.435621290661970306e-01
4.915183321689627904e-01 7.769400296660577965e-01
4.928594463083597055e-01 5.832100633937713496e-01
4.942005604477565095e-01 6.492536749093744675e-01
4.955416745871533135e-01 7.377380726202247274e-01
4.968827887265502286e-01 7.102364543596522140e-01
4.982239028659470326e-01 4.812406130775528368e-01
4.995650170053439476e-01 2.358461555346806904e-01
5.009061311447408071e-01 1.784560731242734732e-01
5.022472452841375556e-01 0.000000000000000000e+00
5.035883594235345262e-01 5.648311134727919125e-01
5.049294735629312747e-01 8.599677594219699017e-01
5.062705877023282452e-01 8.746292198867138268e-01
5.076117018417249938e-01 5.238933329470896183e-01
5.089528159811218533e-01 5.513461430903419114e-01
5.102939301205187128e-01 4.492995275574287461e-01
5.116350442599155723e-01 4.503779911275600512e-01
5.129761583993124319e-01 4.040913192592441305e-01
5.143172725387092914e-01 5.080521952314072109e-01
5.156583866781061509e-01 2.185725662284525583e-01
5.169995008175030105e-01 2.132206664011491171e-01
5.183406149568997590e-01 2.282198922601850199e-01
5.196817290962967295e-01 3.696569890566863137e-01
5.210228432356934780e-01 2.790186155850662431e-01
5.223639573750904486e-01 4.557640316973419203e-01
5.237050715144871971e-01 5.841766873673464033e-01
5.250461856538840566e-01 4.120147673212528616e-01
5.263872997932809161e-01 6.170595501405031769e-01
5.277284139326777757e-01 9.822580129184430575e-01
5.290695280720746352e-01 7.688132936903002701e-01
5.304106422114714947e-01 8.540555278002415207e-01
5.317517563508683542e-01 5.651287047136790420e-01
5.330928704902652138e-01 2.551943932396696368e-01
5.344339846296620733e-01 2.655620622288239474e-01
5.357750987690589328e-01 4.096445293501673746e-01
5.371162129084557924e-01 5.435872213812373843e-01
5.384573270478525409e-01 7.671937373341677358e-01
5.397984411872495114e-01 6.217016398897143858e-01
5.411395553266462599e-01 5.823815713426654384e-01
5.424806694660432305e-01 5.618869524131042681e-01
5.438217836054399790e-01 3.825341052082862348e-01
5.451628977448369495e-01 2.745386015050357287e-01
5.465040118842336980e-01 4.528441566185534839e-01
5.478451260236305576e-01 5.762574738595347412e-01
5.491862401630274171e-01 4.640348928262412187e-01
5.505273543024242766e-01 2.240044272435568473e-01
5.518684684418211361e-01 2.010567198524242372e-01
5.532095825812179957e-01 3.727459512372917061e-01
5.545506967206147442e-01 6.064376370121422610e-01
