# q (1/Angstrom), Intensity (arb)
2.078726924066784734e-02 1.517154426079140421e+02
2.212838338006469993e-02 2.700603039179391089e+02
2.346949751946154905e-02 3.920126856672233657e+02
2.481061165885840164e-02 5.319305393486528146e+02
2.615172579825525423e-02 6.039220616299739959e+02
2.749283993765210335e-02 6.357535894153540994e+02
2.883395407704895941e-02 6.603755297950660861e+02
3.017506821644580506e-02 6.746185026354858110e+02
3.151618235584265765e-02 6.739240802525122263e+02
3.285729649523951718e-02 6.701921371191884873e+02
3.419841063463636283e-02 6.726903600315002905e+02
3.553952477403321542e-02 6.687944292310994570e+02
3.688063891343006800e-02 6.606519649004761732e+02
3.822175305282692059e-02 6.543773940084945480e+02
3.956286719222376624e-02 6.555821880065115010e+02
4.090398133162062577e-02 6.505415445248694368e+02
4.224509547101747142e-02 6.444409357069876023e+02
4.358620961041432401e-02 6.450869393455004683e+02
4.492732374981117660e-02 6.441277892160604779e+02
4.626843788920802919e-02 6.435406853086503816e+02
4.760955202860488178e-02 6.413813952361301745e+02
4.895066616800172743e-02 6.357728023962741872e+02
5.029178030739858696e-02 6.316350549803991044e+02
5.163289444679544649e-02 6.312124005216149953e+02
5.297400858619229214e-02 6.282802928125332755e+02
5.431512272558913779e-02 6.230347759617299062e+02
5.565623686498599731e-02 6.158239187392857730e+02
5.699735100438284990e-02 6.126204911740128409e+02
5.833846514377969555e-02 6.101096107182376045e+02
5.967957928317654814e-02 6.070704648918779185e+02
6.102069342257340767e-02 6.041681117852029956e+02
6.236180756197025332e-02 5.993428822736968868e+02
6.370292170136709897e-02 5.925072479108350763e+02
6.504403584076395850e-02 5.897713495697036024e+02
6.638514998016080415e-02 5.834184020277168656e+02
6.772626411955766368e-02 5.781160371846638100e+02
6.906737825895450933e-02 5.719587518851051300e+02
7.040849239835136886e-02 5.642729183670761586e+02
7.174960653774821451e-02 5.562515766122503464e+02
7.309072067714506016e-02 5.499156644347898464e+02
7.443183481654190581e-02 5.449691146647733149e+02
7.577294895593877921e-02 5.381552158527747451e+02
7.711406309533562486e-02 5.313974612927986527e+02
7.845517723473247051e-02 5.236278520930550258e+02
7.979629137412933004e-02 5.162984572325608497e+02
8.113740551352617569e-02 5.081764785725557658e+02
8.247851965292302134e-02 4.984807318893537627e+02
8.381963379231988087e-02 4.911673319309877002e+02
8.516074793171674040e-02 4.851511370248156254e+02
8.650186207111358605e-02 4.773299039999740785e+02
8.784297621051043170e-02 4.690869871298141902e+02
8.918409034990729123e-02 4.627469802878302971e+02
9.052520448930413688e-02 4.571675756481744770e+02
9.186631862870098253e-02 4.471704899964366291e+02
9.320743276809784206e-02 4.391147670623568615e+02
9.454854690749470159e-02 4.317979881439176779e+02
9.588966104689154724e-02 4.245808864177940904e+02
9.723077518628839289e-02 4.172386055826996198e+02
9.857188932568525241e-02 4.114101717011713504e+02
9.991300346508209806e-02 4.035512176769886992e+02
1.012541176044789437e-01 3.945715061648671735e+02
1.025952317438758032e-01 3.883498550909494043e+02
1.039363458832726350e-01 3.791311654643685642e+02
1.052774600226694945e-01 3.723468577463808060e+02
1.066185741620663541e-01 3.657357895058357826e+02
1.079596883014631858e-01 3.587191649254442609e+02
1.093008024408600454e-01 3.509375721274025750e+02
1.106419165802569049e-01 3.441891089176533569e+02
1.119830307196537506e-01 3.365577310255413295e+02
1.133241448590506101e-01 3.278488799785645824e+02
1.146652589984474419e-01 3.217333209082867143e+02
1.160063731378443014e-01 3.144523422676932114e+02
1.173474872772411609e-01 3.075168433811874706e+02
1.186886014166380066e-01 3.006996867159742237e+02
1.200297155560348661e-01 2.939581804224866914e+02
1.213708296954317256e-01 2.861337975023536728e+02
1.227119438348285574e-01 2.803050481506126062e+02
1.240530579742254169e-01 2.741405623817925061e+02
1.253941721136222764e-01 2.678936750304775387e+02
1.267352862530191082e-01 2.606073015812690983e+02
1.280764003924159677e-01 2.542330293144666484e+02
1.294175145318128273e-01 2.485939337385232193e+02
1.307586286712096590e-01 2.432069400094276261e+02
1.320997428106065186e-01 2.368512305936062603e+02
1.334408569500033781e-01 2.303016162379784646e+02
1.347819710894002376e-01 2.240807075887625217e+02
1.361230852287970972e-01 2.172828180479993421e+02
1.374641993681939289e-01 2.104757558090361726e+02
1.388053135075907885e-01 2.048899032765502568e+02
1.401464276469876480e-01 1.988345010326427200e+02
1.414875417863844798e-01 1.934199324352650251e+02
1.428286559257813393e-01 1.882899246774722428e+02
1.441697700651781988e-01 1.832316638860689864e+02
1.455108842045750306e-01 1.776315582410641127e+02
1.468519983439718901e-01 1.725841046296386025e+02
1.481931124833687219e-01 1.676372608819088441e+02
1.495342266227655814e-01 1.619018971145183627e+02
1.508753407621624687e-01 1.572029244667633066e+02
1.522164549015593005e-01 1.517059209830881343e+02
1.535575690409561600e-01 1.463154689903852841e+02
1.548986831803530195e-01 1.425230790047409641e+02
1.562397973197498513e-01 1.380189158117502757e+02
1.575809114591467108e-01 1.334322791001283690e+02
1.589220255985435704e-01 1.281806793196518015e+02
1.602631397379404021e-01 1.231470710192211158e+02
1.616042538773372617e-01 1.187939702899859356e+02
1.629453680167341212e-01 1.149308363480222397e+02
1.642864821561309530e-01 1.106667608817236754e+02
1.656275962955278125e-01 1.071220495974057627e+02
1.669687104349246720e-01 1.036156993834288329e+02
1.683098245743215315e-01 9.954174719622669443e+01
1.696509387137183911e-01 9.601189514076655485e+01
1.709920528531152228e-01 9.201005940600944655e+01
1.723331669925120824e-01 8.844943297123299430e+01
1.736742811319089419e-01 8.560100398591688986e+01
1.750153952713057737e-01 8.258829758161101608e+01
1.763565094107026332e-01 7.970656687916884664e+01
1.776976235500994927e-01 7.600114307926432389e+01
1.790387376894963245e-01 7.265929251128412147e+01
1.803798518288931840e-01 6.938258315485356320e+01
1.817209659682900158e-01 6.613570514124137389e+01
1.830620801076868753e-01 6.384437128112431026e+01
1.844031942470837349e-01 6.031288901597690710e+01
1.857443083864805944e-01 5.779349649745829254e+01
1.870854225258774539e-01 5.532616378565251125e+01
1.884265366652743134e-01 5.265453882107478023e+01
1.897676508046711452e-01 4.998633134118611565e+01
1.911087649440680047e-01 4.792744936805245004e+01
1.924498790834648643e-01 4.626617807491773249e+01
1.937909932228616960e-01 4.399353343653120874e+01
1.951321073622585556e-01 4.143896236846359216e+01
1.964732215016554151e-01 3.880699581931322939e+01
1.978143356410522469e-01 3.672411301210767931e+01
1.991554497804491064e-01 3.494137132869447271e+01
2.004965639198459382e-01 3.361012959651235121e+01
2.018376780592427977e-01 3.182651121439788255e+01
2.031787921986396572e-01 3.006566511554696319e+01
2.045199063380365168e-01 2.823891316312018773e+01
2.058610204774333763e-01 2.749231967988872327e+01
2.072021346168302081e-01 2.581900381495115937e+01
2.085432487562270676e-01 2.406861776662321972e+01
2.098843628956239271e-01 2.302490752161402554e+01
2.112254770350207866e-01 2.203721063962777293e+01
2.125665911744176462e-01 1.958826101723661850e+01
2.139077053138144502e-01 1.829294116519329805e+01
2.152488194532113097e-01 1.674741894460170499e+01
2.165899335926081692e-01 1.647987147118659834e+01
2.179310477320050288e-01 1.537401135027626253e+01
2.192721618714018883e-01 1.436961944332456653e+01
2.206132760107987478e-01 1.370373281253776554e+01
2.219543901501955796e-01 1.285691513274350939e+01
2.232955042895924391e-01 1.193279834478140344e+01
2.246366184289892987e-01 1.133477644704333898e+01
2.259777325683861582e-01 1.094110296505735391e+01
2.273188467077830177e-01 9.800908658384898331e+00
2.286599608471798217e-01 9.329071355335543103e+00
2.300010749865766813e-01 9.282869779561949031e+00
2.313421891259735408e-01 7.925147126406358211e+00
2.326833032653704003e-01 6.397575441624070436e+00
2.340244174047672598e-01 5.951479470718368248e+00
2.353655315441641194e-01 6.222512393702075428e+00
2.367066456835609234e-01 6.172402444683143585e+00
2.380477598229577829e-01 5.438792654576602104e+00
2.393888739623546424e-01 4.738247248740435680e+00
2.407299881017515020e-01 4.022090434783578416e+00
2.420711022411483615e-01 4.331727959380145876e+00
2.434122163805451933e-01 3.814209649908121946e+00
2.447533305199420528e-01 3.462914947725252546e+00
2.460944446593389123e-01 3.640409142439793300e+00
2.474355587987357719e-01 3.543211462860242023e+00
2.487766729381326314e-01 3.100470475874388399e+00
2.501177870775294632e-01 3.016084035646855455e+00
2.514589012169263227e-01 2.942852161501818387e+00
2.528000153563231822e-01 2.692503595905805014e+00
2.541411294957200417e-01 2.729062013257731678e+00
2.554822436351169013e-01 2.729879192558200884e+00
2.568233577745137608e-01 2.765217366031990309e+00
2.581644719139106203e-01 2.618673803052715243e+00
2.595055860533074243e-01 2.267548677459657824e+00
2.608467001927042839e-01 1.590052731621412363e+00
2.621878143321011434e-01 1.960601275874438443e+00
2.635289284714980029e-01 2.210105412024020666e+00
2.648700426108948625e-01 1.520537315231692332e+00
2.662111567502916665e-01 1.258237818149240184e+00
2.675522708896885260e-01 1.722115177738515968e+00
2.688933850290853855e-01 1.951624073269613291e+00
2.702344991684822451e-01 2.036575400336715802e+00
2.715756133078791046e-01 1.876376679209826648e+00
2.729167274472759641e-01 1.953831905153677440e+00
2.742578415866727681e-01 2.009929099102308214e+00
2.755989557260696277e-01 2.053361148657373292e+00
2.769400698654664872e-01 2.471025986280480424e+00
2.782811840048633467e-01 2.352158049343245239e+00
2.796222981442602062e-01 2.112732547848949594e+00
2.809634122836570103e-01 2.182481685003679672e+00
2.823045264230538698e-01 2.100246840063277887e+00
2.836456405624507293e-01 2.338678925180389001e+00
2.849867547018475888e-01 2.810887067173155174e+00
2.863278688412444484e-01 2.825373087633863634e+00
2.876689829806413079e-01 2.450977266428836288e+00
2.890100971200381674e-01 2.978348267962346085e+00
2.903512112594350270e-01 3.255394091447953997e+00
2.916923253988318865e-01 3.672665159536194324e+00
2.930334395382287460e-01 3.572391867022915335e+00
2.943745536776256055e-01 3.494609230544341472e+00
2.957156678170224096e-01 3.330055460987210836e+00
2.970567819564192691e-01 3.759640505215244843e+00
2.983978960958161286e-01 3.952612057900196874e+00
2.997390102352129881e-01 3.513018815478019974e+00
3.010801243746098477e-01 3.382295074905826482e+00
3.024212385140067072e-01 3.705080603298142705e+00
3.037623526534035112e-01 3.926618225196335743e+00
3.051034667928003707e-01 3.700473172176302228e+00
3.064445809321972303e-01 3.866519846657496373e+00
3.077856950715940898e-01 4.008268965643551951e+00
3.091268092109909493e-01 3.969154148948291549e+00
3.104679233503877533e-01 3.714261476944543006e+00
3.118090374897846129e-01 3.705497923374736047e+00
3.131501516291814724e-01 3.465964098949172012e+00
3.144912657685783319e-01 3.883427083701505467e+00
3.158323799079751915e-01 4.059842828312227425e+00
3.171734940473720510e-01 3.741384229910906356e+00
3.185146081867689105e-01 3.937741399390674246e+00
3.198557223261657700e-01 4.112735853486725546e+00
3.211968364655626296e-01 4.182266797193392449e+00
3.225379506049594891e-01 4.194541629388027104e+00
3.238790647443563486e-01 4.093987520052920104e+00
3.252201788837532082e-01 3.718546181667321093e+00
3.265612930231500122e-01 4.316137198250828533e+00
3.279024071625468717e-01 3.963927524645427525e+00
3.292435213019437312e-01 3.807176622713967618e+00
3.305846354413405908e-01 3.949989568637619186e+00
3.319257495807374503e-01 3.869102892674192162e+00
3.332668637201342543e-01 3.928307424904318168e+00
3.346079778595311138e-01 3.761033039823871604e+00
3.359490919989279734e-01 3.483640834911227557e+00
3.372902061383248329e-01 3.847987872760270989e+00
3.386313202777216924e-01 3.742401464843368331e+00
3.399724344171185519e-01 3.650048394962283282e+00
3.413135485565153560e-01 3.336035858757767869e+00
3.426546626959122155e-01 3.381063576800499959e+00
3.439957768353090750e-01 3.689178282726345515e+00
3.453368909747059345e-01 3.914058302905147002e+00
3.466780051141027941e-01 3.671979213776893403e+00
3.480191192534995981e-01 3.331473599764038340e+00
3.493602333928964576e-01 3.801331011961167405e+00
3.507013475322933171e-01 3.644048305491850215e+00
3.520424616716901767e-01 3.140241637913987915e+00
3.533835758110870362e-01 3.317574786459232428e+00
3.547246899504838957e-01 3.171546047518830846e+00
3.560658040898807553e-01 3.315711265072692981e+00
3.574069182292776148e-01 3.352516104407285980e+00
3.587480323686744743e-01 3.363162562941496958e+00
3.600891465080713338e-01 3.104296363055595975e+00
3.614302606474681934e-01 2.735116245259803236e+00
3.627713747868649974e-01 2.952157964622088571e+00
3.641124889262618569e-01 3.125346325773492140e+00
3.654536030656587164e-01 3.195172868182282855e+00
3.667947172050555760e-01 2.684081928287980645e+00
3.681358313444524355e-01 2.623892900330957900e+00
3.694769454838492950e-01 2.248523071053256217e+00
3.708180596232460990e-01 2.239279397531049653e+00
3.721591737626429586e-01 2.259602680580570677e+00
3.735002879020398181e-01 2.147283056746374541e+00
3.748414020414366776e-01 2.360582621916350377e+00
3.761825161808335372e-01 2.587745866321142785e+00
3.775236303202303967e-01 2.556203226449341059e+00
3.788647444596272007e-01 2.598329494561440356e+00
3.802058585990240602e-01 1.713823114288814509e+00
3.815469727384209198e-01 1.261294500482165404e+00
3.828880868778177793e-01 2.149595752532306392e+00
3.842292010172146388e-01 2.137100076879669075e+00
3.855703151566114428e-01 1.804338158506006096e+00
3.869114292960083024e-01 2.221505973234528142e+00
3.882525434354051619e-01 1.738293883870156264e+00
3.895936575748020214e-01 1.472076820035873368e+00
3.909347717141988809e-01 1.279076251311323631e+00
3.922758858535957405e-01 1.776659732541880032e+00
3.936169999929926000e-01 1.556499993123651393e+00
3.949581141323894595e-01 1.511874765988054037e+00
3.962992282717863191e-01 1.360884654786119086e+00
3.976403424111831786e-01 1.485657040658445283e+00
3.989814565505800381e-01 1.436640765000191777e+00
4.003225706899768976e-01 1.279810916566098911e+00
4.016636848293737572e-01 9.383810988991854174e-01
4.030047989687706167e-01 9.322729445837296680e-01
4.043459131081674207e-01 1.180902909141643420e+00
4.056870272475643358e-01 8.903907651833691261e-01
4.070281413869611398e-01 1.041671561250588240e+00
4.083692555263580548e-01 7.810188214692317388e-01
4.097103696657548588e-01 8.108016214151518852e-01
4.110514838051517739e-01 1.087178429192981355e+00
4.123925979445485779e-01 1.277497398751904711e+00
4.137337120839453819e-01 1.150735065676570912e+00
4.150748262233422969e-01 1.267543752563724979e+00
4.164159403627391010e-01 1.078560177210334814e+00
4.177570545021360160e-01 8.658053865372394853e-01
4.190981686415328200e-01 1.124084891902334959e+00
4.204392827809296240e-01 9.607927168806469354e-01
4.217803969203265391e-01 1.048203619843867784e+00
4.231215110597233431e-01 5.923296900823089572e-01
4.244626251991202581e-01 5.491642918089212344e-01
4.258037393385170621e-01 7.774595030772601945e-01
4.271448534779138662e-01 7.823355428211939966e-01
4.284859676173107812e-01 4.371825637860382585e-01
4.298270817567075852e-01 7.620489476863383516e-01
4.311681958961045003e-01 8.467555534709063636e-01
4.325093100355013043e-01 5.528236078412263055e-01
4.338504241748981638e-01 6.312791364733669752e-01
4.351915383142950233e-01 3.858482576822979127e-01
4.365326524536918829e-01 7.162103548272256148e-01
4.378737665930887424e-01 8.419432013434686723e-01
4.392148807324856019e-01 9.820154818774682326e-01
4.405559948718824614e-01 5.017772737088534996e-01
4.418971090112793210e-01 5.186732648183607353e-01
4.432382231506761250e-01 5.913156952302358604e-01
4.445793372900730400e-01 3.113921159212651446e-01
4.459204514294698440e-01 3.346156501568913200e-01
4.472615655688667591e-01 7.732993959559948394e-01
4.486026797082635631e-01 9.301985533702818998e-01
4.499437938476603671e-01 5.235189601139467186e-01
4.512849079870572822e-01 7.298822348879312472e-01
4.526260221264540862e-01 9.056169302106198415e-01
4.539671362658510012e-01 7.226368988056535159e-01
4.553082504052478052e-01 6.164897850744637253e-01
4.566493645446446092e-01 8.067257422422144941e-01
4.579904786840415243e-01 6.538500142640373269e-01
4.593315928234383283e-01 8.276003926413864065e-01
4.606727069628352433e-01 1.059127588969531075e+00
4.620138211022320474e-01 1.083385184488662389e+00
4.633549352416289624e-01 7.502424043830089317e-01
4.646960493810257664e-01 7.847533462909268565e-01
4.660371635204225704e-01 8.202991498746712296e-01
4.673782776598194855e-01 9.208607050375121617e-01
4.687193917992162895e-01 8.052161715978414236e-01
4.700605059386132045e-01 6.957103082952187378e-01
4.714016200780100085e-01 5.900411181345859291e-01
4.727427342174068681e-01 6.861297894535525188e-01
4.740838483568037276e-01 7.990760795558031759e-01
4.754249624962005871e-01 5.540056168448614926e-01
4.767660766355974467e-01 6.352122113275342485e-01
4.781071907749943062e-01 9.558821721630792467e-01
4.794483049143911102e-01 7.323731174148164769e-01
4.807894190537880252e-01 8.202886231848722787e-01
4.821305331931848293e-01 8.571382519435530867e-01
4.834716473325817443e-01 6.348562887321875792e-01
4.848127614719785483e-01 3.301300847028727503e-01
4.861538756113753523e-01 2.578031395212647681e-01
4.874949897507722674e-01 4.940130365632882103e-01
4.888361038901690714e-01 8.101401427843484271e-01
4.901772180295659864e-01 7.360920438841702662e-01
4.915183321689627904e-01 5.917069272037380756e-01
4.928594463083597055e-01 6.630557835571480041e-01
4.942005604477565095e-01 8.690352136439472019e-01
4.955416745871533135e-01 7.560213974862790565e-01
4.968827887265502286e-01 3.051384291479735111e-01
4.982239028659470326e-01 7.038428442947761710e-01
4.995650170053439476e-01 6.461334914950782604e-01
5.009061311447408071e-01 3.103336635616571471e-01
5.022472452841375556e-01 3.734140070029994263e-01
5.035883594235345262e-01 7.035970164343439137e-01
5.049294735629312747e-01 7.353340588755159501e-01
5.062705877023282452e-01 4.476744098428824259e-01
5.076117018417249938e-01 1.171399161028432445e-01
5.089528159811218533e-01 4.611569455955546459e-01
5.102939301205187128e-01 7.718896923464413362e-01
5.116350442599155723e-01 7.144852074295826583e-01
5.129761583993124319e-01 6.087386750055827633e-01
5.143172725387092914e-01 8.161611063760929596e-01
5.156583866781061509e-01 7.589728189922695378e-01
5.169995008175030105e-01 6.327208534929056327e-01
5.183406149568997590e-01 5.550328332594318681e-01
5.196817290962967295e-01 3.060519294597412454e-01
5.210228432356934780e-01 5.645143246492168032e-01
5.223639573750904486e-01 5.684425030763264886e-01
5.237050715144871971e-01 4.387632755406869478e-01
5.250461856538840566e-01 7.164452762386801510e-01
5.263872997932809161e-01 6.113861785499565826e-01
5.277284139326777757e-01 3.511837730954852077e-01
5.290695280720746352e-01 5.072715919194976664e-01
5.304106422114714947e-01 6.044014747175410207e-01
5.317517563508683542e-01 6.906793259042274258e-01
5.330928704902652138e-01 6.051416537443259358e-01
5.344339846296620733e-01 7.675807851460945130e-01
5.357750987690589328e-01 6.188517354324787334e-01
5.371162129084557924e-01 7.473636864545198932e-01
5.384573270478525409e-01 6.354624675809219525e-01
5.397984411872495114e-01 7.446926146968593230e-01
5.411395553266462599e-01 5.168688313253468891e-01
5.424806694660432305e-01 6.783107375286192564e-01
5.438217836054399790e-01 4.191572609416027717e-01
5.451628977448369495e-01 4.705092387922533703e-01
5.465040118842336980e-01 6.454149337100929529e-01
5.478451260236305576e-01 4.569129429324902958e-01
5.491862401630274171e-01 5.230736506117779072e-01
5.505273543024242766e-01 4.566985526966362841e-01
5.518684684418211361e-01 6.278375975202763470e-01
5.532095825812179957e-01 4.144681269673284874e-01
5.545506967206147442e-01 1.709337458011503941e-01
