# q (1/Angstrom), Intensity (arb)
2.078726924066784734e-02 1.534470826175220282e+02
2.212838338006469993e-02 2.684510060660496720e+02
2.346949751946154905e-02 3.913281995262507280e+02
2.481061165885840164e-02 5.372585371460910437e+02
2.615172579825525423e-02 6.021568529083444901e+02
2.749283993765210335e-02 6.327677134355756152e+02
2.883395407704895941e-02 6.594366482584620144e+02
3.017506821644580506e-02 6.744610997457562007e+02
3.151618235584265765e-02 6.739896699683613406e+02
3.285729649523951718e-02 6.757340211011337487e+02
3.419841063463636283e-02 6.738556629069823884e+02
3.553952477403321542e-02 6.694619605187948537e+02
3.688063891343006800e-02 6.619218322219330730e+02
3.822175305282692059e-02 6.558262853973711799e+02
3.956286719222376624e-02 6.549596554530571666e+02
4.090398133162062577e-02 6.518046512626705180e+02
4.224509547101747142e-02 6.480348293989277408e+02
4.358620961041432401e-02 6.454092032552078990e+02
4.492732374981117660e-02 6.413570299580339906e+02
4.626843788920802919e-02 6.411844940359844713e+02
4.760955202860488178e-02 6.429977928177499962e+02
4.895066616800172743e-02 6.384438844685017784e+02
5.029178030739858696e-02 6.331204369395288722e+02
5.163289444679544649e-02 6.314498497818365195e+02
5.297400858619229214e-02 6.314871275498734349e+02
5.431512272558913779e-02 6.264384658020849201e+02
5.565623686498599731e-02 6.223253956161896667e+02
5.699735100438284990e-02 6.174599610792586191e+02
5.833846514377969555e-02 6.128696189882248291e+02
5.967957928317654814e-02 6.094438437775796729e+02
6.102069342257340767e-02 6.035964998859326442e+02
6.236180756197025332e-02 5.984997432036558394e+02
6.370292170136709897e-02 5.962087453499120784e+02
6.504403584076395850e-02 5.935516630991430702e+02
6.638514998016080415e-02 5.896539181286914300e+02
6.772626411955766368e-02 5.831245085236080286e+02
6.906737825895450933e-02 5.748768167457141089e+02
7.040849239835136886e-02 5.685143758193933081e+02
7.174960653774821451e-02 5.591330294360965354e+02
7.309072067714506016e-02 5.511257252085312075e+02
7.443183481654190581e-02 5.440032468238832735e+02
7.577294895593877921e-02 5.381956119281383053e+02
7.711406309533562486e-02 5.303003131847480063e+02
7.845517723473247051e-02 5.217122926875268831e+02
7.979629137412933004e-02 5.150698441292936423e+02
8.113740551352617569e-02 5.096783740174222999e+02
8.247851965292302134e-02 5.033487752392888410e+02
8.381963379231988087e-02 4.943466148790855073e+02
8.516074793171674040e-02 4.845359006727375686e+02
8.650186207111358605e-02 4.787254023297351750e+02
8.784297621051043170e-02 4.708489505862100941e+02
8.918409034990729123e-02 4.629900692741156831e+02
9.052520448930413688e-02 4.559741023022122022e+02
9.186631862870098253e-02 4.491549553133809241e+02
9.320743276809784206e-02 4.409235812156888983e+02
9.454854690749470159e-02 4.356986830766618937e+02
9.588966104689154724e-02 4.270401887937355241e+02
9.723077518628839289e-02 4.180719492846783396e+02
9.857188932568525241e-02 4.098186354271045388e+02
9.991300346508209806e-02 4.029941276040425464e+02
1.012541176044789437e-01 3.949420979116005697e+02
1.025952317438758032e-01 3.873593070329566785e+02
1.039363458832726350e-01 3.792643892922311579e+02
1.052774600226694945e-01 3.731556934908802532e+02
1.066185741620663541e-01 3.676877165283039517e+02
1.079596883014631858e-01 3.582289892603566841e+02
1.093008024408600454e-01 3.506025402524517744e+02
1.106419165802569049e-01 3.450405920648955771e+02
1.119830307196537506e-01 3.379730971389418528e+02
1.133241448590506101e-01 3.297930381658011356e+02
1.146652589984474419e-01 3.218477263979314671e+02
1.160063731378443014e-01 3.151705947168844091e+02
1.173474872772411609e-01 3.059281910066437149e+02
1.186886014166380066e-01 3.005433142753826132e+02
1.200297155560348661e-01 2.952184520144851376e+02
1.213708296954317256e-01 2.876118551344961247e+02
1.227119438348285574e-01 2.801178133589491495e+02
1.240530579742254169e-01 2.729849220853958514e+02
1.253941721136222764e-01 2.670757898854742507e+02
1.267352862530191082e-01 2.604062447763636214e+02
1.280764003924159677e-01 2.532026061803948380e+02
1.294175145318128273e-01 2.473482033791502772e+02
1.307586286712096590e-01 2.400228327889414004e+02
1.320997428106065186e-01 2.337428741467280133e+02
1.334408569500033781e-01 2.285846626665076542e+02
1.347819710894002376e-01 2.221383723435433240e+02
1.361230852287970972e-01 2.169702302433641421e+02
1.374641993681939289e-01 2.106874909644251943e+02
1.388053135075907885e-01 2.045626187540089518e+02
1.401464276469876480e-01 1.983441266605706232e+02
1.414875417863844798e-01 1.935048440432665871e+02
1.428286559257813393e-01 1.886403271161632347e+02
1.441697700651781988e-01 1.830833731153558688e+02
1.455108842045750306e-01 1.770413348060671979e+02
1.468519983439718901e-01 1.724678418558436306e+02
1.481931124833687219e-01 1.665415641883988940e+02
1.495342266227655814e-01 1.623016074578735015e+02
1.508753407621624687e-01 1.560122838001198318e+02
1.522164549015593005e-01 1.508581900351022682e+02
1.535575690409561600e-01 1.466261708954403389e+02
1.548986831803530195e-01 1.420539147842268903e+02
1.562397973197498513e-01 1.373631966384276666e+02
1.575809114591467108e-01 1.328451354745773756e+02
1.589220255985435704e-01 1.284562762160738885e+02
1.602631397379404021e-01 1.240944923235772848e+02
1.616042538773372617e-01 1.193688205951683869e+02
1.629453680167341212e-01 1.146099402802141185e+02
1.642864821561309530e-01 1.108244131254612199e+02
1.656275962955278125e-01 1.066430281430999969e+02
1.669687104349246720e-01 1.022162538111065544e+02
1.683098245743215315e-01 9.851456228431995044e+01
1.696509387137183911e-01 9.543570797189170207e+01
1.709920528531152228e-01 9.258586486863320886e+01
1.723331669925120824e-01 8.881538323049167616e+01
1.736742811319089419e-01 8.454467545961681196e+01
1.750153952713057737e-01 8.057532854121177479e+01
1.763565094107026332e-01 7.785646317151184803e+01
1.776976235500994927e-01 7.472102977717024430e+01
1.790387376894963245e-01 7.162914605562012582e+01
1.803798518288931840e-01 6.899358426258638133e+01
1.817209659682900158e-01 6.574463272721004614e+01
1.830620801076868753e-01 6.340161729205978247e+01
1.844031942470837349e-01 6.036859440657178766e+01
1.857443083864805944e-01 5.767313513714339024e+01
1.870854225258774539e-01 5.480120023202292145e+01
1.884265366652743134e-01 5.240237014611793143e+01
1.897676508046711452e-01 4.940319456557980971e+01
1.911087649440680047e-01 4.743294926916323107e+01
1.924498790834648643e-01 4.541065518463273065e+01
1.937909932228616960e-01 4.401926586018643661e+01
1.951321073622585556e-01 4.137552860010920597e+01
1.964732215016554151e-01 3.884815727763523796e+01
1.978143356410522469e-01 3.682072620111303252e+01
1.991554497804491064e-01 3.521923480568142395e+01
2.004965639198459382e-01 3.372498328255065303e+01
2.018376780592427977e-01 3.212774683389274344e+01
2.031787921986396572e-01 3.077502492005254453e+01
2.045199063380365168e-01 2.880231578483014232e+01
2.058610204774333763e-01 2.701551807117235171e+01
2.072021346168302081e-01 2.547379887046133717e+01
2.085432487562270676e-01 2.467840506883209173e+01
2.098843628956239271e-01 2.274970489009692187e+01
2.112254770350207866e-01 2.157120006473034834e+01
2.125665911744176462e-01 2.070118548058148633e+01
2.139077053138144502e-01 1.896141931773296108e+01
2.152488194532113097e-01 1.760078881245061666e+01
2.165899335926081692e-01 1.631641657261052103e+01
2.179310477320050288e-01 1.522766203724680167e+01
2.192721618714018883e-01 1.504960197621517182e+01
2.206132760107987478e-01 1.402559606919120938e+01
2.219543901501955796e-01 1.279994404172532541e+01
2.232955042895924391e-01 1.171048318812579225e+01
2.246366184289892987e-01 1.128804858537213818e+01
2.259777325683861582e-01 1.055953201218004267e+01
2.273188467077830177e-01 9.620598747097020009e+00
2.286599608471798217e-01 8.789480275234808460e+00
2.300010749865766813e-01 8.649114601069115338e+00
2.313421891259735408e-01 8.169678772469751493e+00
2.326833032653704003e-01 7.175984954628276569e+00
2.340244174047672598e-01 6.872159278517329994e+00
2.353655315441641194e-01 6.770522808952364358e+00
2.367066456835609234e-01 6.318080876536726009e+00
2.380477598229577829e-01 5.607627750648006781e+00
2.393888739623546424e-01 4.960611429466609934e+00
2.407299881017515020e-01 4.611783387286678249e+00
2.420711022411483615e-01 3.606151516444086269e+00
2.434122163805451933e-01 3.765166182500564673e+00
2.447533305199420528e-01 3.696144115719320666e+00
2.460944446593389123e-01 3.565482479695845086e+00
2.474355587987357719e-01 3.162270012483276105e+00
2.487766729381326314e-01 2.626558027174596077e+00
2.501177870775294632e-01 2.908499900742896216e+00
2.514589012169263227e-01 2.555479532667746412e+00
2.528000153563231822e-01 2.127511361260445710e+00
2.541411294957200417e-01 2.375148129253744855e+00
2.554822436351169013e-01 2.301553518286780786e+00
2.568233577745137608e-01 2.554707073123580585e+00
2.581644719139106203e-01 2.416234150676103809e+00
2.595055860533074243e-01 1.660595192358755412e+00
2.608467001927042839e-01 1.245658269340680135e+00
2.621878143321011434e-01 1.747764568418958220e+00
2.635289284714980029e-01 1.924926388456754012e+00
2.648700426108948625e-01 2.044177518900966106e+00
2.662111567502916665e-01 2.184773184233378629e+00
2.675522708896885260e-01 2.147463812021598528e+00
2.688933850290853855e-01 1.995939436318892035e+00
2.702344991684822451e-01 2.174337867913038735e+00
2.715756133078791046e-01 2.104837335045345981e+00
2.729167274472759641e-01 1.879137907663306351e+00
2.742578415866727681e-01 2.015168065078952964e+00
2.755989557260696277e-01 2.712519946947452354e+00
2.769400698654664872e-01 2.674958464742303477e+00
2.782811840048633467e-01 2.457689409617941578e+00
2.796222981442602062e-01 2.153881853558630155e+00
2.809634122836570103e-01 2.874540380511163562e+00
2.823045264230538698e-01 2.520589747836012862e+00
2.836456405624507293e-01 2.288689126534393381e+00
2.849867547018475888e-01 2.359857304852994275e+00
2.863278688412444484e-01 2.870681228433554111e+00
2.876689829806413079e-01 2.402212742236827125e+00
2.890100971200381674e-01 2.458536180517896241e+00
2.903512112594350270e-01 2.732266174065316022e+00
2.916923253988318865e-01 3.052248771089836055e+00
2.930334395382287460e-01 3.124871082618867035e+00
2.943745536776256055e-01 2.954284740434971468e+00
2.957156678170224096e-01 3.168532841385868437e+00
2.970567819564192691e-01 3.339510949905559301e+00
2.983978960958161286e-01 2.996081031893126578e+00
2.997390102352129881e-01 3.368815576481836160e+00
3.010801243746098477e-01 3.767150757668005667e+00
3.024212385140067072e-01 3.586632282662705506e+00
3.037623526534035112e-01 3.631984076538827821e+00
3.051034667928003707e-01 3.398738005179978927e+00
3.064445809321972303e-01 3.588608596726515998e+00
3.077856950715940898e-01 3.642975143227189960e+00
3.091268092109909493e-01 3.557678231154426385e+00
3.104679233503877533e-01 3.902194846591797273e+00
3.118090374897846129e-01 4.037723350810864531e+00
3.131501516291814724e-01 3.635258870846925561e+00
3.144912657685783319e-01 3.893024042660215400e+00
3.158323799079751915e-01 4.531056511906697892e+00
3.171734940473720510e-01 4.045514814470195120e+00
3.185146081867689105e-01 4.056844484759224656e+00
3.198557223261657700e-01 4.321516382788018973e+00
3.211968364655626296e-01 4.108096167799303089e+00
3.225379506049594891e-01 3.812337454790522884e+00
3.238790647443563486e-01 3.791381321772647084e+00
3.252201788837532082e-01 4.179558976335613352e+00
3.265612930231500122e-01 4.184440196192156236e+00
3.279024071625468717e-01 4.049754220831374596e+00
3.292435213019437312e-01 4.187020617553784518e+00
3.305846354413405908e-01 4.082834232589917178e+00
3.319257495807374503e-01 4.041867086411414789e+00
3.332668637201342543e-01 3.983825783934932474e+00
3.346079778595311138e-01 3.986173922625368959e+00
3.359490919989279734e-01 3.385383034521993295e+00
3.372902061383248329e-01 3.645891453436320262e+00
3.386313202777216924e-01 3.774242067061919670e+00
3.399724344171185519e-01 3.745794137595567008e+00
3.413135485565153560e-01 4.122953816464288934e+00
3.426546626959122155e-01 3.974906724891738463e+00
3.439957768353090750e-01 3.648160310523024918e+00
3.453368909747059345e-01 3.202320630999992090e+00
3.466780051141027941e-01 3.145962847886295322e+00
3.480191192534995981e-01 3.429390971071029526e+00
3.493602333928964576e-01 3.656459790364735341e+00
3.507013475322933171e-01 3.525946311966734470e+00
3.520424616716901767e-01 3.524724361739771439e+00
3.533835758110870362e-01 3.110929690827475724e+00
3.547246899504838957e-01 2.938874498803912161e+00
3.560658040898807553e-01 3.152912934675697443e+00
3.574069182292776148e-01 3.062475639764414836e+00
3.587480323686744743e-01 2.907048834258276315e+00
3.600891465080713338e-01 2.685420185825435624e+00
3.614302606474681934e-01 2.696800222171859218e+00
3.627713747868649974e-01 2.386359424457950240e+00
3.641124889262618569e-01 2.335795685850200698e+00
3.654536030656587164e-01 2.610468426632579053e+00
3.667947172050555760e-01 2.797799547782517493e+00
3.681358313444524355e-01 2.695226943076079351e+00
3.694769454838492950e-01 2.361906282365964671e+00
3.708180596232460990e-01 2.464861300776988173e+00
3.721591737626429586e-01 2.603523941986907175e+00
3.735002879020398181e-01 2.621840173767026272e+00
3.748414020414366776e-01 2.350399999690488073e+00
3.761825161808335372e-01 2.515181171184885045e+00
3.775236303202303967e-01 2.084377473499557709e+00
3.788647444596272007e-01 1.942673939097460334e+00
3.802058585990240602e-01 2.316925389268710944e+00
3.815469727384209198e-01 1.971634697282723891e+00
3.828880868778177793e-01 1.944620925174874060e+00
3.842292010172146388e-01 1.938434459876653193e+00
3.855703151566114428e-01 1.897777689974979864e+00
3.869114292960083024e-01 1.559191634863701381e+00
3.882525434354051619e-01 2.180397789519254559e+00
3.895936575748020214e-01 1.815885586416655428e+00
3.909347717141988809e-01 1.827506322859058230e+00
3.922758858535957405e-01 1.519482162793551083e+00
3.936169999929926000e-01 1.363813056513201616e+00
3.949581141323894595e-01 1.739515857796391174e+00
3.962992282717863191e-01 1.639869554710671196e+00
3.976403424111831786e-01 1.188788826189401959e+00
3.989814565505800381e-01 1.198853915717513985e+00
4.003225706899768976e-01 1.762366907144389927e+00
4.016636848293737572e-01 1.691973339996224013e+00
4.030047989687706167e-01 1.095398638508093825e+00
4.043459131081674207e-01 1.188353640279210310e+00
4.056870272475643358e-01 1.370187065323378306e+00
4.070281413869611398e-01 1.354326862285738287e+00
4.083692555263580548e-01 1.354075889941512401e+00
4.097103696657548588e-01 1.511694049587198663e+00
4.110514838051517739e-01 1.499757624332453076e+00
4.123925979445485779e-01 1.500940168115931783e+00
4.137337120839453819e-01 1.045882580759510461e+00
4.150748262233422969e-01 1.182828984098470926e+00
4.164159403627391010e-01 7.779703887245901228e-01
4.177570545021360160e-01 8.932168044025630138e-01
4.190981686415328200e-01 1.072357489858255519e+00
4.204392827809296240e-01 8.163478453685897307e-01
4.217803969203265391e-01 8.377585292065177214e-01
4.231215110597233431e-01 9.918660506190732917e-01
4.244626251991202581e-01 7.619799481892002291e-01
4.258037393385170621e-01 8.023343195255776550e-01
4.271448534779138662e-01 1.044309410611461431e+00
4.284859676173107812e-01 1.100785153642760861e+00
4.298270817567075852e-01 1.073730946149964893e+00
4.311681958961045003e-01 6.251087841745217588e-01
4.325093100355013043e-01 6.783456872751472133e-01
4.338504241748981638e-01 1.094658180984588114e+00
4.351915383142950233e-01 8.193850389106387411e-01
4.365326524536918829e-01 5.636779804046270215e-01
4.378737665930887424e-01 5.869974017058794402e-01
4.392148807324856019e-01 8.354468608586742562e-01
4.405559948718824614e-01 7.451174380795961838e-01
4.418971090112793210e-01 6.112241876114268280e-01
4.432382231506761250e-01 2.779037708447376076e-01
4.445793372900730400e-01 4.943517285117806637e-01
4.459204514294698440e-01 7.252093301688304905e-01
4.472615655688667591e-01 7.075482894416538215e-01
4.486026797082635631e-01 8.182579496068385083e-01
4.499437938476603671e-01 7.230276331813740853e-01
4.512849079870572822e-01 7.530356870672605396e-01
4.526260221264540862e-01 8.899252924090887973e-01
4.539671362658510012e-01 1.014869706822743467e+00
4.553082504052478052e-01 8.396578684871727205e-01
4.566493645446446092e-01 5.555473888279820471e-01
4.579904786840415243e-01 3.953660750855192418e-01
4.593315928234383283e-01 6.155037602996600299e-01
4.606727069628352433e-01 8.145668058960282565e-01
4.620138211022320474e-01 8.815261762409676294e-01
4.633549352416289624e-01 5.005966932616203735e-01
4.646960493810257664e-01 7.472454803176873384e-01
4.660371635204225704e-01 8.425954983824084366e-01
4.673782776598194855e-01 6.048997028487761440e-01
4.687193917992162895e-01 5.529119659689527566e-01
4.700605059386132045e-01 7.170951864078745075e-01
4.714016200780100085e-01 6.281715640720477722e-01
4.727427342174068681e-01 4.927487046554261951e-01
4.740838483568037276e-01 7.537078842419191460e-01
4.754249624962005871e-01 7.539054659687920434e-01
4.767660766355974467e-01 7.865004196593261554e-01
4.781071907749943062e-01 7.991441113419526232e-01
4.794483049143911102e-01 9.810358898600952671e-01
4.807894190537880252e-01 7.640235197467006856e-01
4.821305331931848293e-01 6.031566025435566303e-01
4.834716473325817443e-01 7.892653761191539274e-01
4.848127614719785483e-01 1.034527801614991915e+00
4.861538756113753523e-01 6.886416358944345006e-01
4.874949897507722674e-01 6.721483081828480977e-01
4.888361038901690714e-01 5.840214685835078967e-01
4.901772180295659864e-01 4.966147461341918756e-01
4.915183321689627904e-01 6.707251413437589349e-01
4.928594463083597055e-01 7.061879537284596609e-01
4.942005604477565095e-01 8.487609620828067136e-01
4.955416745871533135e-01 7.643679687660593913e-01
4.968827887265502286e-01 1.004316890616671287e+00
4.982239028659470326e-01 6.505540161533645005e-01
4.995650170053439476e-01 5.249429467997828169e-01
5.009061311447408071e-01 9.073857751096738866e-01
5.022472452841375556e-01 7.871370845933611804e-01
5.035883594235345262e-01 4.268227285486290157e-01
5.049294735629312747e-01 4.517192259897768736e-01
5.062705877023282452e-01 7.502326327351767077e-01
5.076117018417249938e-01 8.322391419551991021e-01
5.089528159811218533e-01 1.077387866141364725e+00
5.102939301205187128e-01 9.026435563689432229e-01
5.116350442599155723e-01 7.171055437062463511e-01
5.129761583993124319e-01 2.240701317565481077e-01
5.143172725387092914e-01 4.580750269660285312e-01
5.156583866781061509e-01 9.035771145184483544e-01
5.169995008175030105e-01 8.988779426741118073e-01
5.183406149568997590e-01 9.028444356543730009e-01
5.196817290962967295e-01 9.789322737843235700e-01
5.210228432356934780e-01 4.662563636858578775e-01
5.223639573750904486e-01 8.291260428986362285e-01
5.237050715144871971e-01 8.239231317764463824e-01
5.250461856538840566e-01 8.849426699734479485e-01
5.263872997932809161e-01 8.218089175511096300e-01
5.277284139326777757e-01 6.415562797756635405e-01
5.290695280720746352e-01 5.466651577126810935e-01
5.304106422114714947e-01 8.083143416531157754e-01
5.317517563508683542e-01 8.260669811211940328e-01
5.330928704902652138e-01 8.858605190504107441e-01
5.344339846296620733e-01 8.750437075373085349e-01
5.357750987690589328e-01 7.868455207030606857e-01
5.371162129084557924e-01 1.194679673799171837e+00
5.384573270478525409e-01 1.071446693259808569e+00
5.397984411872495114e-01 9.923623415162765582e-01
5.411395553266462599e-01 1.047386859574750417e+00
5.424806694660432305e-01 6.724448870540342682e-01
5.438217836054399790e-01 7.059062314614195088e-01
5.451628977448369495e-01 7.213473448236342733e-01
5.465040118842336980e-01 5.805336903622873024e-01
5.478451260236305576e-01 5.270429410542831761e-01
5.491862401630274171e-01 2.278709343692284506e-01
5.505273543024242766e-01 4.318999228843196647e-01
5.518684684418211361e-01 3.675858238145508494e-01
5.532095825812179957e-01 3.108841235194930164e-01
5.545506967206147442e-01 4.840951677693396960e-01
