# q (1/Angstrom), Intensity (arb)
2.078726924066784734e-02 1.564872081598867908e+02
2.212838338006469993e-02 2.769007520074230797e+02
2.346949751946154905e-02 4.014301192479742895e+02
2.481061165885840164e-02 5.470305510336718271e+02
2.615172579825525423e-02 6.157998077299281476e+02
2.749283993765210335e-02 6.443939519387565724e+02
2.883395407704895941e-02 6.675054797382240395e+02
3.017506821644580506e-02 6.798509670412302057e+02
3.151618235584265765e-02 6.860151704411983928e+02
3.285729649523951718e-02 6.840285553397801550e+02
3.419841063463636283e-02 6.790198526355093236e+02
3.553952477403321542e-02 6.780296785644129614e+02
3.688063891343006800e-02 6.749190768478098335e+02
3.822175305282692059e-02 6.698169446659966297e+02
3.956286719222376624e-02 6.658442003154610802e+02
4.090398133162062577e-02 6.628273372754191541e+02
4.224509547101747142e-02 6.594047916112283474e+02
4.358620961041432401e-02 6.576585473478770609e+02
4.492732374981117660e-02 6.529964746741778754e+02
4.626843788920802919e-02 6.531672753222278516e+02
4.760955202860488178e-02 6.543557793420912958e+02
4.895066616800172743e-02 6.523573985988602999e+02
5.029178030739858696e-02 6.474806080924608978e+02
5.163289444679544649e-02 6.417507080684565608e+02
5.297400858619229214e-02 6.400021264952356432e+02
5.431512272558913779e-02 6.391135144801204433e+02
5.565623686498599731e-02 6.359288325478722754e+02
5.699735100438284990e-02 6.292343700186391970e+02
5.833846514377969555e-02 6.267883843168724525e+02
5.967957928317654814e-02 6.249825648970430620e+02
6.102069342257340767e-02 6.193297610893921501e+02
6.236180756197025332e-02 6.123718692800805456e+02
6.370292170136709897e-02 6.056203265671185818e+02
6.504403584076395850e-02 6.041029618563314898e+02
6.638514998016080415e-02 6.005771860027747380e+02
6.772626411955766368e-02 5.927877711897377822e+02
6.906737825895450933e-02 5.859906585843420999e+02
7.040849239835136886e-02 5.784916205128760112e+02
7.174960653774821451e-02 5.701268680934263102e+02
7.309072067714506016e-02 5.627564381378971348e+02
7.443183481654190581e-02 5.552437913946895378e+02
7.577294895593877921e-02 5.479610446078839914e+02
7.711406309533562486e-02 5.427639915112172275e+02
7.845517723473247051e-02 5.343903570321799634e+02
7.979629137412933004e-02 5.277572632611784229e+02
8.113740551352617569e-02 5.197587903972482763e+02
8.247851965292302134e-02 5.119481061478028323e+02
8.381963379231988087e-02 5.055803199886134962e+02
8.516074793171674040e-02 4.972415368465304937e+02
8.650186207111358605e-02 4.898520250259790600e+02
8.784297621051043170e-02 4.800583544617310281e+02
8.918409034990729123e-02 4.723279810782372010e+02
9.052520448930413688e-02 4.646911821154109816e+02
9.186631862870098253e-02 4.565400238253956786e+02
9.320743276809784206e-02 4.497158140900828016e+02
9.454854690749470159e-02 4.406598539693865177e+02
9.588966104689154724e-02 4.329453568863817736e+02
9.723077518628839289e-02 4.264193020130958303e+02
9.857188932568525241e-02 4.190205684956326877e+02
9.991300346508209806e-02 4.100112263745039627e+02
1.012541176044789437e-01 4.021024171935192726e+02
1.025952317438758032e-01 3.946425907401610402e+02
1.039363458832726350e-01 3.859722864315278343e+02
1.052774600226694945e-01 3.792163003605126619e+02
1.066185741620663541e-01 3.718669617204371320e+02
1.079596883014631858e-01 3.627828337199861153e+02
1.093008024408600454e-01 3.562717295348081166e+02
1.106419165802569049e-01 3.497877250034155168e+02
1.119830307196537506e-01 3.417571801111889727e+02
1.133241448590506101e-01 3.335332281036097015e+02
1.146652589984474419e-01 3.257071231051537552e+02
1.160063731378443014e-01 3.199569561949223271e+02
1.173474872772411609e-01 3.131073464868655947e+02
1.186886014166380066e-01 3.049223898588259090e+02
1.200297155560348661e-01 2.984786838624690972e+02
1.213708296954317256e-01 2.900798517996562396e+02
1.227119438348285574e-01 2.835457914930553898e+02
1.240530579742254169e-01 2.782567585730387805e+02
1.253941721136222764e-01 2.715531507542683585e+02
1.267352862530191082e-01 2.647399410299639158e+02
1.280764003924159677e-01 2.591287091706245747e+02
1.294175145318128273e-01 2.533251573888708208e+02
1.307586286712096590e-01 2.452050958973119350e+02
1.320997428106065186e-01 2.384633168235319545e+02
1.334408569500033781e-01 2.319757036768552894e+02
1.347819710894002376e-01 2.266360930510879825e+02
1.361230852287970972e-01 2.197643841742216182e+02
1.374641993681939289e-01 2.139973825682491224e+02
1.388053135075907885e-01 2.072035882568835632e+02
1.401464276469876480e-01 2.002614399449909115e+02
1.414875417863844798e-01 1.947496555952317863e+02
1.428286559257813393e-01 1.903847201812612866e+02
1.441697700651781988e-01 1.849221008528041637e+02
1.455108842045750306e-01 1.793405824261046746e+02
1.468519983439718901e-01 1.743907151395959829e+02
1.481931124833687219e-01 1.690535968465795804e+02
1.495342266227655814e-01 1.634755526176663807e+02
1.508753407621624687e-01 1.585516627220586656e+02
1.522164549015593005e-01 1.535076911094248260e+02
1.535575690409561600e-01 1.489636405608561631e+02
1.548986831803530195e-01 1.440643019603234052e+02
1.562397973197498513e-01 1.384513966263750433e+02
1.575809114591467108e-01 1.335903207060305249e+02
1.589220255985435704e-01 1.301280786799983957e+02
1.602631397379404021e-01 1.256540250624251485e+02
1.616042538773372617e-01 1.205664180394866065e+02
1.629453680167341212e-01 1.162878668710351349e+02
1.642864821561309530e-01 1.118269019014936134e+02
1.656275962955278125e-01 1.075999434657704086e+02
1.669687104349246720e-01 1.037539628728213188e+02
1.683098245743215315e-01 1.002692123428761164e+02
1.696509387137183911e-01 9.664528829899217044e+01
1.709920528531152228e-01 9.324018172920500547e+01
1.723331669925120824e-01 8.927518039861892873e+01
1.736742811319089419e-01 8.601315665064255711e+01
1.750153952713057737e-01 8.244990580147796777e+01
1.763565094107026332e-01 7.771338075459991046e+01
1.776976235500994927e-01 7.503531786836317963e+01
1.790387376894963245e-01 7.250739734097305700e+01
1.803798518288931840e-01 6.920979246610849600e+01
1.817209659682900158e-01 6.570316735622424176e+01
1.830620801076868753e-01 6.295037117181918518e+01
1.844031942470837349e-01 6.021678128390428242e+01
1.857443083864805944e-01 5.791169426955516997e+01
1.870854225258774539e-01 5.541352843641736570e+01
1.884265366652743134e-01 5.275030491219854412e+01
1.897676508046711452e-01 5.087499701550811437e+01
1.911087649440680047e-01 4.820059179701331686e+01
1.924498790834648643e-01 4.563517641864490315e+01
1.937909932228616960e-01 4.393324997874189819e+01
1.951321073622585556e-01 4.135602763088265021e+01
1.964732215016554151e-01 3.914790972836911465e+01
1.978143356410522469e-01 3.776556661337241394e+01
1.991554497804491064e-01 3.564199083139652657e+01
2.004965639198459382e-01 3.275759955888393904e+01
2.018376780592427977e-01 3.109582179408617719e+01
2.031787921986396572e-01 2.956315338066359288e+01
2.045199063380365168e-01 2.782521185274610787e+01
2.058610204774333763e-01 2.661846176413435217e+01
2.072021346168302081e-01 2.502697395903213362e+01
2.085432487562270676e-01 2.413349168994213301e+01
2.098843628956239271e-01 2.322411883427601254e+01
2.112254770350207866e-01 2.171082172356769036e+01
2.125665911744176462e-01 2.048733442109292469e+01
2.139077053138144502e-01 1.853823974075204717e+01
2.152488194532113097e-01 1.770234878500001230e+01
2.165899335926081692e-01 1.626007628434372521e+01
2.179310477320050288e-01 1.534533835615938813e+01
2.192721618714018883e-01 1.477253019832151892e+01
2.206132760107987478e-01 1.346827007035773249e+01
2.219543901501955796e-01 1.245454920954385614e+01
2.232955042895924391e-01 1.228835953668185255e+01
2.246366184289892987e-01 1.165289235755703601e+01
2.259777325683861582e-01 1.096120201116006854e+01
2.273188467077830177e-01 9.879813031734286710e+00
2.286599608471798217e-01 9.633073304298775952e+00
2.300010749865766813e-01 8.765463147760357288e+00
2.313421891259735408e-01 7.615519380373783065e+00
2.326833032653704003e-01 7.131151078757739015e+00
2.340244174047672598e-01 6.910992449835703155e+00
2.353655315441641194e-01 6.224725343600354677e+00
2.367066456835609234e-01 5.430596101277686216e+00
2.380477598229577829e-01 5.278941532986166862e+00
2.393888739623546424e-01 5.132270712648889344e+00
2.407299881017515020e-01 4.574099318052333274e+00
2.420711022411483615e-01 4.967798452507082629e+00
2.434122163805451933e-01 4.139631961972739305e+00
2.447533305199420528e-01 3.737439747668318546e+00
2.460944446593389123e-01 3.605385903073980103e+00
2.474355587987357719e-01 3.823558641691391813e+00
2.487766729381326314e-01 3.890159892209027248e+00
2.501177870775294632e-01 3.398017674134237609e+00
2.514589012169263227e-01 2.586378247359562010e+00
2.528000153563231822e-01 2.413411634326109834e+00
2.541411294957200417e-01 2.856046077734802680e+00
2.554822436351169013e-01 2.452846603614730725e+00
2.568233577745137608e-01 2.535398716459994262e+00
2.581644719139106203e-01 2.644421098529221581e+00
2.595055860533074243e-01 2.300439413678816436e+00
2.608467001927042839e-01 2.392799971770571688e+00
2.621878143321011434e-01 2.988920163994265522e+00
2.635289284714980029e-01 2.709391603103867396e+00
2.648700426108948625e-01 2.619517119067623412e+00
2.662111567502916665e-01 2.861593373535285423e+00
2.675522708896885260e-01 2.875218288871522532e+00
2.688933850290853855e-01 2.141798635447941024e+00
2.702344991684822451e-01 2.626983881805074361e+00
2.715756133078791046e-01 2.623164680528788040e+00
2.729167274472759641e-01 2.557956006033094809e+00
2.742578415866727681e-01 3.015188168660785095e+00
2.755989557260696277e-01 2.533487916199661072e+00
2.769400698654664872e-01 2.765571396683654370e+00
2.782811840048633467e-01 2.788286282754938838e+00
2.796222981442602062e-01 2.640198968275541347e+00
2.809634122836570103e-01 2.725376090720914135e+00
2.823045264230538698e-01 2.805637850059284233e+00
2.836456405624507293e-01 2.974550720688895922e+00
2.849867547018475888e-01 3.181445745178038464e+00
2.863278688412444484e-01 3.095903654791300141e+00
2.876689829806413079e-01 2.966788508199300622e+00
2.890100971200381674e-01 3.239238453137815554e+00
2.903512112594350270e-01 3.609759340149196305e+00
2.916923253988318865e-01 3.316719659437978862e+00
2.930334395382287460e-01 3.688572817009344362e+00
2.943745536776256055e-01 3.828617727700631690e+00
2.957156678170224096e-01 3.810673017146200436e+00
2.970567819564192691e-01 3.805212617282677456e+00
2.983978960958161286e-01 4.086452248078273897e+00
2.997390102352129881e-01 3.816784997222924858e+00
3.010801243746098477e-01 3.756084944297214179e+00
3.024212385140067072e-01 3.610955869444552491e+00
3.037623526534035112e-01 3.923474902991870294e+00
3.051034667928003707e-01 3.781057814299700226e+00
3.064445809321972303e-01 3.804359227260775356e+00
3.077856950715940898e-01 3.934329372905239097e+00
3.091268092109909493e-01 3.994239743304163426e+00
3.104679233503877533e-01 4.553691624283857209e+00
3.118090374897846129e-01 4.623158522200441212e+00
3.131501516291814724e-01 4.292524604666340338e+00
3.144912657685783319e-01 3.897475559036990944e+00
3.158323799079751915e-01 4.092574146303803673e+00
3.171734940473720510e-01 3.464586788747169521e+00
3.185146081867689105e-01 3.811662158046303261e+00
3.198557223261657700e-01 4.033734437257010086e+00
3.211968364655626296e-01 3.925011349888038126e+00
3.225379506049594891e-01 4.175891687354138071e+00
3.238790647443563486e-01 4.413777173171084200e+00
3.252201788837532082e-01 4.434275693786332795e+00
3.265612930231500122e-01 3.904431052202696151e+00
3.279024071625468717e-01 4.017646260609396336e+00
3.292435213019437312e-01 4.080060045051013162e+00
3.305846354413405908e-01 4.147894081996909676e+00
3.319257495807374503e-01 3.814345369438811417e+00
3.332668637201342543e-01 3.722070945053928881e+00
3.346079778595311138e-01 3.374779660530208503e+00
3.359490919989279734e-01 3.835430572637591240e+00
3.372902061383248329e-01 3.848326987845837266e+00
3.386313202777216924e-01 4.032232671284660341e+00
3.399724344171185519e-01 3.538248354778190219e+00
3.413135485565153560e-01 3.011047758659756823e+00
3.426546626959122155e-01 2.796701663539550964e+00
3.439957768353090750e-01 3.344216863979198706e+00
3.453368909747059345e-01 3.482516172991822145e+00
3.466780051141027941e-01 3.557504632017938206e+00
3.480191192534995981e-01 3.222413282084630737e+00
3.493602333928964576e-01 3.305894510522378482e+00
3.507013475322933171e-01 3.032566265372238945e+00
3.520424616716901767e-01 3.318567290382887336e+00
3.533835758110870362e-01 3.343594752015235372e+00
3.547246899504838957e-01 2.858615947155584536e+00
3.560658040898807553e-01 2.752353606090949256e+00
3.574069182292776148e-01 2.521432471794184949e+00
3.587480323686744743e-01 2.559719525424583253e+00
3.600891465080713338e-01 3.154708924560793548e+00
3.614302606474681934e-01 3.081119662421130556e+00
3.627713747868649974e-01 3.143797439590983345e+00
3.641124889262618569e-01 3.043900788629954945e+00
3.654536030656587164e-01 2.710196048133738600e+00
3.667947172050555760e-01 2.350920092576913589e+00
3.681358313444524355e-01 2.354912063840600922e+00
3.694769454838492950e-01 2.366899247522184169e+00
3.708180596232460990e-01 2.814302437662263401e+00
3.721591737626429586e-01 2.863057378811689091e+00
3.735002879020398181e-01 2.378232199976636707e+00
3.748414020414366776e-01 1.894439187347344955e+00
3.761825161808335372e-01 1.802847898314539066e+00
3.775236303202303967e-01 1.738301111858021386e+00
3.788647444596272007e-01 2.139879781654506985e+00
3.802058585990240602e-01 2.281960391966343593e+00
3.815469727384209198e-01 2.255456020101455294e+00
3.828880868778177793e-01 2.339186287412999832e+00
3.842292010172146388e-01 1.858819791302863678e+00
3.855703151566114428e-01 1.872473844722620129e+00
3.869114292960083024e-01 1.612835203491435720e+00
3.882525434354051619e-01 1.253921532686518958e+00
3.895936575748020214e-01 1.249806492816851744e+00
3.909347717141988809e-01 1.340359444663654642e+00
3.922758858535957405e-01 1.198913021503273058e+00
3.936169999929926000e-01 1.677809111818923782e+00
3.949581141323894595e-01 1.071123080839903707e+00
3.962992282717863191e-01 1.132891718464648534e+00
3.976403424111831786e-01 1.546343348162579900e+00
3.989814565505800381e-01 1.478734604976366995e+00
4.003225706899768976e-01 1.232918259573551722e+00
4.016636848293737572e-01 1.103451488119503665e+00
4.030047989687706167e-01 1.419751361125520361e+00
4.043459131081674207e-01 1.325241490968267044e+00
4.056870272475643358e-01 1.306726950934006481e+00
4.070281413869611398e-01 1.348886366408130755e+00
4.083692555263580548e-01 1.286093907884044540e+00
4.097103696657548588e-01 9.078311191660404234e-01
4.110514838051517739e-01 1.122774640904097510e+00
4.123925979445485779e-01 1.479410405632002323e+00
4.137337120839453819e-01 1.244511930958481116e+00
4.150748262233422969e-01 5.688927713940117314e-01
4.164159403627391010e-01 6.557037056468359992e-01
4.177570545021360160e-01 6.913068131537727368e-01
4.190981686415328200e-01 5.471442070010184011e-01
4.204392827809296240e-01 4.987584976947729842e-01
4.217803969203265391e-01 9.620486813229547352e-01
4.231215110597233431e-01 8.820325772840220679e-01
4.244626251991202581e-01 6.355508843286017395e-01
4.258037393385170621e-01 5.572029228001085244e-01
4.271448534779138662e-01 9.855868768076803121e-01
4.284859676173107812e-01 1.007241757698672302e+00
4.298270817567075852e-01 6.903931894978541095e-01
4.311681958961045003e-01 8.969180721795595446e-01
4.325093100355013043e-01 9.249313652374482331e-01
4.338504241748981638e-01 6.937816847410189780e-01
4.351915383142950233e-01 7.534719442299291359e-01
4.365326524536918829e-01 7.428581955144508697e-01
4.378737665930887424e-01 7.580588960990368719e-01
4.392148807324856019e-01 7.975089934602763719e-01
4.405559948718824614e-01 9.138414900837261712e-01
4.418971090112793210e-01 8.571130627363601207e-01
4.432382231506761250e-01 3.576239690741687127e-01
4.445793372900730400e-01 2.436378631936548800e-01
4.459204514294698440e-01 2.553974304003574503e-01
4.472615655688667591e-01 8.742181044294099479e-01
4.486026797082635631e-01 8.752676273774113724e-01
4.499437938476603671e-01 6.888380028349132544e-01
4.512849079870572822e-01 7.085708593618349482e-01
4.526260221264540862e-01 8.588566689665668719e-01
4.539671362658510012e-01 9.902725684470752299e-01
4.553082504052478052e-01 1.226487747557477803e+00
4.566493645446446092e-01 7.208685293364922586e-01
4.579904786840415243e-01 3.771547090644205014e-01
4.593315928234383283e-01 5.191396440781588240e-01
4.606727069628352433e-01 6.923354871869307203e-01
4.620138211022320474e-01 5.589263707350582422e-01
4.633549352416289624e-01 1.997570713885963301e-01
4.646960493810257664e-01 3.222082884180608175e-01
4.660371635204225704e-01 7.027048723087503390e-01
4.673782776598194855e-01 1.022649290386915766e+00
4.687193917992162895e-01 8.076060303064522827e-01
4.700605059386132045e-01 1.025393578266978523e+00
4.714016200780100085e-01 7.678531258415475236e-01
4.727427342174068681e-01 9.035157154620847564e-01
4.740838483568037276e-01 6.970027211385954047e-01
4.754249624962005871e-01 4.294392100779163002e-01
4.767660766355974467e-01 4.926052563818217322e-01
4.781071907749943062e-01 4.877789875489071392e-01
4.794483049143911102e-01 6.537900431267971157e-01
4.807894190537880252e-01 5.252560928531764262e-01
4.821305331931848293e-01 4.963787571926872033e-01
4.834716473325817443e-01 6.218330869016668316e-01
4.848127614719785483e-01 7.773204760214582620e-01
4.861538756113753523e-01 8.401137634853128588e-01
4.874949897507722674e-01 7.918375134979669383e-01
4.888361038901690714e-01 6.898413540878749473e-01
4.901772180295659864e-01 5.699845052427434666e-01
4.915183321689627904e-01 6.822600003849572659e-01
4.928594463083597055e-01 8.324478928820013834e-01
4.942005604477565095e-01 8.350761202859189325e-01
4.955416745871533135e-01 6.273941258628781270e-01
4.968827887265502286e-01 6.000428198030078875e-01
4.982239028659470326e-01 4.221867788099302743e-01
4.995650170053439476e-01 2.381212273857258310e-01
5.009061311447408071e-01 4.741417168175985353e-01
5.022472452841375556e-01 4.270603628631448601e-01
5.035883594235345262e-01 7.947921545457035108e-01
5.049294735629312747e-01 8.004122427511219939e-01
5.062705877023282452e-01 7.151948992391297111e-01
5.076117018417249938e-01 7.343348238966243002e-01
5.089528159811218533e-01 6.594300959637422466e-01
5.102939301205187128e-01 3.564274546375472141e-01
5.116350442599155723e-01 5.369105801969737968e-01
5.129761583993124319e-01 3.584408459670882507e-01
5.143172725387092914e-01 4.431523851918370838e-01
5.156583866781061509e-01 2.943338608905818887e-01
5.169995008175030105e-01 2.757530946201711686e-01
5.183406149568997590e-01 3.687534649119328378e-01
5.196817290962967295e-01 5.683158981276719146e-01
5.210228432356934780e-01 4.522336354099039113e-01
5.223639573750904486e-01 6.818734319407298017e-01
5.237050715144871971e-01 5.628944255734040780e-01
5.250461856538840566e-01 4.903453810215836484e-01
5.263872997932809161e-01 7.422986953363661655e-01
5.277284139326777757e-01 1.086661266089755884e+00
5.290695280720746352e-01 9.332782561562353862e-01
5.304106422114714947e-01 1.141937446513182408e+00
5.317517563508683542e-01 9.561106136940722422e-01
5.330928704902652138e-01 7.466985043494318575e-01
5.344339846296620733e-01 8.350277894189943595e-01
5.357750987690589328e-01 8.042376256124299516e-01
5.371162129084557924e-01 8.902962917054111358e-01
5.384573270478525409e-01 1.037450530032337781e+00
5.397984411872495114e-01 1.077773272833773888e+00
5.411395553266462599e-01 1.035568646889672095e+00
5.424806694660432305e-01 9.553530621533070644e-01
5.438217836054399790e-01 7.197110835472173562e-01
5.451628977448369495e-01 6.594387892104975890e-01
5.465040118842336980e-01 6.015032117978691417e-01
5.478451260236305576e-01 4.994038515593004490e-01
5.491862401630274171e-01 6.419625431843769547e-01
5.505273543024242766e-01 5.915645417539749928e-01
5.518684684418211361e-01 5.296940824758991084e-01
5.532095825812179957e-01 6.088866572979227954e-01
5.545506967206147442e-01 5.763304349131956883e-01
