# q (1/Angstrom), Intensity (arb)
2.078726924066784734e-02 1.529315114765977057e+02
2.212838338006469993e-02 2.742822580029041433e+02
2.346949751946154905e-02 4.008307638089939360e+02
2.481061165885840164e-02 5.542874191950697877e+02
2.615172579825525423e-02 6.217891620782349946e+02
2.749283993765210335e-02 6.476776171120059189e+02
2.883395407704895941e-02 6.733824790355827190e+02
3.017506821644580506e-02 6.931073811102869513e+02
3.151618235584265765e-02 6.967176777109158365e+02
3.285729649523951718e-02 6.956852650667303806e+02
3.419841063463636283e-02 6.910829748098458367e+02
3.553952477403321542e-02 6.837370934476886077e+02
3.688063891343006800e-02 6.789871015409339634e+02
3.822175305282692059e-02 6.760706710131329373e+02
3.956286719222376624e-02 6.751714059927817289e+02
4.090398133162062577e-02 6.710781383146340886e+02
4.224509547101747142e-02 6.663611551864710236e+02
4.358620961041432401e-02 6.642540184622266679e+02
4.492732374981117660e-02 6.585741867399287912e+02
4.626843788920802919e-02 6.567603913181536655e+02
4.760955202860488178e-02 6.576282922444033829e+02
4.895066616800172743e-02 6.557353288324109144e+02
5.029178030739858696e-02 6.545255402860999538e+02
5.163289444679544649e-02 6.534244904942349876e+02
5.297400858619229214e-02 6.515572742844444747e+02
5.431512272558913779e-02 6.480580743889489668e+02
5.565623686498599731e-02 6.411067851372637278e+02
5.699735100438284990e-02 6.344501465573529231e+02
5.833846514377969555e-02 6.320319788452384273e+02
5.967957928317654814e-02 6.281309603114112861e+02
6.102069342257340767e-02 6.218202609841026742e+02
6.236180756197025332e-02 6.168031332885344682e+02
6.370292170136709897e-02 6.143760209391563194e+02
6.504403584076395850e-02 6.135935614018748083e+02
6.638514998016080415e-02 6.063135969737991218e+02
6.772626411955766368e-02 5.988923419646052935e+02
6.906737825895450933e-02 5.930628650063292753e+02
7.040849239835136886e-02 5.819274698365193217e+02
7.174960653774821451e-02 5.749469659260051912e+02
7.309072067714506016e-02 5.689991802596063053e+02
7.443183481654190581e-02 5.610040800483441217e+02
7.577294895593877921e-02 5.540631266125819820e+02
7.711406309533562486e-02 5.484919130186190159e+02
7.845517723473247051e-02 5.387788281365134253e+02
7.979629137412933004e-02 5.314479065439919623e+02
8.113740551352617569e-02 5.239860518694746361e+02
8.247851965292302134e-02 5.180036702834972857e+02
8.381963379231988087e-02 5.111392047715450531e+02
8.516074793171674040e-02 5.037453964132103010e+02
8.650186207111358605e-02 4.937976526345304933e+02
8.784297621051043170e-02 4.857459669555528308e+02
8.918409034990729123e-02 4.784729209570897410e+02
9.052520448930413688e-02 4.711003402465137810e+02
9.186631862870098253e-02 4.619727341726475629e+02
9.320743276809784206e-02 4.542651425686065068e+02
9.454854690749470159e-02 4.472002979972928074e+02
9.588966104689154724e-02 4.385867937074111751e+02
9.723077518628839289e-02 4.307983363045578926e+02
9.857188932568525241e-02 4.210646913774841664e+02
9.991300346508209806e-02 4.152282930210084828e+02
1.012541176044789437e-01 4.074067227833422749e+02
1.025952317438758032e-01 3.986885759140396317e+02
1.039363458832726350e-01 3.898573293060412084e+02
1.052774600226694945e-01 3.843484051837002653e+02
1.066185741620663541e-01 3.773089361099529810e+02
1.079596883014631858e-01 3.694846449112342270e+02
1.093008024408600454e-01 3.615621888149643155e+02
1.106419165802569049e-01 3.527351096251470608e+02
1.119830307196537506e-01 3.454133676824313852e+02
1.133241448590506101e-01 3.378634871001244164e+02
1.146652589984474419e-01 3.304918885828283237e+02
1.160063731378443014e-01 3.234621453568300353e+02
1.173474872772411609e-01 3.174343732078336302e+02
1.186886014166380066e-01 3.089625755525104864e+02
1.200297155560348661e-01 3.015523387901649812e+02
1.213708296954317256e-01 2.958760270399276351e+02
1.227119438348285574e-01 2.892316743133662840e+02
1.240530579742254169e-01 2.794135872988518372e+02
1.253941721136222764e-01 2.728503254831736626e+02
1.267352862530191082e-01 2.673495633038219239e+02
1.280764003924159677e-01 2.604690871293149144e+02
1.294175145318128273e-01 2.542623457449450655e+02
1.307586286712096590e-01 2.472053655482830550e+02
1.320997428106065186e-01 2.414133782841051357e+02
1.334408569500033781e-01 2.348227893191895816e+02
1.347819710894002376e-01 2.289392567506801868e+02
1.361230852287970972e-01 2.223613553370401519e+02
1.374641993681939289e-01 2.149914957613612501e+02
1.388053135075907885e-01 2.088781609451381769e+02
1.401464276469876480e-01 2.034440876184714853e+02
1.414875417863844798e-01 1.979292468980374906e+02
1.428286559257813393e-01 1.916534722538386859e+02
1.441697700651781988e-01 1.869548250465410888e+02
1.455108842045750306e-01 1.811776449942503575e+02
1.468519983439718901e-01 1.742755404217746786e+02
1.481931124833687219e-01 1.696384677096135931e+02
1.495342266227655814e-01 1.644531562194241303e+02
1.508753407621624687e-01 1.596169610991663035e+02
1.522164549015593005e-01 1.555499666087907258e+02
1.535575690409561600e-01 1.504162179779468147e+02
1.548986831803530195e-01 1.454827776118563065e+02
1.562397973197498513e-01 1.407640245046713403e+02
1.575809114591467108e-01 1.353680454991651914e+02
1.589220255985435704e-01 1.299762553639156408e+02
1.602631397379404021e-01 1.257213937318470158e+02
1.616042538773372617e-01 1.217295250885862998e+02
1.629453680167341212e-01 1.174148048910725350e+02
1.642864821561309530e-01 1.127004567325940201e+02
1.656275962955278125e-01 1.080847787747465532e+02
1.669687104349246720e-01 1.053960531493192860e+02
1.683098245743215315e-01 1.019657013023351340e+02
1.696509387137183911e-01 9.726021288186359470e+01
1.709920528531152228e-01 9.370963545323125743e+01
1.723331669925120824e-01 9.015903587914155537e+01
1.736742811319089419e-01 8.641958961144985096e+01
1.750153952713057737e-01 8.321031406010069986e+01
1.763565094107026332e-01 7.996244444976588284e+01
1.776976235500994927e-01 7.538580263267999726e+01
1.790387376894963245e-01 7.312492246748686853e+01
1.803798518288931840e-01 7.031756798027606692e+01
1.817209659682900158e-01 6.672307668077492337e+01
1.830620801076868753e-01 6.367436670596656256e+01
1.844031942470837349e-01 6.106994314033198634e+01
1.857443083864805944e-01 5.836814515546309678e+01
1.870854225258774539e-01 5.552207365392158067e+01
1.884265366652743134e-01 5.339516881107763879e+01
1.897676508046711452e-01 5.167938224397988733e+01
1.911087649440680047e-01 4.897595470976585830e+01
1.924498790834648643e-01 4.609936585033766221e+01
1.937909932228616960e-01 4.422507178984280074e+01
1.951321073622585556e-01 4.117509312594945925e+01
1.964732215016554151e-01 3.896709703390260415e+01
1.978143356410522469e-01 3.759504723228967293e+01
1.991554497804491064e-01 3.550298186200717510e+01
2.004965639198459382e-01 3.333163330534722490e+01
2.018376780592427977e-01 3.153142085187135990e+01
2.031787921986396572e-01 3.046333818687270423e+01
2.045199063380365168e-01 2.885592738078386787e+01
2.058610204774333763e-01 2.751400016112827984e+01
2.072021346168302081e-01 2.553391293787771588e+01
2.085432487562270676e-01 2.461530105537724467e+01
2.098843628956239271e-01 2.315396828398803564e+01
2.112254770350207866e-01 2.202215436649072444e+01
2.125665911744176462e-01 2.097811649827328040e+01
2.139077053138144502e-01 1.961464936439548978e+01
2.152488194532113097e-01 1.790404924006601561e+01
2.165899335926081692e-01 1.690705851297353490e+01
2.179310477320050288e-01 1.589172746402327618e+01
2.192721618714018883e-01 1.569151202094867870e+01
2.206132760107987478e-01 1.469112156813964987e+01
2.219543901501955796e-01 1.357831721048832208e+01
2.232955042895924391e-01 1.244735483598442727e+01
2.246366184289892987e-01 1.185499387975468721e+01
2.259777325683861582e-01 1.160769989931971224e+01
2.273188467077830177e-01 1.056586721754598557e+01
2.286599608471798217e-01 9.853493376796734537e+00
2.300010749865766813e-01 9.250915586967991544e+00
2.313421891259735408e-01 8.470408751906816747e+00
2.326833032653704003e-01 8.173274634591294330e+00
2.340244174047672598e-01 7.518684627334636161e+00
2.353655315441641194e-01 6.813423035924614624e+00
2.367066456835609234e-01 6.500690978711858747e+00
2.380477598229577829e-01 5.838962677359575082e+00
2.393888739623546424e-01 5.453091762835398981e+00
2.407299881017515020e-01 5.036592107390944761e+00
2.420711022411483615e-01 5.838124726703142642e+00
2.434122163805451933e-01 4.882926827003103654e+00
2.447533305199420528e-01 4.456357312963703521e+00
2.460944446593389123e-01 4.233239394441056902e+00
2.474355587987357719e-01 3.721178370458673612e+00
2.487766729381326314e-01 3.797805190877483028e+00
2.501177870775294632e-01 3.739950062566734346e+00
2.514589012169263227e-01 3.664978179564727157e+00
2.528000153563231822e-01 3.238932889968751283e+00
2.541411294957200417e-01 3.522879889688582011e+00
2.554822436351169013e-01 3.190435477443259060e+00
2.568233577745137608e-01 2.965770511859034286e+00
2.581644719139106203e-01 3.318014597399283616e+00
2.595055860533074243e-01 3.134584419697489466e+00
2.608467001927042839e-01 2.814242659851146300e+00
2.621878143321011434e-01 2.950181011799941189e+00
2.635289284714980029e-01 2.922526733454418491e+00
2.648700426108948625e-01 2.880824341396689192e+00
2.662111567502916665e-01 3.247442855997917377e+00
2.675522708896885260e-01 2.522446169491587398e+00
2.688933850290853855e-01 2.804209913058613779e+00
2.702344991684822451e-01 3.405537702978762127e+00
2.715756133078791046e-01 3.447510628172338443e+00
2.729167274472759641e-01 3.094612081721649588e+00
2.742578415866727681e-01 3.634617314468513882e+00
2.755989557260696277e-01 3.353516362959766184e+00
2.769400698654664872e-01 3.319324754548532042e+00
2.782811840048633467e-01 3.502660254590423961e+00
2.796222981442602062e-01 3.220267743188287568e+00
2.809634122836570103e-01 3.244546894054494146e+00
2.823045264230538698e-01 3.097328251500201191e+00
2.836456405624507293e-01 3.020105585192624176e+00
2.849867547018475888e-01 2.779833497321334335e+00
2.863278688412444484e-01 3.201530980034334561e+00
2.876689829806413079e-01 3.347679492689607628e+00
2.890100971200381674e-01 3.507065427505409616e+00
2.903512112594350270e-01 3.457636538889943267e+00
2.916923253988318865e-01 3.717362124866014028e+00
2.930334395382287460e-01 3.776566311019351474e+00
2.943745536776256055e-01 4.339859302716462253e+00
2.957156678170224096e-01 4.004173845312536173e+00
2.970567819564192691e-01 3.511632047673032275e+00
2.983978960958161286e-01 4.059450959199878639e+00
2.997390102352129881e-01 4.094477165664983431e+00
3.010801243746098477e-01 3.978946473487695812e+00
3.024212385140067072e-01 4.058130920187082324e+00
3.037623526534035112e-01 4.481947776924897653e+00
3.051034667928003707e-01 4.472201586363411252e+00
3.064445809321972303e-01 4.062835527722540974e+00
3.077856950715940898e-01 4.012567263380503846e+00
3.091268092109909493e-01 3.876679744946940787e+00
3.104679233503877533e-01 4.298760330288018849e+00
3.118090374897846129e-01 4.566047500087933031e+00
3.131501516291814724e-01 4.590900912915785170e+00
3.144912657685783319e-01 4.260600439311048149e+00
3.158323799079751915e-01 4.214648210381426452e+00
3.171734940473720510e-01 3.828040106502328399e+00
3.185146081867689105e-01 4.105439523087966336e+00
3.198557223261657700e-01 4.420123727131539226e+00
3.211968364655626296e-01 4.185916311580172078e+00
3.225379506049594891e-01 4.351261381083261881e+00
3.238790647443563486e-01 4.561449760471631976e+00
3.252201788837532082e-01 4.487574377863282393e+00
3.265612930231500122e-01 4.329275975672402410e+00
3.279024071625468717e-01 4.417729144155117638e+00
3.292435213019437312e-01 4.264624808488036933e+00
3.305846354413405908e-01 4.314581853987476734e+00
3.319257495807374503e-01 3.718315437984827554e+00
3.332668637201342543e-01 3.669174157235076450e+00
3.346079778595311138e-01 3.789498063198550426e+00
3.359490919989279734e-01 4.380131232441982547e+00
3.372902061383248329e-01 4.214650782109814031e+00
3.386313202777216924e-01 4.381419159324892121e+00
3.399724344171185519e-01 4.018026796697313330e+00
3.413135485565153560e-01 3.927898828894981875e+00
3.426546626959122155e-01 3.624133743795979967e+00
3.439957768353090750e-01 3.788803495072329497e+00
3.453368909747059345e-01 3.512957234091004466e+00
3.466780051141027941e-01 3.343186968681578719e+00
3.480191192534995981e-01 3.470643059979764189e+00
3.493602333928964576e-01 3.302617731617118579e+00
3.507013475322933171e-01 3.557817644692562453e+00
3.520424616716901767e-01 3.442869016827032169e+00
3.533835758110870362e-01 3.048400476593940311e+00
3.547246899504838957e-01 2.764486008293374653e+00
3.560658040898807553e-01 2.632390360802062901e+00
3.574069182292776148e-01 3.016172598537607996e+00
3.587480323686744743e-01 3.086883608096414378e+00
3.600891465080713338e-01 3.397474846195052578e+00
3.614302606474681934e-01 3.101354510328889091e+00
3.627713747868649974e-01 3.016100910743716668e+00
3.641124889262618569e-01 3.074462902742908454e+00
3.654536030656587164e-01 2.697741888095563922e+00
3.667947172050555760e-01 2.729245302316471111e+00
3.681358313444524355e-01 2.870925072894706886e+00
3.694769454838492950e-01 2.782121381702076235e+00
3.708180596232460990e-01 2.850448600670681287e+00
3.721591737626429586e-01 2.812335453017468012e+00
3.735002879020398181e-01 2.610950041448376169e+00
3.748414020414366776e-01 2.165020336468181483e+00
3.761825161808335372e-01 1.999886656019775444e+00
3.775236303202303967e-01 2.023755605309119687e+00
3.788647444596272007e-01 2.106856914131320480e+00
3.802058585990240602e-01 2.122564465889965390e+00
3.815469727384209198e-01 2.437954948298312274e+00
3.828880868778177793e-01 2.625820589421536511e+00
3.842292010172146388e-01 2.023447147914865241e+00
3.855703151566114428e-01 1.864490914704930447e+00
3.869114292960083024e-01 1.713201678691127938e+00
3.882525434354051619e-01 1.493382259178467564e+00
3.895936575748020214e-01 1.345395700796316873e+00
3.909347717141988809e-01 1.165656590371675350e+00
3.922758858535957405e-01 1.354872494665606553e+00
3.936169999929926000e-01 1.955593909190810109e+00
3.949581141323894595e-01 1.357892653008732964e+00
3.962992282717863191e-01 1.376384832197921071e+00
3.976403424111831786e-01 1.558373814412888692e+00
3.989814565505800381e-01 1.423903863528551028e+00
4.003225706899768976e-01 1.300175056231850590e+00
4.016636848293737572e-01 1.072363265722501069e+00
4.030047989687706167e-01 1.156134596177487595e+00
4.043459131081674207e-01 1.183545886108035461e+00
4.056870272475643358e-01 1.023373928045685943e+00
4.070281413869611398e-01 7.716963398624656634e-01
4.083692555263580548e-01 9.671895269854147159e-01
4.097103696657548588e-01 6.663191958676364379e-01
4.110514838051517739e-01 7.783239186569304024e-01
4.123925979445485779e-01 7.551002421182673174e-01
4.137337120839453819e-01 6.865732426947275258e-01
4.150748262233422969e-01 6.482157179101051270e-01
4.164159403627391010e-01 5.133437525452606565e-01
4.177570545021360160e-01 2.233179968534031445e-01
4.190981686415328200e-01 2.214788834310041921e-01
4.204392827809296240e-01 2.490602835646953395e-01
4.217803969203265391e-01 5.515058482994703581e-01
4.231215110597233431e-01 5.113831189207687089e-01
4.244626251991202581e-01 5.790321233685062907e-01
4.258037393385170621e-01 8.350198046744665703e-01
4.271448534779138662e-01 8.834283130625024683e-01
4.284859676173107812e-01 9.211837169334557984e-01
4.298270817567075852e-01 8.451472447023959944e-01
4.311681958961045003e-01 1.011361825823399840e+00
4.325093100355013043e-01 9.384832902666744303e-01
4.338504241748981638e-01 6.154056571170229972e-01
4.351915383142950233e-01 6.998086419829334659e-01
4.365326524536918829e-01 7.365388982556169140e-01
4.378737665930887424e-01 6.225442210460201409e-01
4.392148807324856019e-01 2.722289274500013789e-01
4.405559948718824614e-01 4.214199518243972875e-01
4.418971090112793210e-01 8.673465945082341477e-01
4.432382231506761250e-01 7.722134826603479496e-01
4.445793372900730400e-01 6.671666175676733701e-01
4.459204514294698440e-01 5.707576880719429369e-01
4.472615655688667591e-01 6.892377008679488881e-01
4.486026797082635631e-01 3.718979006308984481e-01
4.499437938476603671e-01 7.948348046747923945e-01
4.512849079870572822e-01 7.183410588980834177e-01
4.526260221264540862e-01 7.463931230220239854e-01
4.539671362658510012e-01 8.845590415677406781e-01
4.553082504052478052e-01 9.740399470085989719e-01
4.566493645446446092e-01 4.388762944785042919e-01
4.579904786840415243e-01 3.989252273875152355e-01
4.593315928234383283e-01 5.416423324365524650e-01
4.606727069628352433e-01 6.633741827664820789e-01
4.620138211022320474e-01 4.556986625762107224e-01
4.633549352416289624e-01 1.267629552554438987e-01
4.646960493810257664e-01 0.000000000000000000e+00
4.660371635204225704e-01 4.798507083988994282e-01
4.673782776598194855e-01 6.660689905932031252e-01
4.687193917992162895e-01 7.138431573019019538e-01
4.700605059386132045e-01 8.262502089991983212e-01
4.714016200780100085e-01 3.719760698194818360e-01
4.727427342174068681e-01 6.875742005688181280e-01
4.740838483568037276e-01 5.918371318026700578e-01
4.754249624962005871e-01 5.233713200044860514e-01
4.767660766355974467e-01 6.788000492233976502e-01
4.781071907749943062e-01 7.379154628947262040e-01
4.794483049143911102e-01 7.434636090638591099e-01
4.807894190537880252e-01 6.483591640729500227e-01
4.821305331931848293e-01 1.055370072247036717e+00
4.834716473325817443e-01 7.037546527613045555e-01
4.848127614719785483e-01 7.000020360285788001e-01
4.861538756113753523e-01 8.725290007375861023e-01
4.874949897507722674e-01 1.004484321412547843e+00
4.888361038901690714e-01 9.301129977394637649e-01
4.901772180295659864e-01 7.312233470272460067e-01
4.915183321689627904e-01 7.563999352782104779e-01
4.928594463083597055e-01 8.936906842590346400e-01
4.942005604477565095e-01 8.762916520347303617e-01
4.955416745871533135e-01 1.042405216257471068e+00
4.968827887265502286e-01 8.938624198049893721e-01
4.982239028659470326e-01 5.389648009512129079e-01
4.995650170053439476e-01 6.085871984016080205e-01
5.009061311447408071e-01 7.065188057566658131e-01
5.022472452841375556e-01 7.182949081655749524e-01
5.035883594235345262e-01 7.760381062063785862e-01
5.049294735629312747e-01 7.818921942325829377e-01
5.062705877023282452e-01 7.449574067048843062e-01
5.076117018417249938e-01 7.209532636286724028e-01
5.089528159811218533e-01 5.208620350297508139e-01
5.102939301205187128e-01 2.623786545853405983e-01
5.116350442599155723e-01 4.848586401382490862e-01
5.129761583993124319e-01 7.141765441170733197e-01
5.143172725387092914e-01 3.723481057287330032e-01
5.156583866781061509e-01 3.322036274923121368e-01
5.169995008175030105e-01 5.402429274337734455e-01
5.183406149568997590e-01 4.919002487835868465e-01
5.196817290962967295e-01 5.083109135511705290e-01
5.210228432356934780e-01 1.953150836036101623e-01
5.223639573750904486e-01 4.537707900140404149e-01
5.237050715144871971e-01 6.629366238954688129e-01
5.250461856538840566e-01 7.708554767256075024e-01
5.263872997932809161e-01 8.495213350650487882e-01
5.277284139326777757e-01 1.241948669897453783e+00
5.290695280720746352e-01 1.013679732066101735e+00
5.304106422114714947e-01 1.066463209934902068e+00
5.317517563508683542e-01 7.602836697829502555e-01
5.330928704902652138e-01 4.989523822286443533e-01
5.344339846296620733e-01 6.686201852404849433e-01
5.357750987690589328e-01 8.361642714251189545e-01
5.371162129084557924e-01 9.830597109883214557e-01
5.384573270478525409e-01 9.201305998031870104e-01
5.397984411872495114e-01 8.845906279293842545e-01
5.411395553266462599e-01 1.056050336529210654e+00
5.424806694660432305e-01 7.645295870766233293e-01
5.438217836054399790e-01 5.919181134444073678e-01
5.451628977448369495e-01 3.451849927167103260e-01
5.465040118842336980e-01 6.460239552106799010e-01
5.478451260236305576e-01 7.571560431798616264e-01
5.491862401630274171e-01 6.324568243522250555e-01
5.505273543024242766e-01 5.758391701415490616e-01
5.518684684418211361e-01 3.760287611366450733e-01
5.532095825812179957e-01 2.802673381029379129e-01
5.545506967206147442e-01 7.180406911933729930e-01
