# q (1/Angstrom), Intensity (arb)
2.078726924066784734e-02 1.567522353301111764e+02
2.212838338006469993e-02 2.669836022495732095e+02
2.346949751946154905e-02 3.852709274051369448e+02
2.481061165885840164e-02 5.306752555014934387e+02
2.615172579825525423e-02 5.923173429921187108e+02
2.749283993765210335e-02 6.194367548420470939e+02
2.883395407704895941e-02 6.457946228611384640e+02
3.017506821644580506e-02 6.607908129771526546e+02
3.151618235584265765e-02 6.613308108066158866e+02
3.285729649523951718e-02 6.593622036146673508e+02
3.419841063463636283e-02 6.567897196348587840e+02
3.553952477403321542e-02 6.574168176014798064e+02
3.688063891343006800e-02 6.518012950463464676e+02
3.822175305282692059e-02 6.479564516895966335e+02
3.956286719222376624e-02 6.455937173976400345e+02
4.090398133162062577e-02 6.405384751997885360e+02
4.224509547101747142e-02 6.361484829826013083e+02
4.358620961041432401e-02 6.344556126164254692e+02
4.492732374981117660e-02 6.285756159238360397e+02
4.626843788920802919e-02 6.280262966725216529e+02
4.760955202860488178e-02 6.312587633841670822e+02
4.895066616800172743e-02 6.285159292552732495e+02
5.029178030739858696e-02 6.236859849535701414e+02
5.163289444679544649e-02 6.194513877108898896e+02
5.297400858619229214e-02 6.208196405255599757e+02
5.431512272558913779e-02 6.159491978942779724e+02
5.565623686498599731e-02 6.151220782716010262e+02
5.699735100438284990e-02 6.083593682437322059e+02
5.833846514377969555e-02 6.049917401450636589e+02
5.967957928317654814e-02 6.004798968558817478e+02
6.102069342257340767e-02 5.966520387701125401e+02
6.236180756197025332e-02 5.890197105765420247e+02
6.370292170136709897e-02 5.853334971435258467e+02
6.504403584076395850e-02 5.833312722956285370e+02
6.638514998016080415e-02 5.767115319913719986e+02
6.772626411955766368e-02 5.695977996089065982e+02
6.906737825895450933e-02 5.640454806438259538e+02
7.040849239835136886e-02 5.600746557399162384e+02
7.174960653774821451e-02 5.530614148324661983e+02
7.309072067714506016e-02 5.431017742863041349e+02
7.443183481654190581e-02 5.368508589013957817e+02
7.577294895593877921e-02 5.295856926536207538e+02
7.711406309533562486e-02 5.222919726739547741e+02
7.845517723473247051e-02 5.131239930750922440e+02
7.979629137412933004e-02 5.057368575975481804e+02
8.113740551352617569e-02 4.991923043723010096e+02
8.247851965292302134e-02 4.911673020548093405e+02
8.381963379231988087e-02 4.855433284727091063e+02
8.516074793171674040e-02 4.770012767555638220e+02
8.650186207111358605e-02 4.697461144743807608e+02
8.784297621051043170e-02 4.619521085611438593e+02
8.918409034990729123e-02 4.548955691189141817e+02
9.052520448930413688e-02 4.478870389498654845e+02
9.186631862870098253e-02 4.407922326056884117e+02
9.320743276809784206e-02 4.338914249289232430e+02
9.454854690749470159e-02 4.257693460247398889e+02
9.588966104689154724e-02 4.178815334187968347e+02
9.723077518628839289e-02 4.120193563119244686e+02
9.857188932568525241e-02 4.048179885285073283e+02
9.991300346508209806e-02 3.973243285646369714e+02
1.012541176044789437e-01 3.887809799065768743e+02
1.025952317438758032e-01 3.811711464394429072e+02
1.039363458832726350e-01 3.729817947883959732e+02
1.052774600226694945e-01 3.652195155878953301e+02
1.066185741620663541e-01 3.598146057785591552e+02
1.079596883014631858e-01 3.518548728007356203e+02
1.093008024408600454e-01 3.446143773062506739e+02
1.106419165802569049e-01 3.373242765452043841e+02
1.119830307196537506e-01 3.300972983375703507e+02
1.133241448590506101e-01 3.228210974682627921e+02
1.146652589984474419e-01 3.146424360353734073e+02
1.160063731378443014e-01 3.066965703995051626e+02
1.173474872772411609e-01 3.006374112898673161e+02
1.186886014166380066e-01 2.955171610492518539e+02
1.200297155560348661e-01 2.893108720807849750e+02
1.213708296954317256e-01 2.809983842202728965e+02
1.227119438348285574e-01 2.753242769279403319e+02
1.240530579742254169e-01 2.671518995463645183e+02
1.253941721136222764e-01 2.610501164339186744e+02
1.267352862530191082e-01 2.555552420024795879e+02
1.280764003924159677e-01 2.503089678930571154e+02
1.294175145318128273e-01 2.440456318945050214e+02
1.307586286712096590e-01 2.365510653799548493e+02
1.320997428106065186e-01 2.295515824401637985e+02
1.334408569500033781e-01 2.237076527436207414e+02
1.347819710894002376e-01 2.185201205656837260e+02
1.361230852287970972e-01 2.121448624395087563e+02
1.374641993681939289e-01 2.057922607324551905e+02
1.388053135075907885e-01 2.000993353515647186e+02
1.401464276469876480e-01 1.936543160294219206e+02
1.414875417863844798e-01 1.882219102727657969e+02
1.428286559257813393e-01 1.836525646271896619e+02
1.441697700651781988e-01 1.786043541244655444e+02
1.455108842045750306e-01 1.722390006636070439e+02
1.468519983439718901e-01 1.673704607174117598e+02
1.481931124833687219e-01 1.626702945747318836e+02
1.495342266227655814e-01 1.574525496913224174e+02
1.508753407621624687e-01 1.524247695195776373e+02
1.522164549015593005e-01 1.478097690864812535e+02
1.535575690409561600e-01 1.432530864235956187e+02
1.548986831803530195e-01 1.377147041156860610e+02
1.562397973197498513e-01 1.324028031024404015e+02
1.575809114591467108e-01 1.281473146973504527e+02
1.589220255985435704e-01 1.250355606397879598e+02
1.602631397379404021e-01 1.207472287579970782e+02
1.616042538773372617e-01 1.158918565540094221e+02
1.629453680167341212e-01 1.121723609421718209e+02
1.642864821561309530e-01 1.079887801846350897e+02
1.656275962955278125e-01 1.040721408800321228e+02
1.669687104349246720e-01 9.956869998823353285e+01
1.683098245743215315e-01 9.635844960961485128e+01
1.696509387137183911e-01 9.290013741245776657e+01
1.709920528531152228e-01 9.007453433357527217e+01
1.723331669925120824e-01 8.675258648301834796e+01
1.736742811319089419e-01 8.291756005720321809e+01
1.750153952713057737e-01 8.012547579155108224e+01
1.763565094107026332e-01 7.630557747218560394e+01
1.776976235500994927e-01 7.269879096566818077e+01
1.790387376894963245e-01 6.982764078285831033e+01
1.803798518288931840e-01 6.714793333395519426e+01
1.817209659682900158e-01 6.406393293906080544e+01
1.830620801076868753e-01 6.181645939018015667e+01
1.844031942470837349e-01 5.893804934616696301e+01
1.857443083864805944e-01 5.613792008553701862e+01
1.870854225258774539e-01 5.344127560680496458e+01
1.884265366652743134e-01 5.030263603947447848e+01
1.897676508046711452e-01 4.842225523657874930e+01
1.911087649440680047e-01 4.592746183059597342e+01
1.924498790834648643e-01 4.422753529418169194e+01
1.937909932228616960e-01 4.221327177294114108e+01
1.951321073622585556e-01 3.923084875305239905e+01
1.964732215016554151e-01 3.692173557275897622e+01
1.978143356410522469e-01 3.511045222779904407e+01
1.991554497804491064e-01 3.341434809556132279e+01
2.004965639198459382e-01 3.157544486113118865e+01
2.018376780592427977e-01 3.049586161116526739e+01
2.031787921986396572e-01 2.899828810974103988e+01
2.045199063380365168e-01 2.722339089963570302e+01
2.058610204774333763e-01 2.551089588352772353e+01
2.072021346168302081e-01 2.432961437485505485e+01
2.085432487562270676e-01 2.292294593732857777e+01
2.098843628956239271e-01 2.207364963224678434e+01
2.112254770350207866e-01 2.077990123061722727e+01
2.125665911744176462e-01 1.928235782676262033e+01
2.139077053138144502e-01 1.810390024379726981e+01
2.152488194532113097e-01 1.719084367568548544e+01
2.165899335926081692e-01 1.631291083046292556e+01
2.179310477320050288e-01 1.518686207974579361e+01
2.192721618714018883e-01 1.407886595514210626e+01
2.206132760107987478e-01 1.309001258240421350e+01
2.219543901501955796e-01 1.232270224599325559e+01
2.232955042895924391e-01 1.182910933533526077e+01
2.246366184289892987e-01 1.100904786835258165e+01
2.259777325683861582e-01 1.034886871191120861e+01
2.273188467077830177e-01 9.455676084482206534e+00
2.286599608471798217e-01 8.875872924788666296e+00
2.300010749865766813e-01 8.122397022053348792e+00
2.313421891259735408e-01 7.194747578762218154e+00
2.326833032653704003e-01 6.246623111721149257e+00
2.340244174047672598e-01 6.139843161891221257e+00
2.353655315441641194e-01 5.928216515043530421e+00
2.367066456835609234e-01 5.585344575737565265e+00
2.380477598229577829e-01 5.213873193440278442e+00
2.393888739623546424e-01 4.716142064674770040e+00
2.407299881017515020e-01 4.525307556406630738e+00
2.420711022411483615e-01 4.901304067576504053e+00
2.434122163805451933e-01 4.208213552745760921e+00
2.447533305199420528e-01 3.695102302478971978e+00
2.460944446593389123e-01 3.482167879556016032e+00
2.474355587987357719e-01 3.526774317040235474e+00
2.487766729381326314e-01 3.547370927662854001e+00
2.501177870775294632e-01 3.170692158155432594e+00
2.514589012169263227e-01 2.586028151765916050e+00
2.528000153563231822e-01 2.156600938439254378e+00
2.541411294957200417e-01 2.267077876638879275e+00
2.554822436351169013e-01 2.262600636575328394e+00
2.568233577745137608e-01 1.983932259154144617e+00
2.581644719139106203e-01 2.259048938071032353e+00
2.595055860533074243e-01 2.002683587610306404e+00
2.608467001927042839e-01 2.051753281676866436e+00
2.621878143321011434e-01 2.360074274947365325e+00
2.635289284714980029e-01 2.058392937702961945e+00
2.648700426108948625e-01 1.944542914073181805e+00
2.662111567502916665e-01 2.074365413973126238e+00
2.675522708896885260e-01 1.843354228942018835e+00
2.688933850290853855e-01 1.840481707825261992e+00
2.702344991684822451e-01 2.349920438468501516e+00
2.715756133078791046e-01 2.785968461608831603e+00
2.729167274472759641e-01 2.958545006097750729e+00
2.742578415866727681e-01 2.835903385959483103e+00
2.755989557260696277e-01 2.324587221327377051e+00
2.769400698654664872e-01 2.475111829516407624e+00
2.782811840048633467e-01 2.663894116248968658e+00
2.796222981442602062e-01 2.616944279828501863e+00
2.809634122836570103e-01 2.788883858524286552e+00
2.823045264230538698e-01 2.332040058128924898e+00
2.836456405624507293e-01 2.411958563152722945e+00
2.849867547018475888e-01 2.747228039116578202e+00
2.863278688412444484e-01 3.125343561361546563e+00
2.876689829806413079e-01 3.322355179581705897e+00
2.890100971200381674e-01 3.100666438574791073e+00
2.903512112594350270e-01 2.912746563920393328e+00
2.916923253988318865e-01 3.219509076725373120e+00
2.930334395382287460e-01 3.524103163390563509e+00
2.943745536776256055e-01 3.818063217373975249e+00
2.957156678170224096e-01 3.512675153303987940e+00
2.970567819564192691e-01 3.274321984094427762e+00
2.983978960958161286e-01 3.319895618912752866e+00
2.997390102352129881e-01 3.406955406476541270e+00
3.010801243746098477e-01 3.567487651263562043e+00
3.024212385140067072e-01 3.660978665814624833e+00
3.037623526534035112e-01 3.722352089434139089e+00
3.051034667928003707e-01 3.944982959184812898e+00
3.064445809321972303e-01 4.117352778318689843e+00
3.077856950715940898e-01 4.169759444443315033e+00
3.091268092109909493e-01 3.750409437491995845e+00
3.104679233503877533e-01 4.251698822646503118e+00
3.118090374897846129e-01 4.193303877657513112e+00
3.131501516291814724e-01 3.660351306082006317e+00
3.144912657685783319e-01 3.905857471883862786e+00
3.158323799079751915e-01 3.809363778822898894e+00
3.171734940473720510e-01 3.414772205949532236e+00
3.185146081867689105e-01 3.645951458681764734e+00
3.198557223261657700e-01 3.914780493980387632e+00
3.211968364655626296e-01 3.962682616411782988e+00
3.225379506049594891e-01 4.283021028342361092e+00
3.238790647443563486e-01 4.328709403105079900e+00
3.252201788837532082e-01 4.117167138898722101e+00
3.265612930231500122e-01 4.308066070143183879e+00
3.279024071625468717e-01 4.096181921833775164e+00
3.292435213019437312e-01 3.964233250365552408e+00
3.305846354413405908e-01 3.976591233937014636e+00
3.319257495807374503e-01 3.605969113211131116e+00
3.332668637201342543e-01 3.498388285960501776e+00
3.346079778595311138e-01 3.891651624406662791e+00
3.359490919989279734e-01 3.685096813381647962e+00
3.372902061383248329e-01 3.387236402532835200e+00
3.386313202777216924e-01 3.889619725830129937e+00
3.399724344171185519e-01 3.559924857580156754e+00
3.413135485565153560e-01 3.321322305496096305e+00
3.426546626959122155e-01 3.614707036077149382e+00
3.439957768353090750e-01 3.433282186510282941e+00
3.453368909747059345e-01 3.017473290839944866e+00
3.466780051141027941e-01 3.355347912680429090e+00
3.480191192534995981e-01 3.511660436251887063e+00
3.493602333928964576e-01 3.098096965000266323e+00
3.507013475322933171e-01 3.179596367320115746e+00
3.520424616716901767e-01 3.311566328754665278e+00
3.533835758110870362e-01 3.204649674699268758e+00
3.547246899504838957e-01 2.935696290838450295e+00
3.560658040898807553e-01 2.992440459000960118e+00
3.574069182292776148e-01 3.166818631493690361e+00
3.587480323686744743e-01 2.897542930810701023e+00
3.600891465080713338e-01 3.030321336535891419e+00
3.614302606474681934e-01 2.873548476734946178e+00
3.627713747868649974e-01 2.990612013153402415e+00
3.641124889262618569e-01 3.215510903522527997e+00
3.654536030656587164e-01 2.851246452064934545e+00
3.667947172050555760e-01 2.532735570539294656e+00
3.681358313444524355e-01 2.498305211119607350e+00
3.694769454838492950e-01 2.427431968054058586e+00
3.708180596232460990e-01 2.553696283781903276e+00
3.721591737626429586e-01 2.282700959412203190e+00
3.735002879020398181e-01 2.478230547412621831e+00
3.748414020414366776e-01 2.390901211024413442e+00
3.761825161808335372e-01 2.301273969938463893e+00
3.775236303202303967e-01 2.025949479455398716e+00
3.788647444596272007e-01 2.177343583408017480e+00
3.802058585990240602e-01 2.434953263178712746e+00
3.815469727384209198e-01 2.252119545113245636e+00
3.828880868778177793e-01 2.537607126078938791e+00
3.842292010172146388e-01 2.237512843171295174e+00
3.855703151566114428e-01 1.925861886916827359e+00
3.869114292960083024e-01 1.621911951048204514e+00
3.882525434354051619e-01 1.409026786205004100e+00
3.895936575748020214e-01 1.204573068582249107e+00
3.909347717141988809e-01 1.381168543962814965e+00
3.922758858535957405e-01 1.578932925728167902e+00
3.936169999929926000e-01 1.914662073589560976e+00
3.949581141323894595e-01 1.518580752451683225e+00
3.962992282717863191e-01 1.544546462446334090e+00
3.976403424111831786e-01 1.823408055535061578e+00
3.989814565505800381e-01 1.439144207352249794e+00
4.003225706899768976e-01 1.247504120613598388e+00
4.016636848293737572e-01 1.222104097743894613e+00
4.030047989687706167e-01 1.230148775518927096e+00
4.043459131081674207e-01 1.036222358267721688e+00
4.056870272475643358e-01 1.029772136008162420e+00
4.070281413869611398e-01 9.764217422600722784e-01
4.083692555263580548e-01 8.989777385958177547e-01
4.097103696657548588e-01 1.024379086635015312e+00
4.110514838051517739e-01 9.310635849290562760e-01
4.123925979445485779e-01 9.627418938394924908e-01
4.137337120839453819e-01 9.491818521720034596e-01
4.150748262233422969e-01 9.380742003013580188e-01
4.164159403627391010e-01 9.036339267296824573e-01
4.177570545021360160e-01 9.001086917918215136e-01
4.190981686415328200e-01 8.180025695182138179e-01
4.204392827809296240e-01 5.651087756233579285e-01
4.217803969203265391e-01 5.422910005101044817e-01
4.231215110597233431e-01 6.588706198967102523e-01
4.244626251991202581e-01 4.285598028425638972e-01
4.258037393385170621e-01 8.089773446709784821e-01
4.271448534779138662e-01 1.122711506312789709e+00
4.284859676173107812e-01 1.033212342241554893e+00
4.298270817567075852e-01 8.865821839645562363e-01
4.311681958961045003e-01 1.152479212186939606e+00
4.325093100355013043e-01 6.868913929217086434e-01
4.338504241748981638e-01 3.188874210885259686e-01
4.351915383142950233e-01 7.790289950140660835e-01
4.365326524536918829e-01 1.025344445332649457e+00
4.378737665930887424e-01 7.300624095740673170e-01
4.392148807324856019e-01 3.712753586243877635e-01
4.405559948718824614e-01 6.714170982237490648e-01
4.418971090112793210e-01 1.170006576653094044e+00
4.432382231506761250e-01 9.272284838626347891e-01
4.445793372900730400e-01 7.704538605493027603e-01
4.459204514294698440e-01 6.136769087223186148e-01
4.472615655688667591e-01 8.409769370005548694e-01
4.486026797082635631e-01 6.373772359119058706e-01
4.499437938476603671e-01 5.777811663402729891e-01
4.512849079870572822e-01 8.751087893711542165e-01
4.526260221264540862e-01 1.095028164590765130e+00
4.539671362658510012e-01 1.062663049234984669e+00
4.553082504052478052e-01 9.620828413175104288e-01
4.566493645446446092e-01 4.175153383625982428e-01
4.579904786840415243e-01 2.120758575789736256e-01
4.593315928234383283e-01 6.033919006821975017e-01
4.606727069628352433e-01 7.228329743342172264e-01
4.620138211022320474e-01 6.306552521883332929e-01
4.633549352416289624e-01 3.954210440230170320e-01
4.646960493810257664e-01 2.723244427747388841e-01
4.660371635204225704e-01 7.017591878268660821e-01
4.673782776598194855e-01 8.220636781781109903e-01
4.687193917992162895e-01 6.431024893831462919e-01
4.700605059386132045e-01 7.214420124847151783e-01
4.714016200780100085e-01 3.805166532699146842e-01
4.727427342174068681e-01 5.225649538707699548e-01
4.740838483568037276e-01 5.101558496207658777e-01
4.754249624962005871e-01 2.972627135709728918e-01
4.767660766355974467e-01 4.842208979359980958e-01
4.781071907749943062e-01 7.227261809519447411e-01
4.794483049143911102e-01 5.516948105570946836e-01
4.807894190537880252e-01 1.039563340370094124e+00
4.821305331931848293e-01 8.029100975367953197e-01
4.834716473325817443e-01 5.365307008631106100e-01
4.848127614719785483e-01 6.076824085716694412e-01
4.861538756113753523e-01 7.918296437302743129e-01
4.874949897507722674e-01 1.019909061545391182e+00
4.888361038901690714e-01 9.983621885185556266e-01
4.901772180295659864e-01 6.907310213843160795e-01
4.915183321689627904e-01 2.863287911246743533e-01
4.928594463083597055e-01 5.403744176279658973e-01
4.942005604477565095e-01 8.421294340092160269e-01
4.955416745871533135e-01 6.688402389860925723e-01
4.968827887265502286e-01 6.888961075347026508e-01
4.982239028659470326e-01 5.122052739966420631e-01
4.995650170053439476e-01 5.008536852351923585e-01
5.009061311447408071e-01 5.620224726526643622e-01
5.022472452841375556e-01 3.618697358091509386e-01
5.035883594235345262e-01 9.095153881351762948e-01
5.049294735629312747e-01 8.503162726100299551e-01
5.062705877023282452e-01 8.927165324976513716e-01
5.076117018417249938e-01 8.537199405307802635e-01
5.089528159811218533e-01 7.488785319065840440e-01
5.102939301205187128e-01 5.317064632617345410e-01
5.116350442599155723e-01 5.182043234105364604e-01
5.129761583993124319e-01 3.880301245686226252e-01
5.143172725387092914e-01 2.209314164132436531e-01
5.156583866781061509e-01 2.256894750152298457e-01
5.169995008175030105e-01 3.226719270131326311e-01
5.183406149568997590e-01 2.869870543624486459e-01
5.196817290962967295e-01 3.906473110735149135e-01
5.210228432356934780e-01 2.293471059772329568e-01
5.223639573750904486e-01 4.513010184054735419e-01
5.237050715144871971e-01 4.627612995007126528e-01
5.250461856538840566e-01 6.035959478833419212e-01
5.263872997932809161e-01 9.442600297325611791e-01
5.277284139326777757e-01 8.395844197525192953e-01
5.290695280720746352e-01 4.836893076872712527e-01
5.304106422114714947e-01 7.686292318265444123e-01
5.317517563508683542e-01 5.940069429109655630e-01
5.330928704902652138e-01 5.891619674676746854e-01
5.344339846296620733e-01 8.075870202642079221e-01
5.357750987690589328e-01 5.079458523861717367e-01
5.371162129084557924e-01 7.825803604149257353e-01
5.384573270478525409e-01 7.592051834015407508e-01
5.397984411872495114e-01 1.014995037063684435e+00
5.411395553266462599e-01 1.064048110724769458e+00
5.424806694660432305e-01 9.687180812681788211e-01
5.438217836054399790e-01 8.913959317587369924e-01
5.451628977448369495e-01 7.814677298732490840e-01
5.465040118842336980e-01 6.593464785860021493e-01
5.478451260236305576e-01 6.364961348263733498e-01
5.491862401630274171e-01 5.059016312221089606e-01
5.505273543024242766e-01 3.743971799076533102e-01
5.518684684418211361e-01 3.399795678266812615e-01
5.532095825812179957e-01 3.830538803593910302e-01
5.545506967206147442e-01 5.538136284486867567e-01
