# q (1/Angstrom), Intensity (arb)
2.078726924066784734e-02 1.552382822745838666e+02
2.212838338006469993e-02 2.727443810344577173e+02
2.346949751946154905e-02 3.922533711165261820e+02
2.481061165885840164e-02 5.378904184986827204e+02
2.615172579825525423e-02 6.059797138310198079e+02
2.749283993765210335e-02 6.344783433513107411e+02
2.883395407704895941e-02 6.593315883269445976e+02
3.017506821644580506e-02 6.720814545581258699e+02
3.151618235584265765e-02 6.726869460736082829e+02
3.285729649523951718e-02 6.750369959599100866e+02
3.419841063463636283e-02 6.727527671389811985e+02
3.553952477403321542e-02 6.653176853245707889e+02
3.688063891343006800e-02 6.590319541439636168e+02
3.822175305282692059e-02 6.562013306743991734e+02
3.956286719222376624e-02 6.587749093436085559e+02
4.090398133162062577e-02 6.540021664558996690e+02
4.224509547101747142e-02 6.491199888001908676e+02
4.358620961041432401e-02 6.479011062601224467e+02
4.492732374981117660e-02 6.418345819297869639e+02
4.626843788920802919e-02 6.413792833020704620e+02
4.760955202860488178e-02 6.414470612513256356e+02
4.895066616800172743e-02 6.407596733366028730e+02
5.029178030739858696e-02 6.385146781568498682e+02
5.163289444679544649e-02 6.341439178006089605e+02
5.297400858619229214e-02 6.349363464294998494e+02
5.431512272558913779e-02 6.309385345877728923e+02
5.565623686498599731e-02 6.241103374201192082e+02
5.699735100438284990e-02 6.162165704864312374e+02
5.833846514377969555e-02 6.163750868086541459e+02
5.967957928317654814e-02 6.141060834123009045e+02
6.102069342257340767e-02 6.090543280233860060e+02
6.236180756197025332e-02 6.038070325683740975e+02
6.370292170136709897e-02 5.970313599338652466e+02
6.504403584076395850e-02 5.940904650197270485e+02
6.638514998016080415e-02 5.896776830207755893e+02
6.772626411955766368e-02 5.820236083783580625e+02
6.906737825895450933e-02 5.760781599442271954e+02
7.040849239835136886e-02 5.677497196516859503e+02
7.174960653774821451e-02 5.606398773646230893e+02
7.309072067714506016e-02 5.529080484175790389e+02
7.443183481654190581e-02 5.456785444776464828e+02
7.577294895593877921e-02 5.401177701700594298e+02
7.711406309533562486e-02 5.323313435487344805e+02
7.845517723473247051e-02 5.245088831198984280e+02
7.979629137412933004e-02 5.184281838493907344e+02
8.113740551352617569e-02 5.100219433806024654e+02
8.247851965292302134e-02 5.028972226623608321e+02
8.381963379231988087e-02 4.960645450477635450e+02
8.516074793171674040e-02 4.893986635872051352e+02
8.650186207111358605e-02 4.798512015756745086e+02
8.784297621051043170e-02 4.735583348491494462e+02
8.918409034990729123e-02 4.663344361335627468e+02
9.052520448930413688e-02 4.562708336594984075e+02
9.186631862870098253e-02 4.489788803467600928e+02
9.320743276809784206e-02 4.417997137848590228e+02
9.454854690749470159e-02 4.331032176819171013e+02
9.588966104689154724e-02 4.263758798832324715e+02
9.723077518628839289e-02 4.195853608959461667e+02
9.857188932568525241e-02 4.120001183223427574e+02
9.991300346508209806e-02 4.035495949342102904e+02
1.012541176044789437e-01 3.953839169191585370e+02
1.025952317438758032e-01 3.878647769424266016e+02
1.039363458832726350e-01 3.797140450223462835e+02
1.052774600226694945e-01 3.721512235532069326e+02
1.066185741620663541e-01 3.637254127798620402e+02
1.079596883014631858e-01 3.559711114780802177e+02
1.093008024408600454e-01 3.513808754650017363e+02
1.106419165802569049e-01 3.433461467420522695e+02
1.119830307196537506e-01 3.384178778831968657e+02
1.133241448590506101e-01 3.312734310351642080e+02
1.146652589984474419e-01 3.225911864989429887e+02
1.160063731378443014e-01 3.138825784969923802e+02
1.173474872772411609e-01 3.077075998959631988e+02
1.186886014166380066e-01 2.999727597640255112e+02
1.200297155560348661e-01 2.930560387316028255e+02
1.213708296954317256e-01 2.862419013701409654e+02
1.227119438348285574e-01 2.799607227621254424e+02
1.240530579742254169e-01 2.731027891104033642e+02
1.253941721136222764e-01 2.674702995083877113e+02
1.267352862530191082e-01 2.608135757329537228e+02
1.280764003924159677e-01 2.542428779470959057e+02
1.294175145318128273e-01 2.483173366438477387e+02
1.307586286712096590e-01 2.410771737624606317e+02
1.320997428106065186e-01 2.345516808147096413e+02
1.334408569500033781e-01 2.279537864345308265e+02
1.347819710894002376e-01 2.219760661596889122e+02
1.361230852287970972e-01 2.162008459388034396e+02
1.374641993681939289e-01 2.096350236903080031e+02
1.388053135075907885e-01 2.033568207124382070e+02
1.401464276469876480e-01 1.973254235684038917e+02
1.414875417863844798e-01 1.921484460163191841e+02
1.428286559257813393e-01 1.870024632619647491e+02
1.441697700651781988e-01 1.817469212656042714e+02
1.455108842045750306e-01 1.761344108871084870e+02
1.468519983439718901e-01 1.697378139319059471e+02
1.481931124833687219e-01 1.650023843646395107e+02
1.495342266227655814e-01 1.606267240516363017e+02
1.508753407621624687e-01 1.559931412660202454e+02
1.522164549015593005e-01 1.510372250239278173e+02
1.535575690409561600e-01 1.470745830246279695e+02
1.548986831803530195e-01 1.419587734575181059e+02
1.562397973197498513e-01 1.359655831275034075e+02
1.575809114591467108e-01 1.304433524881873723e+02
1.589220255985435704e-01 1.267713984691694975e+02
1.602631397379404021e-01 1.227211469300245028e+02
1.616042538773372617e-01 1.180370059361138146e+02
1.629453680167341212e-01 1.145378834251911115e+02
1.642864821561309530e-01 1.101351793709462754e+02
1.656275962955278125e-01 1.064203382615635860e+02
1.669687104349246720e-01 1.017829525086716984e+02
1.683098245743215315e-01 9.821628043341164016e+01
1.696509387137183911e-01 9.501116829718694134e+01
1.709920528531152228e-01 9.163166147850857612e+01
1.723331669925120824e-01 8.767161364723556005e+01
1.736742811319089419e-01 8.402707667199631203e+01
1.750153952713057737e-01 8.126545984652069876e+01
1.763565094107026332e-01 7.731043892358555070e+01
1.776976235500994927e-01 7.336860855219610755e+01
1.790387376894963245e-01 7.121180557798977873e+01
1.803798518288931840e-01 6.818656988213527370e+01
1.817209659682900158e-01 6.456033575107642264e+01
1.830620801076868753e-01 6.165740360044344470e+01
1.844031942470837349e-01 5.955668168575284938e+01
1.857443083864805944e-01 5.652073069222667812e+01
1.870854225258774539e-01 5.396671397996711050e+01
1.884265366652743134e-01 5.156975188998734438e+01
1.897676508046711452e-01 4.957586805256160289e+01
1.911087649440680047e-01 4.693695794698675172e+01
1.924498790834648643e-01 4.491816208991114934e+01
1.937909932228616960e-01 4.279801024107430862e+01
1.951321073622585556e-01 4.039913225336647429e+01
1.964732215016554151e-01 3.837313498539809586e+01
1.978143356410522469e-01 3.672769939096558289e+01
1.991554497804491064e-01 3.486627864291627077e+01
2.004965639198459382e-01 3.265701240649345038e+01
2.018376780592427977e-01 3.070885592241745599e+01
2.031787921986396572e-01 2.909426498627679791e+01
2.045199063380365168e-01 2.737297526295759553e+01
2.058610204774333763e-01 2.601652834874580833e+01
2.072021346168302081e-01 2.429935783161425888e+01
2.085432487562270676e-01 2.375074273569886429e+01
2.098843628956239271e-01 2.219761282453060858e+01
2.112254770350207866e-01 2.106370314608680872e+01
2.125665911744176462e-01 2.003440417793385109e+01
2.139077053138144502e-01 1.839558302985091132e+01
2.152488194532113097e-01 1.772857257113429341e+01
2.165899335926081692e-01 1.702733176854283670e+01
2.179310477320050288e-01 1.537207037960698131e+01
2.192721618714018883e-01 1.427960146380239337e+01
2.206132760107987478e-01 1.373264588559696620e+01
2.219543901501955796e-01 1.302778391410946313e+01
2.232955042895924391e-01 1.254664450726447456e+01
2.246366184289892987e-01 1.167955838604643759e+01
2.259777325683861582e-01 1.066832122241470415e+01
2.273188467077830177e-01 9.365681984522353787e+00
2.286599608471798217e-01 9.083845144775864355e+00
2.300010749865766813e-01 9.075299486864977894e+00
2.313421891259735408e-01 8.016766849295009933e+00
2.326833032653704003e-01 6.853603696789832611e+00
2.340244174047672598e-01 6.213174383112217924e+00
2.353655315441641194e-01 6.216205393117590461e+00
2.367066456835609234e-01 5.930037579496143962e+00
2.380477598229577829e-01 5.439829343666588102e+00
2.393888739623546424e-01 5.276497780016896400e+00
2.407299881017515020e-01 5.019132450046171812e+00
2.420711022411483615e-01 5.330359705440642415e+00
2.434122163805451933e-01 3.695322446183027409e+00
2.447533305199420528e-01 3.590531763651000574e+00
2.460944446593389123e-01 4.129737443105284456e+00
2.474355587987357719e-01 3.832006609931553953e+00
2.487766729381326314e-01 3.769353330613967046e+00
2.501177870775294632e-01 3.604539270740730217e+00
2.514589012169263227e-01 2.985991798803055985e+00
2.528000153563231822e-01 2.765727920834322617e+00
2.541411294957200417e-01 2.954430647578604407e+00
2.554822436351169013e-01 3.121592203455023196e+00
2.568233577745137608e-01 2.873347686843516158e+00
2.581644719139106203e-01 2.651947943221458104e+00
2.595055860533074243e-01 2.092528669266542352e+00
2.608467001927042839e-01 2.282779659842105957e+00
2.621878143321011434e-01 2.633592598910922788e+00
2.635289284714980029e-01 2.408784492559490786e+00
2.648700426108948625e-01 2.729968405987634128e+00
2.662111567502916665e-01 2.577290251950813627e+00
2.675522708896885260e-01 2.462929998577720880e+00
2.688933850290853855e-01 2.356701082249927026e+00
2.702344991684822451e-01 2.768557193758311996e+00
2.715756133078791046e-01 3.353138188181176815e+00
2.729167274472759641e-01 2.992892701508509390e+00
2.742578415866727681e-01 3.027284941527369710e+00
2.755989557260696277e-01 3.080958379892081211e+00
2.769400698654664872e-01 2.999205864335820593e+00
2.782811840048633467e-01 3.051204748416878942e+00
2.796222981442602062e-01 2.880688124465109468e+00
2.809634122836570103e-01 3.010920714682299604e+00
2.823045264230538698e-01 3.044147636428817805e+00
2.836456405624507293e-01 3.202346917435690443e+00
2.849867547018475888e-01 2.964683375596365522e+00
2.863278688412444484e-01 2.725219579263054470e+00
2.876689829806413079e-01 2.627376303759817233e+00
2.890100971200381674e-01 3.029733658407479879e+00
2.903512112594350270e-01 2.765847672956482484e+00
2.916923253988318865e-01 3.578155324926825642e+00
2.930334395382287460e-01 3.757017270432115197e+00
2.943745536776256055e-01 3.934140379887509198e+00
2.957156678170224096e-01 3.867718431257600287e+00
2.970567819564192691e-01 3.829206315790372628e+00
2.983978960958161286e-01 3.515409332172993118e+00
2.997390102352129881e-01 3.722550629105285225e+00
3.010801243746098477e-01 3.921510020050035905e+00
3.024212385140067072e-01 4.376761395376917108e+00
3.037623526534035112e-01 4.376292541605209863e+00
3.051034667928003707e-01 3.957303581446822704e+00
3.064445809321972303e-01 3.833050536573594513e+00
3.077856950715940898e-01 4.243509077505621008e+00
3.091268092109909493e-01 3.643139624566401835e+00
3.104679233503877533e-01 3.929576897066041852e+00
3.118090374897846129e-01 3.926757032837457473e+00
3.131501516291814724e-01 4.161965030746713978e+00
3.144912657685783319e-01 4.158033468615286665e+00
3.158323799079751915e-01 4.088001816529597932e+00
3.171734940473720510e-01 3.741357555646317223e+00
3.185146081867689105e-01 3.568730661770445067e+00
3.198557223261657700e-01 3.973945040273790141e+00
3.211968364655626296e-01 3.914146498175057332e+00
3.225379506049594891e-01 3.938513412505415090e+00
3.238790647443563486e-01 3.946687123061394686e+00
3.252201788837532082e-01 4.087652945209896416e+00
3.265612930231500122e-01 4.018871738261935889e+00
3.279024071625468717e-01 4.146220211601573169e+00
3.292435213019437312e-01 4.266568569549704648e+00
3.305846354413405908e-01 4.121967742928802636e+00
3.319257495807374503e-01 3.885866251914492864e+00
3.332668637201342543e-01 3.712865363072680225e+00
3.346079778595311138e-01 3.833411422266394197e+00
3.359490919989279734e-01 4.030041326552947112e+00
3.372902061383248329e-01 3.804016282500086277e+00
3.386313202777216924e-01 4.211438837549593472e+00
3.399724344171185519e-01 3.829711542704671956e+00
3.413135485565153560e-01 3.467495993320738989e+00
3.426546626959122155e-01 3.292295491776727090e+00
3.439957768353090750e-01 3.709405076155576353e+00
3.453368909747059345e-01 3.596125990823352936e+00
3.466780051141027941e-01 3.613673267600077565e+00
3.480191192534995981e-01 3.254284423373761115e+00
3.493602333928964576e-01 2.918540349009191459e+00
3.507013475322933171e-01 3.161178330275603798e+00
3.520424616716901767e-01 3.451987289897729738e+00
3.533835758110870362e-01 3.451398323354425202e+00
3.547246899504838957e-01 2.594889381751499968e+00
3.560658040898807553e-01 2.557229060771589957e+00
3.574069182292776148e-01 3.007057994270240897e+00
3.587480323686744743e-01 2.882992818006755442e+00
3.600891465080713338e-01 3.358072646451546461e+00
3.614302606474681934e-01 2.897332483344783327e+00
3.627713747868649974e-01 2.775087870923719890e+00
3.641124889262618569e-01 3.128995914868561101e+00
3.654536030656587164e-01 2.845220843792851895e+00
3.667947172050555760e-01 2.512836645316916417e+00
3.681358313444524355e-01 2.775337065125775382e+00
3.694769454838492950e-01 2.882779636395937928e+00
3.708180596232460990e-01 2.874945883971115279e+00
3.721591737626429586e-01 2.450509172934133062e+00
3.735002879020398181e-01 2.553973566659216488e+00
3.748414020414366776e-01 2.166855728632810951e+00
3.761825161808335372e-01 1.931457508788142263e+00
3.775236303202303967e-01 1.991507914990599204e+00
3.788647444596272007e-01 2.708157649952951829e+00
3.802058585990240602e-01 2.770363477604867342e+00
3.815469727384209198e-01 2.593591869334467503e+00
3.828880868778177793e-01 2.290216651143715865e+00
3.842292010172146388e-01 1.824971645834978062e+00
3.855703151566114428e-01 2.150674865050696383e+00
3.869114292960083024e-01 1.755250195245729117e+00
3.882525434354051619e-01 1.333360994764170471e+00
3.895936575748020214e-01 1.087111307402651050e+00
3.909347717141988809e-01 1.069327144216231318e+00
3.922758858535957405e-01 1.376803446857678637e+00
3.936169999929926000e-01 1.730307844095570147e+00
3.949581141323894595e-01 1.241336132093721289e+00
3.962992282717863191e-01 1.585324325477166951e+00
3.976403424111831786e-01 1.673233911560025433e+00
3.989814565505800381e-01 1.665263306576392210e+00
4.003225706899768976e-01 1.469672006451695268e+00
4.016636848293737572e-01 1.258568620002314731e+00
4.030047989687706167e-01 1.221381295884754081e+00
4.043459131081674207e-01 1.282687044532508480e+00
4.056870272475643358e-01 1.164718920971850480e+00
4.070281413869611398e-01 1.003371063859333390e+00
4.083692555263580548e-01 1.130913675811392238e+00
4.097103696657548588e-01 1.325718025128686861e+00
4.110514838051517739e-01 1.207022837360646861e+00
4.123925979445485779e-01 1.175084218860654062e+00
4.137337120839453819e-01 5.739464832211211842e-01
4.150748262233422969e-01 5.575114702575802994e-01
4.164159403627391010e-01 6.386728887131170040e-01
4.177570545021360160e-01 5.218676788904446084e-01
4.190981686415328200e-01 5.487765855890103239e-01
4.204392827809296240e-01 6.063856729740635387e-01
4.217803969203265391e-01 6.768167086016134704e-01
4.231215110597233431e-01 6.507267935575313800e-01
4.244626251991202581e-01 1.847525400235170423e-01
4.258037393385170621e-01 3.353882825069689488e-01
4.271448534779138662e-01 6.172980455406289479e-01
4.284859676173107812e-01 9.412074523140674387e-01
4.298270817567075852e-01 8.035518410100905839e-01
4.311681958961045003e-01 9.333435700621421915e-01
4.325093100355013043e-01 9.926377861845239181e-01
4.338504241748981638e-01 7.255952853723144358e-01
4.351915383142950233e-01 6.610683426028742815e-01
4.365326524536918829e-01 7.597263325897287700e-01
4.378737665930887424e-01 6.642160705455992797e-01
4.392148807324856019e-01 3.231652737319450353e-01
4.405559948718824614e-01 4.788747879939805330e-01
4.418971090112793210e-01 1.085712315415996443e+00
4.432382231506761250e-01 7.626098437624975190e-01
4.445793372900730400e-01 5.123277299243085281e-01
4.459204514294698440e-01 2.841831964223260343e-01
4.472615655688667591e-01 5.267892208419127087e-01
4.486026797082635631e-01 7.327100809955240379e-01
4.499437938476603671e-01 7.062380511921446669e-01
4.512849079870572822e-01 5.206236568400939291e-01
4.526260221264540862e-01 7.444821984716369911e-01
4.539671362658510012e-01 8.860608388907778021e-01
4.553082504052478052e-01 9.111500090623749770e-01
4.566493645446446092e-01 3.833622997993657577e-01
4.579904786840415243e-01 2.734945174296967707e-01
4.593315928234383283e-01 6.024986900306146254e-01
4.606727069628352433e-01 6.215667465716023798e-01
4.620138211022320474e-01 5.454482857385301031e-01
4.633549352416289624e-01 4.732944422735982926e-01
4.646960493810257664e-01 6.839085667156794557e-01
4.660371635204225704e-01 9.960066779899960920e-01
4.673782776598194855e-01 1.091336590232394599e+00
4.687193917992162895e-01 6.468563571851717597e-01
4.700605059386132045e-01 7.509120399630120346e-01
4.714016200780100085e-01 5.300141239953575223e-01
4.727427342174068681e-01 6.407222247752599742e-01
4.740838483568037276e-01 5.529116046528343986e-01
4.754249624962005871e-01 4.904886838760376122e-01
4.767660766355974467e-01 5.175400135688548175e-01
4.781071907749943062e-01 4.739007336744904819e-01
4.794483049143911102e-01 4.247195367753135997e-01
4.807894190537880252e-01 5.850751634042339333e-01
4.821305331931848293e-01 8.074146689388825848e-01
4.834716473325817443e-01 6.501922667430903857e-01
4.848127614719785483e-01 6.978279695039617536e-01
4.861538756113753523e-01 9.371453901120219143e-01
4.874949897507722674e-01 9.357901550371749977e-01
4.888361038901690714e-01 7.325129336873175134e-01
4.901772180295659864e-01 5.381889691247607743e-01
4.915183321689627904e-01 4.918495610940212259e-01
4.928594463083597055e-01 8.169085025104649844e-01
4.942005604477565095e-01 8.476698496086143564e-01
4.955416745871533135e-01 8.928937547834010502e-01
4.968827887265502286e-01 1.125504908907345225e+00
4.982239028659470326e-01 7.595267008069654935e-01
4.995650170053439476e-01 5.543241985946849582e-01
5.009061311447408071e-01 5.096201987781867615e-01
5.022472452841375556e-01 4.936221803309166489e-01
5.035883594235345262e-01 7.231669944681726747e-01
5.049294735629312747e-01 7.702869681042372463e-01
5.062705877023282452e-01 9.287716647388819524e-01
5.076117018417249938e-01 7.300583023168627506e-01
5.089528159811218533e-01 6.647205136044931351e-01
5.102939301205187128e-01 8.080671074978553747e-01
5.116350442599155723e-01 4.426335745569360824e-01
5.129761583993124319e-01 4.858385763374499788e-01
5.143172725387092914e-01 7.405201909909493452e-01
5.156583866781061509e-01 5.852954745861964625e-01
5.169995008175030105e-01 4.438398372819349902e-01
5.183406149568997590e-01 5.536123980858818072e-01
5.196817290962967295e-01 6.327654296973506121e-01
5.210228432356934780e-01 4.534872741963127396e-01
5.223639573750904486e-01 6.414543028515993228e-01
5.237050715144871971e-01 5.085521395554764013e-01
5.250461856538840566e-01 4.112389184093032668e-01
5.263872997932809161e-01 5.969924521787532967e-01
5.277284139326777757e-01 9.640846471022825881e-01
5.290695280720746352e-01 8.707159445667329578e-01
5.304106422114714947e-01 9.643345964139129478e-01
5.317517563508683542e-01 5.427108797520716621e-01
5.330928704902652138e-01 5.397629650166706483e-01
5.344339846296620733e-01 7.488772946471087266e-01
5.357750987690589328e-01 6.716898693110309182e-01
5.371162129084557924e-01 6.142984780258657906e-01
5.384573270478525409e-01 6.412908029254111852e-01
5.397984411872495114e-01 9.311221866772427802e-01
5.411395553266462599e-01 9.359823295434352985e-01
5.424806694660432305e-01 6.108226343797582558e-01
5.438217836054399790e-01 6.977655273320308993e-01
5.451628977448369495e-01 8.384435466816810845e-01
5.465040118842336980e-01 5.753061687250777823e-01
5.478451260236305576e-01 7.057965589078207813e-01
5.491862401630274171e-01 6.098350084295560691e-01
5.505273543024242766e-01 3.364720080199887775e-01
5.518684684418211361e-01 3.105905127011467926e-01
5.532095825812179957e-01 6.982535715747530958e-01
5.545506967206147442e-01 7.189978056093622172e-01
