# q (1/Angstrom), Intensity (arb)
2.078726924066784734e-02 1.586173048813151354e+02
2.212838338006469993e-02 2.778847513298392755e+02
2.346949751946154905e-02 4.052333661507505553e+02
2.481061165885840164e-02 5.556240159635874534e+02
2.615172579825525423e-02 6.223900651089546727e+02
2.749283993765210335e-02 6.506739942657141000e+02
2.883395407704895941e-02 6.725066283603589454e+02
3.017506821644580506e-02 6.886788113597499432e+02
3.151618235584265765e-02 6.930321326052184077e+02
3.285729649523951718e-02 6.932212416127762253e+02
3.419841063463636283e-02 6.866086220024207023e+02
3.553952477403321542e-02 6.835922418755001218e+02
3.688063891343006800e-02 6.791505172087485107e+02
3.822175305282692059e-02 6.772949216371891907e+02
3.956286719222376624e-02 6.738358563143891615e+02
4.090398133162062577e-02 6.693586518925771998e+02
4.224509547101747142e-02 6.676263587111928928e+02
4.358620961041432401e-02 6.651080987981131329e+02
4.492732374981117660e-02 6.595164730407917659e+02
4.626843788920802919e-02 6.589798639634337860e+02
4.760955202860488178e-02 6.562927036842005464e+02
4.895066616800172743e-02 6.540798609917551403e+02
5.029178030739858696e-02 6.537772512210915465e+02
5.163289444679544649e-02 6.516613387473570356e+02
5.297400858619229214e-02 6.476868529886332908e+02
5.431512272558913779e-02 6.439414974382459604e+02
5.565623686498599731e-02 6.401076652031623553e+02
5.699735100438284990e-02 6.362806551462417701e+02
5.833846514377969555e-02 6.321025846004342839e+02
5.967957928317654814e-02 6.288937494021652128e+02
6.102069342257340767e-02 6.225759604060359607e+02
6.236180756197025332e-02 6.171513238122362282e+02
6.370292170136709897e-02 6.141638458652746522e+02
6.504403584076395850e-02 6.116753074833468418e+02
6.638514998016080415e-02 6.050469784740071191e+02
6.772626411955766368e-02 6.014806847369919751e+02
6.906737825895450933e-02 5.949171545879213454e+02
7.040849239835136886e-02 5.862204026743077065e+02
7.174960653774821451e-02 5.788000004071092235e+02
7.309072067714506016e-02 5.706479175601850784e+02
7.443183481654190581e-02 5.641403572008698575e+02
7.577294895593877921e-02 5.554310738662795757e+02
7.711406309533562486e-02 5.464906825791867959e+02
7.845517723473247051e-02 5.386956933678615087e+02
7.979629137412933004e-02 5.305643617988446294e+02
8.113740551352617569e-02 5.229423290569072833e+02
8.247851965292302134e-02 5.152540427088623574e+02
8.381963379231988087e-02 5.076242804438789449e+02
8.516074793171674040e-02 4.992473187747918359e+02
8.650186207111358605e-02 4.910816852361098199e+02
8.784297621051043170e-02 4.824758276779030552e+02
8.918409034990729123e-02 4.765276085315597925e+02
9.052520448930413688e-02 4.691136040561776781e+02
9.186631862870098253e-02 4.614320045633168661e+02
9.320743276809784206e-02 4.536088690871695803e+02
9.454854690749470159e-02 4.455371477251085821e+02
9.588966104689154724e-02 4.381720770031677716e+02
9.723077518628839289e-02 4.302757403516282579e+02
9.857188932568525241e-02 4.236256890750456705e+02
9.991300346508209806e-02 4.154682115189252158e+02
1.012541176044789437e-01 4.073817944281761925e+02
1.025952317438758032e-01 3.993420346213665653e+02
1.039363458832726350e-01 3.922356429666008353e+02
1.052774600226694945e-01 3.834006495336803368e+02
1.066185741620663541e-01 3.762110085582315264e+02
1.079596883014631858e-01 3.685791263761155960e+02
1.093008024408600454e-01 3.617293953769100767e+02
1.106419165802569049e-01 3.530502976251411837e+02
1.119830307196537506e-01 3.438034544756641822e+02
1.133241448590506101e-01 3.376523389484767677e+02
1.146652589984474419e-01 3.312319600287864887e+02
1.160063731378443014e-01 3.221571579125542257e+02
1.173474872772411609e-01 3.156269510665746338e+02
1.186886014166380066e-01 3.102026091081664276e+02
1.200297155560348661e-01 3.010251367783700971e+02
1.213708296954317256e-01 2.942862132281316008e+02
1.227119438348285574e-01 2.883746347081962540e+02
1.240530579742254169e-01 2.815146259828046595e+02
1.253941721136222764e-01 2.746709013579345537e+02
1.267352862530191082e-01 2.668701672508415186e+02
1.280764003924159677e-01 2.611355480760967112e+02
1.294175145318128273e-01 2.545757824650599161e+02
1.307586286712096590e-01 2.466697201139429865e+02
1.320997428106065186e-01 2.409653580453376662e+02
1.334408569500033781e-01 2.343351933088636656e+02
1.347819710894002376e-01 2.274042489701314196e+02
1.361230852287970972e-01 2.215830369318934459e+02
1.374641993681939289e-01 2.157763819581664393e+02
1.388053135075907885e-01 2.091875621031918513e+02
1.401464276469876480e-01 2.025474273040630351e+02
1.414875417863844798e-01 1.975010669290476528e+02
1.428286559257813393e-01 1.926270350340767266e+02
1.441697700651781988e-01 1.866363568191184754e+02
1.455108842045750306e-01 1.806595362607115760e+02
1.468519983439718901e-01 1.750951962447226151e+02
1.481931124833687219e-01 1.699602647413336172e+02
1.495342266227655814e-01 1.660154198554823779e+02
1.508753407621624687e-01 1.596924321734308023e+02
1.522164549015593005e-01 1.535110706803466201e+02
1.535575690409561600e-01 1.506818820562371570e+02
1.548986831803530195e-01 1.457986937264216181e+02
1.562397973197498513e-01 1.400714301557652277e+02
1.575809114591467108e-01 1.345216934549802659e+02
1.589220255985435704e-01 1.300539056193262581e+02
1.602631397379404021e-01 1.264773311449745279e+02
1.616042538773372617e-01 1.213987178090086871e+02
1.629453680167341212e-01 1.167922675404950752e+02
1.642864821561309530e-01 1.127393168476983760e+02
1.656275962955278125e-01 1.093324505801663236e+02
1.669687104349246720e-01 1.045936948604812358e+02
1.683098245743215315e-01 1.005430079704356245e+02
1.696509387137183911e-01 9.666693085212635594e+01
1.709920528531152228e-01 9.378868604477219151e+01
1.723331669925120824e-01 9.035359279769251373e+01
1.736742811319089419e-01 8.598400221385155362e+01
1.750153952713057737e-01 8.297083321766338315e+01
1.763565094107026332e-01 7.952476812229231484e+01
1.776976235500994927e-01 7.533330446601854646e+01
1.790387376894963245e-01 7.267557880228413580e+01
1.803798518288931840e-01 7.008631857641070440e+01
1.817209659682900158e-01 6.622110097630645953e+01
1.830620801076868753e-01 6.327618478807451652e+01
1.844031942470837349e-01 6.080875479279390561e+01
1.857443083864805944e-01 5.823639617040710448e+01
1.870854225258774539e-01 5.596373961700520283e+01
1.884265366652743134e-01 5.349641363657482884e+01
1.897676508046711452e-01 5.153610927585953050e+01
1.911087649440680047e-01 4.898932675283809601e+01
1.924498790834648643e-01 4.626063631141457222e+01
1.937909932228616960e-01 4.354348164149605793e+01
1.951321073622585556e-01 4.054132392713853505e+01
1.964732215016554151e-01 3.819284906858574402e+01
1.978143356410522469e-01 3.671346450843229547e+01
1.991554497804491064e-01 3.550993074604420485e+01
2.004965639198459382e-01 3.318060934864610090e+01
2.018376780592427977e-01 3.145614117901840245e+01
2.031787921986396572e-01 3.049755001035074997e+01
2.045199063380365168e-01 2.887140743324246728e+01
2.058610204774333763e-01 2.777757686542825866e+01
2.072021346168302081e-01 2.635537835269208529e+01
2.085432487562270676e-01 2.477816391527426276e+01
2.098843628956239271e-01 2.273222230014984291e+01
2.112254770350207866e-01 2.134835914308108329e+01
2.125665911744176462e-01 1.975020775438132148e+01
2.139077053138144502e-01 1.867313073758695907e+01
2.152488194532113097e-01 1.782771037372216938e+01
2.165899335926081692e-01 1.715641273992507365e+01
2.179310477320050288e-01 1.563392355040437565e+01
2.192721618714018883e-01 1.505745614642933106e+01
2.206132760107987478e-01 1.414227867809263728e+01
2.219543901501955796e-01 1.329791124994176243e+01
2.232955042895924391e-01 1.289636348890738304e+01
2.246366184289892987e-01 1.185177838861696387e+01
2.259777325683861582e-01 1.118218552862904858e+01
2.273188467077830177e-01 1.011391400568980714e+01
2.286599608471798217e-01 9.229004635132767476e+00
2.300010749865766813e-01 8.344896849558637086e+00
2.313421891259735408e-01 7.585465720140845747e+00
2.326833032653704003e-01 7.277706375915244053e+00
2.340244174047672598e-01 6.856263021565780491e+00
2.353655315441641194e-01 6.379303767532974234e+00
2.367066456835609234e-01 6.002448657675302002e+00
2.380477598229577829e-01 5.360976872237543489e+00
2.393888739623546424e-01 4.826186503349688905e+00
2.407299881017515020e-01 4.914943035774896885e+00
2.420711022411483615e-01 5.396701857316571704e+00
2.434122163805451933e-01 4.281590793916933535e+00
2.447533305199420528e-01 3.873889679922285723e+00
2.460944446593389123e-01 3.812797015023718927e+00
2.474355587987357719e-01 4.197770611373073280e+00
2.487766729381326314e-01 4.138806615803730438e+00
2.501177870775294632e-01 3.647651126978914249e+00
2.514589012169263227e-01 3.361333510747073205e+00
2.528000153563231822e-01 2.739906872663524950e+00
2.541411294957200417e-01 2.886935065972934922e+00
2.554822436351169013e-01 2.823868867328798160e+00
2.568233577745137608e-01 2.326755244811877787e+00
2.581644719139106203e-01 2.369299333584862666e+00
2.595055860533074243e-01 2.398272765389549477e+00
2.608467001927042839e-01 2.718610968913580450e+00
2.621878143321011434e-01 3.000549738210807504e+00
2.635289284714980029e-01 3.155967590500964093e+00
2.648700426108948625e-01 2.621011149748056823e+00
2.662111567502916665e-01 2.930762685575430737e+00
2.675522708896885260e-01 2.874153118820970576e+00
2.688933850290853855e-01 3.051103515315560344e+00
2.702344991684822451e-01 3.182122491989090918e+00
2.715756133078791046e-01 3.439116638332833986e+00
2.729167274472759641e-01 3.180846498741530581e+00
2.742578415866727681e-01 3.224575973671591100e+00
2.755989557260696277e-01 2.672212828122113137e+00
2.769400698654664872e-01 3.008503412662577148e+00
2.782811840048633467e-01 2.926358675830385891e+00
2.796222981442602062e-01 2.805595387569027821e+00
2.809634122836570103e-01 2.973134109803226011e+00
2.823045264230538698e-01 2.693817987304015560e+00
2.836456405624507293e-01 2.894277852373861037e+00
2.849867547018475888e-01 2.888406658958530215e+00
2.863278688412444484e-01 3.172542592600308353e+00
2.876689829806413079e-01 3.362040892698701100e+00
2.890100971200381674e-01 3.394368426339738676e+00
2.903512112594350270e-01 3.091471694636467760e+00
2.916923253988318865e-01 3.566929874399320965e+00
2.930334395382287460e-01 3.261779995552785749e+00
2.943745536776256055e-01 3.611562575811575471e+00
2.957156678170224096e-01 3.833040918647611761e+00
2.970567819564192691e-01 3.768199855933616504e+00
2.983978960958161286e-01 3.777084223985710310e+00
2.997390102352129881e-01 3.978180817171207195e+00
3.010801243746098477e-01 4.246571287050144861e+00
3.024212385140067072e-01 4.287750558067884299e+00
3.037623526534035112e-01 4.517419507627352004e+00
3.051034667928003707e-01 4.390055146204588254e+00
3.064445809321972303e-01 4.115832377741782011e+00
3.077856950715940898e-01 4.269532060441036947e+00
3.091268092109909493e-01 4.120808295774381236e+00
3.104679233503877533e-01 4.169615813004028837e+00
3.118090374897846129e-01 4.227220443008661732e+00
3.131501516291814724e-01 4.156644053770975233e+00
3.144912657685783319e-01 4.097560900024888042e+00
3.158323799079751915e-01 4.004759175580716146e+00
3.171734940473720510e-01 4.016376873418394666e+00
3.185146081867689105e-01 4.242139954641245936e+00
3.198557223261657700e-01 4.203861138581629575e+00
3.211968364655626296e-01 4.051418987949119810e+00
3.225379506049594891e-01 4.246398054422343193e+00
3.238790647443563486e-01 4.522661221492626282e+00
3.252201788837532082e-01 4.780676314325177145e+00
3.265612930231500122e-01 4.054344972571428229e+00
3.279024071625468717e-01 4.075522896351728264e+00
3.292435213019437312e-01 4.336849231419662942e+00
3.305846354413405908e-01 4.225714702223598351e+00
3.319257495807374503e-01 4.108143761826113405e+00
3.332668637201342543e-01 3.851551191253676620e+00
3.346079778595311138e-01 3.843966516789777188e+00
3.359490919989279734e-01 3.915591916847276366e+00
3.372902061383248329e-01 3.916845289397940633e+00
3.386313202777216924e-01 4.379125103043975287e+00
3.399724344171185519e-01 3.743954747555264362e+00
3.413135485565153560e-01 3.567606271618416258e+00
3.426546626959122155e-01 3.625534456469509337e+00
3.439957768353090750e-01 3.858075917568172031e+00
3.453368909747059345e-01 3.444395874857377748e+00
3.466780051141027941e-01 3.414476633234983183e+00
3.480191192534995981e-01 3.313664236241024241e+00
3.493602333928964576e-01 3.639495617848908182e+00
3.507013475322933171e-01 3.608792417819543630e+00
3.520424616716901767e-01 3.647794194319004646e+00
3.533835758110870362e-01 3.264895735397843168e+00
3.547246899504838957e-01 2.798452622919370469e+00
3.560658040898807553e-01 2.924636092478422711e+00
3.574069182292776148e-01 3.106702305039149792e+00
3.587480323686744743e-01 3.344093647159596117e+00
3.600891465080713338e-01 3.448476276724449008e+00
3.614302606474681934e-01 3.018332194558098536e+00
3.627713747868649974e-01 3.066831635817976576e+00
3.641124889262618569e-01 3.072480060203005792e+00
3.654536030656587164e-01 2.760360002793859735e+00
3.667947172050555760e-01 2.685239766524304628e+00
3.681358313444524355e-01 2.879560955142849821e+00
3.694769454838492950e-01 3.036597506391657930e+00
3.708180596232460990e-01 3.082136741142193159e+00
3.721591737626429586e-01 2.707594553613560606e+00
3.735002879020398181e-01 2.633577177942967751e+00
3.748414020414366776e-01 2.173957643399575090e+00
3.761825161808335372e-01 2.007401021507675409e+00
3.775236303202303967e-01 1.668157756819283577e+00
3.788647444596272007e-01 2.332509142562010140e+00
3.802058585990240602e-01 2.490240383868787433e+00
3.815469727384209198e-01 2.551065763034266354e+00
3.828880868778177793e-01 2.561606896639311515e+00
3.842292010172146388e-01 2.070455223774537501e+00
3.855703151566114428e-01 2.369375299283184688e+00
3.869114292960083024e-01 2.032567876536305107e+00
3.882525434354051619e-01 1.481251707817250463e+00
3.895936575748020214e-01 1.445559385826918231e+00
3.909347717141988809e-01 1.479308698354408591e+00
3.922758858535957405e-01 1.457986262988633541e+00
3.936169999929926000e-01 1.965396583422986510e+00
3.949581141323894595e-01 1.235436020521639477e+00
3.962992282717863191e-01 1.500021584747699421e+00
3.976403424111831786e-01 1.375055026761060617e+00
3.989814565505800381e-01 1.121713074275120903e+00
4.003225706899768976e-01 1.186684532701519856e+00
4.016636848293737572e-01 1.395457210031423756e+00
4.030047989687706167e-01 1.276439124090266830e+00
4.043459131081674207e-01 1.279975577168819711e+00
4.056870272475643358e-01 1.223257802877249389e+00
4.070281413869611398e-01 1.139023062489400218e+00
4.083692555263580548e-01 1.219077805845955709e+00
4.097103696657548588e-01 1.143084095937474842e+00
4.110514838051517739e-01 1.163032105209076406e+00
4.123925979445485779e-01 1.270855567606140824e+00
4.137337120839453819e-01 1.001700954764409346e+00
4.150748262233422969e-01 8.203753338345549651e-01
4.164159403627391010e-01 8.219143515826488056e-01
4.177570545021360160e-01 8.394161314422419196e-01
4.190981686415328200e-01 7.694998106724426634e-01
4.204392827809296240e-01 4.604758150385137583e-01
4.217803969203265391e-01 8.818645205780413221e-01
4.231215110597233431e-01 1.047437247390696768e+00
4.244626251991202581e-01 5.816199529296781634e-01
4.258037393385170621e-01 6.421524059957732788e-01
4.271448534779138662e-01 7.582928524684504623e-01
4.284859676173107812e-01 8.989156967941056564e-01
4.298270817567075852e-01 7.575392559801770176e-01
4.311681958961045003e-01 9.332509921525158347e-01
4.325093100355013043e-01 9.019753084131565402e-01
4.338504241748981638e-01 5.894523382438734416e-01
4.351915383142950233e-01 7.565813722307694889e-01
4.365326524536918829e-01 1.062962189687148395e+00
4.378737665930887424e-01 8.287935956250223057e-01
4.392148807324856019e-01 2.785900583686213849e-01
4.405559948718824614e-01 4.715130998263958872e-01
4.418971090112793210e-01 1.031725058685189822e+00
4.432382231506761250e-01 7.184676894338011266e-01
4.445793372900730400e-01 4.339316350669264466e-01
4.459204514294698440e-01 3.818792548259821729e-01
4.472615655688667591e-01 3.790532600198801561e-01
4.486026797082635631e-01 5.053249902668355276e-01
4.499437938476603671e-01 6.652924899505165968e-01
4.512849079870572822e-01 7.584899655499270921e-01
4.526260221264540862e-01 9.360551819086921910e-01
4.539671362658510012e-01 9.925799551443290625e-01
4.553082504052478052e-01 8.409532361746201445e-01
4.566493645446446092e-01 1.833025897834659190e-01
4.579904786840415243e-01 0.000000000000000000e+00
4.593315928234383283e-01 3.195768315411200433e-01
4.606727069628352433e-01 6.150196771621878611e-01
4.620138211022320474e-01 5.248286609196100017e-01
4.633549352416289624e-01 2.510083145391206472e-01
4.646960493810257664e-01 2.968720837236702437e-01
4.660371635204225704e-01 5.580013531246024172e-01
4.673782776598194855e-01 6.908875375700205268e-01
4.687193917992162895e-01 5.607694677560530749e-01
4.700605059386132045e-01 9.511420237275984846e-01
4.714016200780100085e-01 5.695589346314804402e-01
4.727427342174068681e-01 5.920602487890818111e-01
4.740838483568037276e-01 5.596681428150489523e-01
4.754249624962005871e-01 6.036508593004867862e-01
4.767660766355974467e-01 6.814488941475858041e-01
4.781071907749943062e-01 7.346154970936069617e-01
4.794483049143911102e-01 6.402085268173536292e-01
4.807894190537880252e-01 6.675636621408003180e-01
4.821305331931848293e-01 7.704613056289062456e-01
4.834716473325817443e-01 3.964219069359344871e-01
4.848127614719785483e-01 4.111424577373696820e-01
4.861538756113753523e-01 7.011382171011746323e-01
4.874949897507722674e-01 6.436806362035625284e-01
4.888361038901690714e-01 7.544332482956264130e-01
4.901772180295659864e-01 6.219386756681757333e-01
4.915183321689627904e-01 3.483298309561462247e-01
4.928594463083597055e-01 6.312988639641474720e-01
4.942005604477565095e-01 9.023513036124697351e-01
4.955416745871533135e-01 6.676130350387410317e-01
4.968827887265502286e-01 5.794229314252916652e-01
4.982239028659470326e-01 4.127398249844134170e-01
4.995650170053439476e-01 6.615431308667965027e-01
5.009061311447408071e-01 7.686312397976067246e-01
5.022472452841375556e-01 5.902407197926251570e-01
5.035883594235345262e-01 9.442455105952305416e-01
5.049294735629312747e-01 8.272234795918578243e-01
5.062705877023282452e-01 8.793292358486937133e-01
5.076117018417249938e-01 7.014467436399556277e-01
5.089528159811218533e-01 5.372893061086188027e-01
5.102939301205187128e-01 4.031990236727978072e-01
5.116350442599155723e-01 4.248025260666494773e-01
5.129761583993124319e-01 4.305710071066357614e-01
5.143172725387092914e-01 2.292341911872597393e-01
5.156583866781061509e-01 2.135529420996533645e-01
5.169995008175030105e-01 2.530850516251348381e-01
5.183406149568997590e-01 2.698032484383503515e-01
5.196817290962967295e-01 4.198717360702346468e-01
5.210228432356934780e-01 2.397062571134753739e-01
5.223639573750904486e-01 7.629913417241667162e-01
5.237050715144871971e-01 6.391961955484362079e-01
5.250461856538840566e-01 6.209535238254204614e-01
5.263872997932809161e-01 7.476996399464468368e-01
5.277284139326777757e-01 1.055666458942653207e+00
5.290695280720746352e-01 7.552647993825587491e-01
5.304106422114714947e-01 9.975309384830666204e-01
5.317517563508683542e-01 6.758079193928949735e-01
5.330928704902652138e-01 5.427853614355555578e-01
5.344339846296620733e-01 5.380924448045760755e-01
5.357750987690589328e-01 7.647108943675249293e-01
5.371162129084557924e-01 1.011614079418244216e+00
5.384573270478525409e-01 8.675967818824119604e-01
5.397984411872495114e-01 8.301623584079180773e-01
5.411395553266462599e-01 8.740026167373784460e-01
5.424806694660432305e-01 7.770039051996917578e-01
5.438217836054399790e-01 6.031114559397607877e-01
5.451628977448369495e-01 5.723151606527139279e-01
5.465040118842336980e-01 6.419811608543142256e-01
5.478451260236305576e-01 6.500785197641505420e-01
5.491862401630274171e-01 5.829893360008497893e-01
5.505273543024242766e-01 4.608277755491414496e-01
5.518684684418211361e-01 3.154151867762848838e-01
5.532095825812179957e-01 4.134568080496663356e-01
5.545506967206147442e-01 4.677616035483396217e-01
