# q (1/Angstrom), Intensity (arb)
2.078726924066784734e-02 1.551182487027520835e+02
2.212838338006469993e-02 2.739389366254275728e+02
2.346949751946154905e-02 3.965954863335726941e+02
2.481061165885840164e-02 5.492137178731634322e+02
2.615172579825525423e-02 6.186306696015934676e+02
2.749283993765210335e-02 6.418761083568476806e+02
2.883395407704895941e-02 6.664460693713504043e+02
3.017506821644580506e-02 6.798907702260519272e+02
3.151618235584265765e-02 6.822456873183184598e+02
3.285729649523951718e-02 6.829469598148955356e+02
3.419841063463636283e-02 6.811147947713459416e+02
3.553952477403321542e-02 6.744583918258055064e+02
3.688063891343006800e-02 6.694516947551958310e+02
3.822175305282692059e-02 6.666279247732975364e+02
3.956286719222376624e-02 6.636266105350829321e+02
4.090398133162062577e-02 6.587431306147412897e+02
4.224509547101747142e-02 6.528024303839662252e+02
4.358620961041432401e-02 6.517398207178487155e+02
4.492732374981117660e-02 6.482217762254964555e+02
4.626843788920802919e-02 6.478317682181551618e+02
4.760955202860488178e-02 6.469051401054792905e+02
4.895066616800172743e-02 6.440921565264660558e+02
5.029178030739858696e-02 6.426278339916738105e+02
5.163289444679544649e-02 6.431031950173235145e+02
5.297400858619229214e-02 6.381446872327484243e+02
5.431512272558913779e-02 6.346785260053419506e+02
5.565623686498599731e-02 6.283611045643392572e+02
5.699735100438284990e-02 6.224466215199508952e+02
5.833846514377969555e-02 6.211394428740205740e+02
5.967957928317654814e-02 6.184487718759489780e+02
6.102069342257340767e-02 6.139448275000876265e+02
6.236180756197025332e-02 6.080618449924388642e+02
6.370292170136709897e-02 6.015302580971297175e+02
6.504403584076395850e-02 5.995230054118762837e+02
6.638514998016080415e-02 5.941330790014696959e+02
6.772626411955766368e-02 5.866785254881075389e+02
6.906737825895450933e-02 5.820570769356345409e+02
7.040849239835136886e-02 5.738349044675800315e+02
7.174960653774821451e-02 5.668507443360965681e+02
7.309072067714506016e-02 5.586901440846705782e+02
7.443183481654190581e-02 5.529737161042608022e+02
7.577294895593877921e-02 5.471979516624123789e+02
7.711406309533562486e-02 5.378419741880690026e+02
7.845517723473247051e-02 5.311751151053123294e+02
7.979629137412933004e-02 5.225276579992187180e+02
8.113740551352617569e-02 5.142538794436449052e+02
8.247851965292302134e-02 5.079109906652164454e+02
8.381963379231988087e-02 5.008051747331734305e+02
8.516074793171674040e-02 4.927776673571573838e+02
8.650186207111358605e-02 4.856905341558284590e+02
8.784297621051043170e-02 4.775963009303001172e+02
8.918409034990729123e-02 4.685998852637797540e+02
9.052520448930413688e-02 4.614296850014826532e+02
9.186631862870098253e-02 4.530398518224897089e+02
9.320743276809784206e-02 4.439068947948739492e+02
9.454854690749470159e-02 4.373995499779554166e+02
9.588966104689154724e-02 4.316234619298978146e+02
9.723077518628839289e-02 4.243454984328324713e+02
9.857188932568525241e-02 4.137773939974829318e+02
9.991300346508209806e-02 4.077402951881790614e+02
1.012541176044789437e-01 4.009004313211512454e+02
1.025952317438758032e-01 3.927931906512265527e+02
1.039363458832726350e-01 3.848799152418237668e+02
1.052774600226694945e-01 3.762056743104504335e+02
1.066185741620663541e-01 3.695889728001098433e+02
1.079596883014631858e-01 3.631034531471717628e+02
1.093008024408600454e-01 3.560052809080705174e+02
1.106419165802569049e-01 3.481914396104541538e+02
1.119830307196537506e-01 3.407045197353100434e+02
1.133241448590506101e-01 3.317326380396322065e+02
1.146652589984474419e-01 3.254849582942571260e+02
1.160063731378443014e-01 3.170377131340733854e+02
1.173474872772411609e-01 3.098282154137994553e+02
1.186886014166380066e-01 3.039804718357445950e+02
1.200297155560348661e-01 2.966223194472577234e+02
1.213708296954317256e-01 2.906552813167100453e+02
1.227119438348285574e-01 2.837218737094274843e+02
1.240530579742254169e-01 2.752275410811174652e+02
1.253941721136222764e-01 2.693886495301501895e+02
1.267352862530191082e-01 2.628992339849962718e+02
1.280764003924159677e-01 2.559510820113451928e+02
1.294175145318128273e-01 2.504517663293048031e+02
1.307586286712096590e-01 2.438068955307772399e+02
1.320997428106065186e-01 2.364997177852837353e+02
1.334408569500033781e-01 2.299365550217812029e+02
1.347819710894002376e-01 2.252373590225656699e+02
1.361230852287970972e-01 2.183124998307725946e+02
1.374641993681939289e-01 2.131103276362294991e+02
1.388053135075907885e-01 2.068762725857543785e+02
1.401464276469876480e-01 2.009437364425036492e+02
1.414875417863844798e-01 1.946493491254759931e+02
1.428286559257813393e-01 1.887957942951555879e+02
1.441697700651781988e-01 1.837213626329212843e+02
1.455108842045750306e-01 1.780502366746261202e+02
1.468519983439718901e-01 1.724936761498445890e+02
1.481931124833687219e-01 1.672310297784680699e+02
1.495342266227655814e-01 1.631357230697574323e+02
1.508753407621624687e-01 1.574773725321384461e+02
1.522164549015593005e-01 1.519684689430461049e+02
1.535575690409561600e-01 1.477326159884274830e+02
1.548986831803530195e-01 1.433402547471919206e+02
1.562397973197498513e-01 1.375395501482796590e+02
1.575809114591467108e-01 1.325103380977420500e+02
1.589220255985435704e-01 1.284225798353117227e+02
1.602631397379404021e-01 1.238647435260472065e+02
1.616042538773372617e-01 1.196258211594536220e+02
1.629453680167341212e-01 1.146437720048527211e+02
1.642864821561309530e-01 1.108583364158885018e+02
1.656275962955278125e-01 1.076661005172339003e+02
1.669687104349246720e-01 1.035182019410845129e+02
1.683098245743215315e-01 9.958780457907239736e+01
1.696509387137183911e-01 9.662939731135374188e+01
1.709920528531152228e-01 9.291065604838640013e+01
1.723331669925120824e-01 8.835988141363270643e+01
1.736742811319089419e-01 8.433090770101811984e+01
1.750153952713057737e-01 8.156096591788579531e+01
1.763565094107026332e-01 7.818085831129369012e+01
1.776976235500994927e-01 7.448438989668721888e+01
1.790387376894963245e-01 7.221332324218802512e+01
1.803798518288931840e-01 6.895177428640150197e+01
1.817209659682900158e-01 6.534137305175006816e+01
1.830620801076868753e-01 6.219059423853791202e+01
1.844031942470837349e-01 5.991255689705975840e+01
1.857443083864805944e-01 5.748970337150606724e+01
1.870854225258774539e-01 5.466130139414481448e+01
1.884265366652743134e-01 5.274985429935661330e+01
1.897676508046711452e-01 5.071880636596866054e+01
1.911087649440680047e-01 4.744083806866034081e+01
1.924498790834648643e-01 4.462658091046873210e+01
1.937909932228616960e-01 4.271979815395670244e+01
1.951321073622585556e-01 4.000542804129992192e+01
1.964732215016554151e-01 3.777005246505497382e+01
1.978143356410522469e-01 3.643718361553069940e+01
1.991554497804491064e-01 3.490749263229076860e+01
2.004965639198459382e-01 3.292475021890662390e+01
2.018376780592427977e-01 3.114396234803038510e+01
2.031787921986396572e-01 2.994344678392400283e+01
2.045199063380365168e-01 2.832732714848033595e+01
2.058610204774333763e-01 2.628320947010192299e+01
2.072021346168302081e-01 2.515910683605142140e+01
2.085432487562270676e-01 2.401703515739022521e+01
2.098843628956239271e-01 2.247856055530698427e+01
2.112254770350207866e-01 2.091493256614501206e+01
2.125665911744176462e-01 2.009593557748891612e+01
2.139077053138144502e-01 1.809713844632321411e+01
2.152488194532113097e-01 1.744672895607313023e+01
2.165899335926081692e-01 1.669498344425984726e+01
2.179310477320050288e-01 1.515502103722180038e+01
2.192721618714018883e-01 1.449223434171003078e+01
2.206132760107987478e-01 1.333442326894387975e+01
2.219543901501955796e-01 1.261847237339540584e+01
2.232955042895924391e-01 1.211775936078763038e+01
2.246366184289892987e-01 1.116430641239392685e+01
2.259777325683861582e-01 1.040311165370020774e+01
2.273188467077830177e-01 9.240866699828686137e+00
2.286599608471798217e-01 8.948286302364863332e+00
2.300010749865766813e-01 8.169248274699043577e+00
2.313421891259735408e-01 7.240988797887879969e+00
2.326833032653704003e-01 6.859755716587727647e+00
2.340244174047672598e-01 6.609889419297104496e+00
2.353655315441641194e-01 5.755984780492056530e+00
2.367066456835609234e-01 5.016417974180328088e+00
2.380477598229577829e-01 4.836022365085838715e+00
2.393888739623546424e-01 4.349588627287118925e+00
2.407299881017515020e-01 4.136652852849792339e+00
2.420711022411483615e-01 4.957366046945779203e+00
2.434122163805451933e-01 3.839844761900465642e+00
2.447533305199420528e-01 3.517674450454293833e+00
2.460944446593389123e-01 3.365252934308301747e+00
2.474355587987357719e-01 3.279596362014260080e+00
2.487766729381326314e-01 3.223721090944181356e+00
2.501177870775294632e-01 2.964924800428619278e+00
2.514589012169263227e-01 2.433574242776998631e+00
2.528000153563231822e-01 1.876349739136216499e+00
2.541411294957200417e-01 2.227357164659935052e+00
2.554822436351169013e-01 2.250185979877230125e+00
2.568233577745137608e-01 1.541781055010488899e+00
2.581644719139106203e-01 1.746413115195394994e+00
2.595055860533074243e-01 1.755710916557717383e+00
2.608467001927042839e-01 1.552180120322461221e+00
2.621878143321011434e-01 1.891305563430620396e+00
2.635289284714980029e-01 1.413520781566489859e+00
2.648700426108948625e-01 1.628702543225173827e+00
2.662111567502916665e-01 1.993965296130753018e+00
2.675522708896885260e-01 1.773269253857606031e+00
2.688933850290853855e-01 1.594192524184791182e+00
2.702344991684822451e-01 2.234638582421922592e+00
2.715756133078791046e-01 2.628516206150862899e+00
2.729167274472759641e-01 2.322924560309729713e+00
2.742578415866727681e-01 2.490267167809449234e+00
2.755989557260696277e-01 2.075250895628926173e+00
2.769400698654664872e-01 2.043734147215971575e+00
2.782811840048633467e-01 2.089937448987669200e+00
2.796222981442602062e-01 2.084868114151205987e+00
2.809634122836570103e-01 1.978402574285297533e+00
2.823045264230538698e-01 2.000317256821972478e+00
2.836456405624507293e-01 2.234885365978399818e+00
2.849867547018475888e-01 2.228467756799702215e+00
2.863278688412444484e-01 2.683690509392590684e+00
2.876689829806413079e-01 2.952979472848511477e+00
2.890100971200381674e-01 2.888446684892514327e+00
2.903512112594350270e-01 2.831637451892731860e+00
2.916923253988318865e-01 3.008915632748127678e+00
2.930334395382287460e-01 3.122712199360705654e+00
2.943745536776256055e-01 3.286391506755407477e+00
2.957156678170224096e-01 2.993803480755872215e+00
2.970567819564192691e-01 2.880952787178870267e+00
2.983978960958161286e-01 3.278708968181106798e+00
2.997390102352129881e-01 3.315473810303529945e+00
3.010801243746098477e-01 3.200049421181333287e+00
3.024212385140067072e-01 3.256898831241926473e+00
3.037623526534035112e-01 3.475308684643252377e+00
3.051034667928003707e-01 3.671837279991351011e+00
3.064445809321972303e-01 3.795120762220136612e+00
3.077856950715940898e-01 3.579986356779855328e+00
3.091268092109909493e-01 3.122214037167069023e+00
3.104679233503877533e-01 3.848352294983925503e+00
3.118090374897846129e-01 4.057102786233073743e+00
3.131501516291814724e-01 4.189544721638029046e+00
3.144912657685783319e-01 4.072149292604606785e+00
3.158323799079751915e-01 3.304583768479773198e+00
3.171734940473720510e-01 3.110090348929858806e+00
3.185146081867689105e-01 3.798021082367085910e+00
3.198557223261657700e-01 4.301557646671213320e+00
3.211968364655626296e-01 3.914649071604813457e+00
3.225379506049594891e-01 4.302494646850547610e+00
3.238790647443563486e-01 4.008200035037489783e+00
3.252201788837532082e-01 3.858054506666803718e+00
3.265612930231500122e-01 3.668032616563422721e+00
3.279024071625468717e-01 3.749539402722746217e+00
3.292435213019437312e-01 3.900624247922479526e+00
3.305846354413405908e-01 4.062268292157980909e+00
3.319257495807374503e-01 3.783835379556165890e+00
3.332668637201342543e-01 3.480764145056411962e+00
3.346079778595311138e-01 3.753894943088567970e+00
3.359490919989279734e-01 3.808193638165377592e+00
3.372902061383248329e-01 3.561715571611273390e+00
3.386313202777216924e-01 4.004463596531579128e+00
3.399724344171185519e-01 3.610920185645326796e+00
3.413135485565153560e-01 3.609244015925355598e+00
3.426546626959122155e-01 3.661418604642122432e+00
3.439957768353090750e-01 3.640512097489832399e+00
3.453368909747059345e-01 3.351780396152406638e+00
3.466780051141027941e-01 3.553357829436862403e+00
3.480191192534995981e-01 3.289945621556356059e+00
3.493602333928964576e-01 3.114893899142160194e+00
3.507013475322933171e-01 2.727897275533052834e+00
3.520424616716901767e-01 2.896230750325457848e+00
3.533835758110870362e-01 2.797946906952006429e+00
3.547246899504838957e-01 2.653394327001819875e+00
3.560658040898807553e-01 2.610264553696580947e+00
3.574069182292776148e-01 2.805198472847010294e+00
3.587480323686744743e-01 2.699397461374786644e+00
3.600891465080713338e-01 3.267076226360785540e+00
3.614302606474681934e-01 2.863815424801330778e+00
3.627713747868649974e-01 2.741776841294367273e+00
3.641124889262618569e-01 2.919300243203736045e+00
3.654536030656587164e-01 2.505386552135462352e+00
3.667947172050555760e-01 1.945390912970452746e+00
3.681358313444524355e-01 2.505540445647582715e+00
3.694769454838492950e-01 2.533530261066033518e+00
3.708180596232460990e-01 2.570230095859500352e+00
3.721591737626429586e-01 2.561173389057046279e+00
3.735002879020398181e-01 2.418490856328133987e+00
3.748414020414366776e-01 1.767648379368040423e+00
3.761825161808335372e-01 1.758524564672697466e+00
3.775236303202303967e-01 1.752249430507930583e+00
3.788647444596272007e-01 2.285174960502743602e+00
3.802058585990240602e-01 2.129804474059142194e+00
3.815469727384209198e-01 1.989527211518293370e+00
3.828880868778177793e-01 2.392620773217586816e+00
3.842292010172146388e-01 1.816268595519019868e+00
3.855703151566114428e-01 2.047070160004025752e+00
3.869114292960083024e-01 1.850930166758089968e+00
3.882525434354051619e-01 1.336819428107730801e+00
3.895936575748020214e-01 1.136777133303652931e+00
3.909347717141988809e-01 1.190850696107162321e+00
3.922758858535957405e-01 1.716571910961945946e+00
3.936169999929926000e-01 2.005332580355457139e+00
3.949581141323894595e-01 1.174297527883766179e+00
3.962992282717863191e-01 1.353395982182291846e+00
3.976403424111831786e-01 1.641678985275291325e+00
3.989814565505800381e-01 1.370889531247897253e+00
4.003225706899768976e-01 1.031957384560243440e+00
4.016636848293737572e-01 1.476471023518428183e+00
4.030047989687706167e-01 1.259716282361907247e+00
4.043459131081674207e-01 1.040657083684195072e+00
4.056870272475643358e-01 1.013604366988843708e+00
4.070281413869611398e-01 8.526098537182917880e-01
4.083692555263580548e-01 1.255988980364790564e+00
4.097103696657548588e-01 1.271424635147809568e+00
4.110514838051517739e-01 1.144887490310082967e+00
4.123925979445485779e-01 1.114205741725498910e+00
4.137337120839453819e-01 1.086371025031141357e+00
4.150748262233422969e-01 9.301806872101181511e-01
4.164159403627391010e-01 6.713584274952140163e-01
4.177570545021360160e-01 6.843175515690731459e-01
4.190981686415328200e-01 6.093337756755943246e-01
4.204392827809296240e-01 4.509490730430343319e-01
4.217803969203265391e-01 5.025269830433103380e-01
4.231215110597233431e-01 4.759423116998391379e-01
4.244626251991202581e-01 6.633034929748333752e-01
4.258037393385170621e-01 8.140063730786550877e-01
4.271448534779138662e-01 6.737114043292748988e-01
4.284859676173107812e-01 5.438135828224019974e-01
4.298270817567075852e-01 5.873507925451306733e-01
4.311681958961045003e-01 9.732159983332238085e-01
4.325093100355013043e-01 7.196778358622779592e-01
4.338504241748981638e-01 5.734471580890385667e-01
4.351915383142950233e-01 5.528480453614719181e-01
4.365326524536918829e-01 5.450886804429018184e-01
4.378737665930887424e-01 6.823441065780997405e-01
4.392148807324856019e-01 4.427545459695281238e-01
4.405559948718824614e-01 6.627174066261005692e-01
4.418971090112793210e-01 1.015006710162431602e+00
4.432382231506761250e-01 6.224731578931823606e-01
4.445793372900730400e-01 3.936327844906273299e-01
4.459204514294698440e-01 9.675620041035415397e-02
4.472615655688667591e-01 3.262461997011456560e-01
4.486026797082635631e-01 3.550597514538296195e-01
4.499437938476603671e-01 5.161909029105515856e-01
4.512849079870572822e-01 4.960953670724848052e-01
4.526260221264540862e-01 5.682923305336018416e-01
4.539671362658510012e-01 1.001917432057666701e+00
4.553082504052478052e-01 9.963055492365668897e-01
4.566493645446446092e-01 3.983784894611375194e-01
4.579904786840415243e-01 1.064905042865333940e-01
4.593315928234383283e-01 3.600934539507392174e-01
4.606727069628352433e-01 6.876815609420035003e-01
4.620138211022320474e-01 6.012994618218385767e-01
4.633549352416289624e-01 3.625980427369412951e-01
4.646960493810257664e-01 3.446452655061733594e-01
4.660371635204225704e-01 7.475500713852696322e-01
4.673782776598194855e-01 9.038032764147700959e-01
4.687193917992162895e-01 8.300927767533252677e-01
4.700605059386132045e-01 6.729460063665229086e-01
4.714016200780100085e-01 4.256573357668500535e-01
4.727427342174068681e-01 5.943329167362847443e-01
4.740838483568037276e-01 6.336732247102716542e-01
4.754249624962005871e-01 5.679723185831946353e-01
4.767660766355974467e-01 6.318357907934171180e-01
4.781071907749943062e-01 4.929848059779402547e-01
4.794483049143911102e-01 5.120797065498052802e-01
4.807894190537880252e-01 7.047953097144059598e-01
4.821305331931848293e-01 6.262203664482441923e-01
4.834716473325817443e-01 6.829421313374766100e-01
4.848127614719785483e-01 3.876007172654070132e-01
4.861538756113753523e-01 5.023027674585165414e-01
4.874949897507722674e-01 7.177473845075823533e-01
4.888361038901690714e-01 6.715226345640203931e-01
4.901772180295659864e-01 6.218130262134451414e-01
4.915183321689627904e-01 3.658829903234561698e-01
4.928594463083597055e-01 6.505257281615612897e-01
4.942005604477565095e-01 7.064203684388417059e-01
4.955416745871533135e-01 7.417460014684067460e-01
4.968827887265502286e-01 7.128210425680734375e-01
4.982239028659470326e-01 4.071329844255231478e-01
4.995650170053439476e-01 4.777525641681492630e-01
5.009061311447408071e-01 6.943584135142444325e-01
5.022472452841375556e-01 3.656135542079610445e-01
5.035883594235345262e-01 5.604909996294722418e-01
5.049294735629312747e-01 4.912445927333379814e-01
5.062705877023282452e-01 7.186750757883402230e-01
5.076117018417249938e-01 7.861440196974953665e-01
5.089528159811218533e-01 5.675344457486275473e-01
5.102939301205187128e-01 4.392397586179370705e-01
5.116350442599155723e-01 3.229435524393977630e-01
5.129761583993124319e-01 4.692739867714195157e-01
5.143172725387092914e-01 7.040283375443721070e-01
5.156583866781061509e-01 3.651234192013674829e-01
5.169995008175030105e-01 6.289929497997235330e-01
5.183406149568997590e-01 4.607417254569909915e-01
5.196817290962967295e-01 4.428442303107473776e-01
5.210228432356934780e-01 0.000000000000000000e+00
5.223639573750904486e-01 4.110568135588650307e-01
5.237050715144871971e-01 4.357780810509339631e-01
5.250461856538840566e-01 3.295765631266718287e-01
5.263872997932809161e-01 5.988705060393968438e-01
5.277284139326777757e-01 1.047139491541230427e+00
5.290695280720746352e-01 5.728911119864363855e-01
5.304106422114714947e-01 5.372875631376814454e-01
5.317517563508683542e-01 6.000252923598878851e-01
5.330928704902652138e-01 2.806284716587583716e-01
5.344339846296620733e-01 3.048319191619626167e-01
5.357750987690589328e-01 5.181461044468917976e-01
5.371162129084557924e-01 6.521134332647520182e-01
5.384573270478525409e-01 5.749943420590497567e-01
5.397984411872495114e-01 6.182868649555430807e-01
5.411395553266462599e-01 7.462352358012083187e-01
5.424806694660432305e-01 7.936296587975419925e-01
5.438217836054399790e-01 6.109487933364334822e-01
5.451628977448369495e-01 4.557554614856300645e-01
5.465040118842336980e-01 4.260703626772510688e-01
5.478451260236305576e-01 6.961310769283954869e-01
5.491862401630274171e-01 4.113837810187987998e-01
5.505273543024242766e-01 1.550789027827335076e-01
5.518684684418211361e-01 1.529380551090113727e-01
5.532095825812179957e-01 3.681395849875883641e-01
5.545506967206147442e-01 3.888584558232039967e-01
