# q (1/Angstrom), Intensity (arb)
2.078726924066784734e-02 1.588579029868641612e+02
2.212838338006469993e-02 2.834229488708891722e+02
2.346949751946154905e-02 4.106200127103613227e+02
2.481061165885840164e-02 5.667822013888652464e+02
2.615172579825525423e-02 6.374986325568779648e+02
2.749283993765210335e-02 6.670525688201130379e+02
2.883395407704895941e-02 6.936562591797227242e+02
3.017506821644580506e-02 7.127092904516860017e+02
3.151618235584265765e-02 7.207837441198702209e+02
3.285729649523951718e-02 7.221247264875726160e+02
3.419841063463636283e-02 7.183512371023455216e+02
3.553952477403321542e-02 7.175057495421727936e+02
3.688063891343006800e-02 7.150283014379517681e+02
3.822175305282692059e-02 7.089424389289084729e+02
3.956286719222376624e-02 7.053113757582248127e+02
4.090398133162062577e-02 7.061885498595205490e+02
4.224509547101747142e-02 7.045813474822482476e+02
4.358620961041432401e-02 7.002250156243032961e+02
4.492732374981117660e-02 6.975661356791124490e+02
4.626843788920802919e-02 6.979032407940447911e+02
4.760955202860488178e-02 6.978678217719048007e+02
4.895066616800172743e-02 6.972910423030876927e+02
5.029178030739858696e-02 6.926883420518993262e+02
5.163289444679544649e-02 6.934317325764553743e+02
5.297400858619229214e-02 6.923978362096607952e+02
5.431512272558913779e-02 6.899856109241468403e+02
5.565623686498599731e-02 6.826316322680698931e+02
5.699735100438284990e-02 6.753043021095844551e+02
5.833846514377969555e-02 6.747742555280312899e+02
5.967957928317654814e-02 6.711154861227553283e+02
6.102069342257340767e-02 6.652908870886973318e+02
6.236180756197025332e-02 6.593594286646077762e+02
6.370292170136709897e-02 6.531208296667057311e+02
6.504403584076395850e-02 6.518591192330220565e+02
6.638514998016080415e-02 6.463899143757888623e+02
6.772626411955766368e-02 6.394038550286169311e+02
6.906737825895450933e-02 6.320998870446104547e+02
7.040849239835136886e-02 6.250655322718960178e+02
7.174960653774821451e-02 6.196111267127005249e+02
7.309072067714506016e-02 6.109836167593924756e+02
7.443183481654190581e-02 6.031032879344446656e+02
7.577294895593877921e-02 5.942753659345981987e+02
7.711406309533562486e-02 5.861831911720986454e+02
7.845517723473247051e-02 5.777250944088148117e+02
7.979629137412933004e-02 5.692694690496866770e+02
8.113740551352617569e-02 5.611567257571274467e+02
8.247851965292302134e-02 5.543409242117176063e+02
8.381963379231988087e-02 5.474403926736006269e+02
8.516074793171674040e-02 5.383227295001677248e+02
8.650186207111358605e-02 5.294321975424774109e+02
8.784297621051043170e-02 5.217949915437317259e+02
8.918409034990729123e-02 5.136248312969660219e+02
9.052520448930413688e-02 5.067015345576553500e+02
9.186631862870098253e-02 4.987046637169992778e+02
9.320743276809784206e-02 4.895027273547387381e+02
9.454854690749470159e-02 4.804090077588507484e+02
9.588966104689154724e-02 4.721131334677832001e+02
9.723077518628839289e-02 4.637678052736157497e+02
9.857188932568525241e-02 4.563832894616426188e+02
9.991300346508209806e-02 4.485685283444560696e+02
1.012541176044789437e-01 4.414093615786311489e+02
1.025952317438758032e-01 4.341136880282660968e+02
1.039363458832726350e-01 4.258061409146235405e+02
1.052774600226694945e-01 4.167210992982208495e+02
1.066185741620663541e-01 4.077868742500412509e+02
1.079596883014631858e-01 3.996259730948170841e+02
1.093008024408600454e-01 3.905131909837347166e+02
1.106419165802569049e-01 3.830663523497291862e+02
1.119830307196537506e-01 3.759971655494182983e+02
1.133241448590506101e-01 3.684449433561107412e+02
1.146652589984474419e-01 3.620166628016522736e+02
1.160063731378443014e-01 3.542799475272057634e+02
1.173474872772411609e-01 3.456905315218077135e+02
1.186886014166380066e-01 3.382922905597810086e+02
1.200297155560348661e-01 3.312581563787536538e+02
1.213708296954317256e-01 3.235750332576569122e+02
1.227119438348285574e-01 3.146801031564272648e+02
1.240530579742254169e-01 3.076167144365434751e+02
1.253941721136222764e-01 3.003602404809253130e+02
1.267352862530191082e-01 2.933467585853131823e+02
1.280764003924159677e-01 2.857808455605265294e+02
1.294175145318128273e-01 2.782547631541391411e+02
1.307586286712096590e-01 2.710582918917298798e+02
1.320997428106065186e-01 2.641492228742439465e+02
1.334408569500033781e-01 2.581499842833154048e+02
1.347819710894002376e-01 2.508704172752819659e+02
1.361230852287970972e-01 2.446348364850754820e+02
1.374641993681939289e-01 2.381010313349396768e+02
1.388053135075907885e-01 2.308050255117474592e+02
1.401464276469876480e-01 2.260345175287588688e+02
1.414875417863844798e-01 2.199892685952614215e+02
1.428286559257813393e-01 2.138344227155544672e+02
1.441697700651781988e-01 2.081556251669657058e+02
1.455108842045750306e-01 2.040413968851898403e+02
1.468519983439718901e-01 2.016544015501359581e+02
1.481931124833687219e-01 1.995566641020845964e+02
1.495342266227655814e-01 1.965431247058384656e+02
1.508753407621624687e-01 1.868118926817305692e+02
1.522164549015593005e-01 1.765541773920715514e+02
1.535575690409561600e-01 1.686455928087171117e+02
1.548986831803530195e-01 1.625820943904061551e+02
1.562397973197498513e-01 1.566727302864038620e+02
1.575809114591467108e-01 1.508004897912677222e+02
1.589220255985435704e-01 1.461690244730405084e+02
1.602631397379404021e-01 1.408114081584571124e+02
1.616042538773372617e-01 1.367033147024522464e+02
1.629453680167341212e-01 1.315220772721499998e+02
1.642864821561309530e-01 1.263579917142951956e+02
1.656275962955278125e-01 1.217584917557726953e+02
1.669687104349246720e-01 1.179066266965288321e+02
1.683098245743215315e-01 1.131478176680529941e+02
1.696509387137183911e-01 1.088381602311607139e+02
1.709920528531152228e-01 1.052419453146697776e+02
1.723331669925120824e-01 1.009450976761874870e+02
1.736742811319089419e-01 9.776232429503561150e+01
1.750153952713057737e-01 9.405668641649162964e+01
1.763565094107026332e-01 8.975392833196424647e+01
1.776976235500994927e-01 8.608321115937981460e+01
1.790387376894963245e-01 8.230546383119245490e+01
1.803798518288931840e-01 7.903428327081613247e+01
1.817209659682900158e-01 7.633939426077384383e+01
1.830620801076868753e-01 7.273954188735326909e+01
1.844031942470837349e-01 6.968067706034858588e+01
1.857443083864805944e-01 6.686230723494337269e+01
1.870854225258774539e-01 6.401426844422393003e+01
1.884265366652743134e-01 6.147783547756618105e+01
1.897676508046711452e-01 5.824643970509870883e+01
1.911087649440680047e-01 5.601483020364752718e+01
1.924498790834648643e-01 5.332377639171225070e+01
1.937909932228616960e-01 5.106707990758035010e+01
1.951321073622585556e-01 4.818412095426995023e+01
1.964732215016554151e-01 4.578623068447583222e+01
1.978143356410522469e-01 4.384403714108873373e+01
1.991554497804491064e-01 4.151168877374701083e+01
2.004965639198459382e-01 3.943877055557823041e+01
2.018376780592427977e-01 3.764853730540684040e+01
2.031787921986396572e-01 3.603291174998147994e+01
2.045199063380365168e-01 3.376354159942357569e+01
2.058610204774333763e-01 3.178063229508165222e+01
2.072021346168302081e-01 3.056801144539788595e+01
2.085432487562270676e-01 2.911750851717356880e+01
2.098843628956239271e-01 2.725437160090233135e+01
2.112254770350207866e-01 2.574432157298826951e+01
2.125665911744176462e-01 2.460424834626411439e+01
2.139077053138144502e-01 2.333476150892007439e+01
2.152488194532113097e-01 2.182639298816170026e+01
2.165899335926081692e-01 2.045946955922258326e+01
2.179310477320050288e-01 1.923875527929430973e+01
2.192721618714018883e-01 1.766659513988468433e+01
2.206132760107987478e-01 1.723589921056147034e+01
2.219543901501955796e-01 1.654302863369449028e+01
2.232955042895924391e-01 1.511779008213670039e+01
2.246366184289892987e-01 1.432177601104742592e+01
2.259777325683861582e-01 1.378231782334164990e+01
2.273188467077830177e-01 1.272805252901471107e+01
2.286599608471798217e-01 1.171138260484477200e+01
2.300010749865766813e-01 1.094352739538845753e+01
2.313421891259735408e-01 1.067449401367021977e+01
2.326833032653704003e-01 9.732144883747928077e+00
2.340244174047672598e-01 9.189591557419689138e+00
2.353655315441641194e-01 8.556092972207011371e+00
2.367066456835609234e-01 7.870217183821914375e+00
2.380477598229577829e-01 7.704509845830649795e+00
2.393888739623546424e-01 7.779025650039777418e+00
2.407299881017515020e-01 7.017797796392621024e+00
2.420711022411483615e-01 6.650818656985364896e+00
2.434122163805451933e-01 5.921390999202365890e+00
2.447533305199420528e-01 5.991697452787633438e+00
2.460944446593389123e-01 5.551323414232200548e+00
2.474355587987357719e-01 5.510952726167033688e+00
2.487766729381326314e-01 5.252240428636582692e+00
2.501177870775294632e-01 5.243912721169401436e+00
2.514589012169263227e-01 4.473828412264879262e+00
2.528000153563231822e-01 4.443528492192164947e+00
2.541411294957200417e-01 3.986701128254892978e+00
2.554822436351169013e-01 3.825903023036531181e+00
2.568233577745137608e-01 4.146582165823964772e+00
2.581644719139106203e-01 4.586418627731923436e+00
2.595055860533074243e-01 4.175401692455089631e+00
2.608467001927042839e-01 3.821492888495647833e+00
2.621878143321011434e-01 3.791640894360675418e+00
2.635289284714980029e-01 3.664243077856653485e+00
2.648700426108948625e-01 3.942550990342716943e+00
2.662111567502916665e-01 3.750305322886497095e+00
2.675522708896885260e-01 3.661243936672136101e+00
2.688933850290853855e-01 3.920953448969314081e+00
2.702344991684822451e-01 3.432662699063484979e+00
2.715756133078791046e-01 3.785480259986698570e+00
2.729167274472759641e-01 4.177898160026863650e+00
2.742578415866727681e-01 3.808952224103009598e+00
2.755989557260696277e-01 3.656409248328692740e+00
2.769400698654664872e-01 3.719015134889275487e+00
2.782811840048633467e-01 3.673096221703147535e+00
2.796222981442602062e-01 4.207074812218095872e+00
2.809634122836570103e-01 4.164003612340032134e+00
2.823045264230538698e-01 4.094459464989633091e+00
2.836456405624507293e-01 4.181684744249153596e+00
2.849867547018475888e-01 4.012108426340006417e+00
2.863278688412444484e-01 3.858231861543998775e+00
2.876689829806413079e-01 4.159486605278772231e+00
2.890100971200381674e-01 4.774823057381055946e+00
2.903512112594350270e-01 4.648126499661913158e+00
2.916923253988318865e-01 4.385628210178460051e+00
2.930334395382287460e-01 4.562787042009176730e+00
2.943745536776256055e-01 5.015001372514994671e+00
2.957156678170224096e-01 5.194834859856342746e+00
2.970567819564192691e-01 5.653664295860160394e+00
2.983978960958161286e-01 6.091463327702356878e+00
2.997390102352129881e-01 6.308969222154914291e+00
3.010801243746098477e-01 6.145385648396285205e+00
3.024212385140067072e-01 5.731911094725624878e+00
3.037623526534035112e-01 5.260144572090112547e+00
3.051034667928003707e-01 5.181761790208341267e+00
3.064445809321972303e-01 5.398790374530989311e+00
3.077856950715940898e-01 5.539703800038772386e+00
3.091268092109909493e-01 5.515389527376825640e+00
3.104679233503877533e-01 4.785777485526487851e+00
3.118090374897846129e-01 5.076872621674532127e+00
3.131501516291814724e-01 5.142138642372763968e+00
3.144912657685783319e-01 5.558134741500303733e+00
3.158323799079751915e-01 5.690741654334161126e+00
3.171734940473720510e-01 5.437635868019626173e+00
3.185146081867689105e-01 5.575090064193666706e+00
3.198557223261657700e-01 5.508466182835427105e+00
3.211968364655626296e-01 5.364017476116281102e+00
3.225379506049594891e-01 5.542018830445435640e+00
3.238790647443563486e-01 5.496630765715991629e+00
3.252201788837532082e-01 5.435891053408809626e+00
3.265612930231500122e-01 5.395997901522612494e+00
3.279024071625468717e-01 5.391524439506063970e+00
3.292435213019437312e-01 5.330633974636178607e+00
3.305846354413405908e-01 5.664513686626634126e+00
3.319257495807374503e-01 5.341123502693726266e+00
3.332668637201342543e-01 5.031315343158446751e+00
3.346079778595311138e-01 5.010069321061209280e+00
3.359490919989279734e-01 4.883939311957334439e+00
3.372902061383248329e-01 5.049301834116654675e+00
3.386313202777216924e-01 5.248837413636131544e+00
3.399724344171185519e-01 4.895509177404392176e+00
3.413135485565153560e-01 4.899626531649410310e+00
3.426546626959122155e-01 4.641537059474302396e+00
3.439957768353090750e-01 4.529719722904530954e+00
3.453368909747059345e-01 4.597274525736466444e+00
3.466780051141027941e-01 4.579539036145398256e+00
3.480191192534995981e-01 4.848611010046965930e+00
3.493602333928964576e-01 4.513991898802423464e+00
3.507013475322933171e-01 4.212428627952405691e+00
3.520424616716901767e-01 4.239286768207797707e+00
3.533835758110870362e-01 4.160787278413970114e+00
3.547246899504838957e-01 3.985371566275929922e+00
3.560658040898807553e-01 3.786517840453100803e+00
3.574069182292776148e-01 3.690420625522413900e+00
3.587480323686744743e-01 3.747632588013914301e+00
3.600891465080713338e-01 3.799598380749465321e+00
3.614302606474681934e-01 3.989828161052912492e+00
3.627713747868649974e-01 3.753374903531550899e+00
3.641124889262618569e-01 3.695738141549156808e+00
3.654536030656587164e-01 3.591262962526876379e+00
3.667947172050555760e-01 3.215081435219786954e+00
3.681358313444524355e-01 3.178578142370156456e+00
3.694769454838492950e-01 3.043447468078859686e+00
3.708180596232460990e-01 3.466170306142480229e+00
3.721591737626429586e-01 3.103271699493554081e+00
3.735002879020398181e-01 3.043305407886037983e+00
3.748414020414366776e-01 2.910188005513006715e+00
3.761825161808335372e-01 2.582262701614865819e+00
3.775236303202303967e-01 2.498526490991096694e+00
3.788647444596272007e-01 2.608988526336254665e+00
3.802058585990240602e-01 2.764165236023288230e+00
3.815469727384209198e-01 2.737419207904885354e+00
3.828880868778177793e-01 2.618052503822795529e+00
3.842292010172146388e-01 2.320937137459019084e+00
3.855703151566114428e-01 1.847799024557460257e+00
3.869114292960083024e-01 1.852905478039716058e+00
3.882525434354051619e-01 2.229576487573659449e+00
3.895936575748020214e-01 2.469331670176323712e+00
3.909347717141988809e-01 2.159319258108489237e+00
3.922758858535957405e-01 1.838480014856628486e+00
3.936169999929926000e-01 1.714553537061064503e+00
3.949581141323894595e-01 1.926027264200129707e+00
3.962992282717863191e-01 2.110259192840679532e+00
3.976403424111831786e-01 1.732032860815998276e+00
3.989814565505800381e-01 1.625257281105142226e+00
4.003225706899768976e-01 1.454093178639432438e+00
4.016636848293737572e-01 1.464562408079693512e+00
4.030047989687706167e-01 1.810727704466934540e+00
4.043459131081674207e-01 1.510294539468866049e+00
4.056870272475643358e-01 1.395124810625326006e+00
4.070281413869611398e-01 1.191005171340044910e+00
4.083692555263580548e-01 1.308926327902312892e+00
4.097103696657548588e-01 1.048334244241061697e+00
4.110514838051517739e-01 8.914996968572239666e-01
4.123925979445485779e-01 1.053651434576892143e+00
4.137337120839453819e-01 8.868706026167600953e-01
4.150748262233422969e-01 9.167070972637034743e-01
4.164159403627391010e-01 7.194575986640288079e-01
4.177570545021360160e-01 7.338550272017627663e-01
4.190981686415328200e-01 1.021548716034665460e+00
4.204392827809296240e-01 9.360172205547527824e-01
4.217803969203265391e-01 1.004428575818359093e+00
4.231215110597233431e-01 1.093710993625627736e+00
4.244626251991202581e-01 1.063171019612568102e+00
4.258037393385170621e-01 1.126822892649158803e+00
4.271448534779138662e-01 8.894673547962383964e-01
4.284859676173107812e-01 5.590043741036510028e-01
4.298270817567075852e-01 4.501557533597946303e-01
4.311681958961045003e-01 6.329685407206753212e-01
4.325093100355013043e-01 7.226985657637214899e-01
4.338504241748981638e-01 8.349718337056160067e-01
4.351915383142950233e-01 6.645431072556817753e-01
4.365326524536918829e-01 7.459584120321380851e-01
4.378737665930887424e-01 8.060257584659566987e-01
4.392148807324856019e-01 7.071181757723792316e-01
4.405559948718824614e-01 6.483516975361141021e-01
4.418971090112793210e-01 7.982859525472889572e-01
4.432382231506761250e-01 7.769944994130426608e-01
4.445793372900730400e-01 7.806780494918044155e-01
4.459204514294698440e-01 8.100926552201954678e-01
4.472615655688667591e-01 9.435517131241937250e-01
4.486026797082635631e-01 9.501154277697594353e-01
4.499437938476603671e-01 9.939148221129343597e-01
4.512849079870572822e-01 9.494061515584704125e-01
4.526260221264540862e-01 8.533315815066373489e-01
4.539671362658510012e-01 7.389935256677588882e-01
4.553082504052478052e-01 6.963542267737992120e-01
4.566493645446446092e-01 8.385159992168027543e-01
4.579904786840415243e-01 7.987836963473569085e-01
4.593315928234383283e-01 6.382611814814183049e-01
4.606727069628352433e-01 6.511756466642353303e-01
4.620138211022320474e-01 4.680513134955859300e-01
4.633549352416289624e-01 7.708134255648957378e-01
4.646960493810257664e-01 7.629879083129367245e-01
4.660371635204225704e-01 6.830627689096928634e-01
4.673782776598194855e-01 4.271808380000123861e-01
4.687193917992162895e-01 4.970116639865125308e-01
4.700605059386132045e-01 8.229400887064386438e-01
4.714016200780100085e-01 9.920540358349256849e-01
4.727427342174068681e-01 6.800812547054064794e-01
4.740838483568037276e-01 7.752853208314718358e-01
4.754249624962005871e-01 6.019446189085826404e-01
4.767660766355974467e-01 6.009622354888435325e-01
4.781071907749943062e-01 6.402243151896414020e-01
4.794483049143911102e-01 5.177562375635673675e-01
4.807894190537880252e-01 4.717633910940008946e-01
4.821305331931848293e-01 4.693000843317776116e-01
4.834716473325817443e-01 5.386976359349731069e-01
4.848127614719785483e-01 6.542410018742970124e-01
4.861538756113753523e-01 9.161837479542569440e-01
4.874949897507722674e-01 7.184098848239415247e-01
4.888361038901690714e-01 4.345682599935969392e-01
4.901772180295659864e-01 7.454619978516063838e-01
4.915183321689627904e-01 7.773212573611232301e-01
4.928594463083597055e-01 7.168389058517092849e-01
4.942005604477565095e-01 8.485518169854202597e-01
4.955416745871533135e-01 7.285255137907498124e-01
4.968827887265502286e-01 6.372649775390044624e-01
4.982239028659470326e-01 5.925868288988951349e-01
4.995650170053439476e-01 7.478742715059993884e-01
5.009061311447408071e-01 6.819962728670745378e-01
5.022472452841375556e-01 8.698824311944122201e-01
5.035883594235345262e-01 9.955011989290198926e-01
5.049294735629312747e-01 7.943677650024412173e-01
5.062705877023282452e-01 7.434526201751197050e-01
5.076117018417249938e-01 8.089469301904017584e-01
5.089528159811218533e-01 8.367487006456926224e-01
5.102939301205187128e-01 8.490721018614877380e-01
5.116350442599155723e-01 4.729226129962924574e-01
5.129761583993124319e-01 3.516244600505373796e-01
5.143172725387092914e-01 6.519849044048910969e-01
5.156583866781061509e-01 9.328862581862082948e-01
5.169995008175030105e-01 8.160801588599042589e-01
5.183406149568997590e-01 7.870538427691897709e-01
5.196817290962967295e-01 9.029387556447616703e-01
5.210228432356934780e-01 6.425651301878190225e-01
5.223639573750904486e-01 6.652953125628116027e-01
5.237050715144871971e-01 7.240648917077123770e-01
5.250461856538840566e-01 6.382937933295664834e-01
5.263872997932809161e-01 7.508399126976570415e-01
5.277284139326777757e-01 8.436142601677474318e-01
5.290695280720746352e-01 7.909587598992970925e-01
5.304106422114714947e-01 7.344737842883688472e-01
5.317517563508683542e-01 6.837499955642698524e-01
5.330928704902652138e-01 5.383192688944617998e-01
5.344339846296620733e-01 5.396447038843845689e-01
5.357750987690589328e-01 7.249634230786980993e-01
5.371162129084557924e-01 7.050312789537898084e-01
5.384573270478525409e-01 7.359138105436286992e-01
5.397984411872495114e-01 4.898913946660456986e-01
5.411395553266462599e-01 4.716186734422507243e-01
5.424806694660432305e-01 6.946806145377308894e-01
5.438217836054399790e-01 7.332148049171607340e-01
5.451628977448369495e-01 8.853092215491997763e-01
5.465040118842336980e-01 5.633821657172006780e-01
5.478451260236305576e-01 6.561725609126014547e-01
5.491862401630274171e-01 9.812762164008503873e-01
5.505273543024242766e-01 7.952992464174357679e-01
5.518684684418211361e-01 7.632158377294402385e-01
5.532095825812179957e-01 6.858212425227705467e-01
5.545506967206147442e-01 8.043270893664953292e-01
