# q (1/Angstrom), Intensity (arb)
2.078726924066784734e-02 2.445336027700030854e+02
2.212838338006469993e-02 3.349707426504699583e+02
2.346949751946154905e-02 4.244408371019920310e+02
2.481061165885840164e-02 6.183071857413997350e+02
2.615172579825525423e-02 7.423175370844261352e+02
2.749283993765210335e-02 7.875056330189754590e+02
2.883395407704895941e-02 8.253099044196890191e+02
3.017506821644580506e-02 8.411074636895325511e+02
3.151618235584265765e-02 8.495777980919270931e+02
3.285729649523951718e-02 8.522866302854476999e+02
3.419841063463636283e-02 8.479071703557594901e+02
3.553952477403321542e-02 8.427823369605348489e+02
3.688063891343006800e-02 8.389980105071283560e+02
3.822175305282692059e-02 8.353180179957024620e+02
3.956286719222376624e-02 8.311752946006412230e+02
4.090398133162062577e-02 8.268336300619041594e+02
4.224509547101747142e-02 8.201674870448200636e+02
4.358620961041432401e-02 8.148736812156025735e+02
4.492732374981117660e-02 8.075515394704079881e+02
4.626843788920802919e-02 8.055637052327044785e+02
4.760955202860488178e-02 8.078220160687852740e+02
4.895066616800172743e-02 8.011154386301395789e+02
5.029178030739858696e-02 7.989176886584525619e+02
5.163289444679544649e-02 7.951223010335417030e+02
5.297400858619229214e-02 7.923354238471051758e+02
5.431512272558913779e-02 7.883244832208051776e+02
5.565623686498599731e-02 7.788886403180875959e+02
5.699735100438284990e-02 7.711028505081422963e+02
5.833846514377969555e-02 7.658725098783035037e+02
5.967957928317654814e-02 7.580560952300454574e+02
6.102069342257340767e-02 7.500113037821362241e+02
6.236180756197025332e-02 7.414230430864647587e+02
6.370292170136709897e-02 7.360461389314202734e+02
6.504403584076395850e-02 7.311457222427754914e+02
6.638514998016080415e-02 7.211028981583693849e+02
6.772626411955766368e-02 7.085622364125882768e+02
6.906737825895450933e-02 7.010497667120135930e+02
7.040849239835136886e-02 6.915209039470721564e+02
7.174960653774821451e-02 6.804169838217445658e+02
7.309072067714506016e-02 6.691671126725111662e+02
7.443183481654190581e-02 6.584077098795216898e+02
7.577294895593877921e-02 6.477488934425508660e+02
7.711406309533562486e-02 6.367763139701859245e+02
7.845517723473247051e-02 6.255972192287102871e+02
7.979629137412933004e-02 6.167497153020348151e+02
8.113740551352617569e-02 6.037076846181591918e+02
8.247851965292302134e-02 5.937626407919942721e+02
8.381963379231988087e-02 5.833729158787933784e+02
8.516074793171674040e-02 5.712866172316986422e+02
8.650186207111358605e-02 5.604243142951237360e+02
8.784297621051043170e-02 5.485452999673295835e+02
8.918409034990729123e-02 5.394866925308796226e+02
9.052520448930413688e-02 5.294650635013102828e+02
9.186631862870098253e-02 5.162596886769234743e+02
9.320743276809784206e-02 5.054948012008136402e+02
9.454854690749470159e-02 4.945149043620878615e+02
9.588966104689154724e-02 4.833947264643794597e+02
9.723077518628839289e-02 4.738310515245412944e+02
9.857188932568525241e-02 4.617067701284988743e+02
9.991300346508209806e-02 4.513441602486808506e+02
1.012541176044789437e-01 4.406212652752345775e+02
1.025952317438758032e-01 4.312353313836370035e+02
1.039363458832726350e-01 4.189325034346009602e+02
1.052774600226694945e-01 4.085085270954403427e+02
1.066185741620663541e-01 3.986698180475088975e+02
1.079596883014631858e-01 3.904379291154425573e+02
1.093008024408600454e-01 3.811403314270109490e+02
1.106419165802569049e-01 3.703205611358103511e+02
1.119830307196537506e-01 3.611634193677775215e+02
1.133241448590506101e-01 3.530911514037164238e+02
1.146652589984474419e-01 3.418731093842983455e+02
1.160063731378443014e-01 3.318793348653650810e+02
1.173474872772411609e-01 3.229746189474178664e+02
1.186886014166380066e-01 3.134235891681797739e+02
1.200297155560348661e-01 3.041769460928160811e+02
1.213708296954317256e-01 2.965383319083592824e+02
1.227119438348285574e-01 2.881481178283858640e+02
1.240530579742254169e-01 2.788851461567813317e+02
1.253941721136222764e-01 2.699719120968998709e+02
1.267352862530191082e-01 2.620665726848401960e+02
1.280764003924159677e-01 2.535037955478401273e+02
1.294175145318128273e-01 2.443743486010093307e+02
1.307586286712096590e-01 2.367584986953978330e+02
1.320997428106065186e-01 2.294181153955085506e+02
1.334408569500033781e-01 2.216767560463711106e+02
1.347819710894002376e-01 2.145139364009250471e+02
1.361230852287970972e-01 2.054475607788862135e+02
1.374641993681939289e-01 1.983625633238678745e+02
1.388053135075907885e-01 1.922967326460212121e+02
1.401464276469876480e-01 1.837605535204087062e+02
1.414875417863844798e-01 1.778777365513278426e+02
1.428286559257813393e-01 1.715615251659402247e+02
1.441697700651781988e-01 1.648848051005840034e+02
1.455108842045750306e-01 1.589967851138694925e+02
1.468519983439718901e-01 1.527696789581349321e+02
1.481931124833687219e-01 1.472429658179848388e+02
1.495342266227655814e-01 1.410639991595891445e+02
1.508753407621624687e-01 1.344628059812932293e+02
1.522164549015593005e-01 1.293613681687604640e+02
1.535575690409561600e-01 1.249456898849769431e+02
1.548986831803530195e-01 1.191651038946882579e+02
1.562397973197498513e-01 1.132606952031542420e+02
1.575809114591467108e-01 1.090103041362749678e+02
1.589220255985435704e-01 1.042159894130590914e+02
1.602631397379404021e-01 9.950045352789751973e+01
1.616042538773372617e-01 9.522648358519042233e+01
1.629453680167341212e-01 9.036392776576731478e+01
1.642864821561309530e-01 8.513875953370903460e+01
1.656275962955278125e-01 8.157520557704988562e+01
1.669687104349246720e-01 7.763242727005827248e+01
1.683098245743215315e-01 7.438961533944619475e+01
1.696509387137183911e-01 7.116189899283159548e+01
1.709920528531152228e-01 6.718045989841959909e+01
1.723331669925120824e-01 6.333782248668045156e+01
1.736742811319089419e-01 6.056079302716487689e+01
1.750153952713057737e-01 5.711531511698676411e+01
1.763565094107026332e-01 5.357034503401575876e+01
1.776976235500994927e-01 5.061745688120737441e+01
1.790387376894963245e-01 4.774072133565393017e+01
1.803798518288931840e-01 4.542986828215136086e+01
1.817209659682900158e-01 4.222814498959017726e+01
1.830620801076868753e-01 3.932108215022208242e+01
1.844031942470837349e-01 3.724183963846884637e+01
1.857443083864805944e-01 3.520321283726556771e+01
1.870854225258774539e-01 3.318276164258168137e+01
1.884265366652743134e-01 3.086262530029918594e+01
1.897676508046711452e-01 2.898370488015946478e+01
1.911087649440680047e-01 2.716828364377202831e+01
1.924498790834648643e-01 2.562486232968235811e+01
1.937909932228616960e-01 2.363997309351699982e+01
1.951321073622585556e-01 2.078320622596403666e+01
1.964732215016554151e-01 1.891032995570003550e+01
1.978143356410522469e-01 1.819635804867301943e+01
1.991554497804491064e-01 1.773526989719519520e+01
2.004965639198459382e-01 1.644924377935866744e+01
2.018376780592427977e-01 1.553644810026098355e+01
2.031787921986396572e-01 1.416460306336372810e+01
2.045199063380365168e-01 1.307902635361402588e+01
2.058610204774333763e-01 1.217439642487184415e+01
2.072021346168302081e-01 1.125654237782336509e+01
2.085432487562270676e-01 1.008789162008289964e+01
2.098843628956239271e-01 9.288976982700873464e+00
2.112254770350207866e-01 8.808747802469227395e+00
2.125665911744176462e-01 8.478919390506462150e+00
2.139077053138144502e-01 7.412851413123760835e+00
2.152488194532113097e-01 6.737781996750427993e+00
2.165899335926081692e-01 6.764516478738428873e+00
2.179310477320050288e-01 5.704701065537619797e+00
2.192721618714018883e-01 5.720013001847974010e+00
2.206132760107987478e-01 5.327136289906405864e+00
2.219543901501955796e-01 4.834024466944939036e+00
2.232955042895924391e-01 4.450424208694528261e+00
2.246366184289892987e-01 3.962817877581088055e+00
2.259777325683861582e-01 4.297387373379208952e+00
2.273188467077830177e-01 3.953425345398287050e+00
2.286599608471798217e-01 3.931603034505698702e+00
2.300010749865766813e-01 3.515977623798278273e+00
2.313421891259735408e-01 3.135014023560898977e+00
2.326833032653704003e-01 2.949687944322604949e+00
2.340244174047672598e-01 2.932476773778532220e+00
2.353655315441641194e-01 3.070484035698072489e+00
2.367066456835609234e-01 2.997202254640399133e+00
2.380477598229577829e-01 2.728614243273668194e+00
2.393888739623546424e-01 2.834706003834128296e+00
2.407299881017515020e-01 3.102681897077772533e+00
2.420711022411483615e-01 3.446822062184651259e+00
2.434122163805451933e-01 2.615757442799790056e+00
2.447533305199420528e-01 2.779753278116118054e+00
2.460944446593389123e-01 3.555367240037867305e+00
2.474355587987357719e-01 3.601724690191389300e+00
2.487766729381326314e-01 3.496307203117325457e+00
2.501177870775294632e-01 3.558099822183777405e+00
2.514589012169263227e-01 3.583232491736396241e+00
2.528000153563231822e-01 3.450409683587608356e+00
2.541411294957200417e-01 3.900695100933432968e+00
2.554822436351169013e-01 3.631037717983645052e+00
2.568233577745137608e-01 3.515567761574828864e+00
2.581644719139106203e-01 3.706509295052867969e+00
2.595055860533074243e-01 3.945896451316798448e+00
2.608467001927042839e-01 4.771291577352471336e+00
2.621878143321011434e-01 4.576173010489512194e+00
2.635289284714980029e-01 4.489208129478484466e+00
2.648700426108948625e-01 4.656328540196483345e+00
2.662111567502916665e-01 4.734627803055488471e+00
2.675522708896885260e-01 4.699764013889307535e+00
2.688933850290853855e-01 4.897109380940420920e+00
2.702344991684822451e-01 4.999296891855934177e+00
2.715756133078791046e-01 5.980023158612993939e+00
2.729167274472759641e-01 5.489551143843812042e+00
2.742578415866727681e-01 5.604109174318850251e+00
2.755989557260696277e-01 5.399212824500068564e+00
2.769400698654664872e-01 5.510965387513735436e+00
2.782811840048633467e-01 5.770578580344519537e+00
2.796222981442602062e-01 5.782980601260717890e+00
2.809634122836570103e-01 5.952929558824664014e+00
2.823045264230538698e-01 5.229744159678944015e+00
2.836456405624507293e-01 5.458871603434161557e+00
2.849867547018475888e-01 5.732046446701858144e+00
2.863278688412444484e-01 5.688211532326690190e+00
2.876689829806413079e-01 5.890366643216324860e+00
2.890100971200381674e-01 5.875144761176784414e+00
2.903512112594350270e-01 5.762932804761319971e+00
2.916923253988318865e-01 6.042490967080283326e+00
2.930334395382287460e-01 5.818030549621553860e+00
2.943745536776256055e-01 5.848140433629538393e+00
2.957156678170224096e-01 6.059508831019229547e+00
2.970567819564192691e-01 5.956752393439813886e+00
2.983978960958161286e-01 5.887024557558248716e+00
2.997390102352129881e-01 5.748105965018027064e+00
3.010801243746098477e-01 5.703457979834269054e+00
3.024212385140067072e-01 6.015759866309863924e+00
3.037623526534035112e-01 6.174964988803566257e+00
3.051034667928003707e-01 6.028159306940210627e+00
3.064445809321972303e-01 5.964507482718474307e+00
3.077856950715940898e-01 5.407995123932124670e+00
3.091268092109909493e-01 5.038863528746460929e+00
3.104679233503877533e-01 5.694309368147372652e+00
3.118090374897846129e-01 5.800207551726231259e+00
3.131501516291814724e-01 5.253790721364993033e+00
3.144912657685783319e-01 5.275969359967191963e+00
3.158323799079751915e-01 4.881295086155702734e+00
3.171734940473720510e-01 4.362212158183950805e+00
3.185146081867689105e-01 4.663330586099668551e+00
3.198557223261657700e-01 5.368177862820338930e+00
3.211968364655626296e-01 4.868227467765990468e+00
3.225379506049594891e-01 4.733537600729555095e+00
3.238790647443563486e-01 4.610633813207677179e+00
3.252201788837532082e-01 4.711869547898125177e+00
3.265612930231500122e-01 4.529549256699262116e+00
3.279024071625468717e-01 4.852969854997809307e+00
3.292435213019437312e-01 4.681853647338222402e+00
3.305846354413405908e-01 4.140380227522065582e+00
3.319257495807374503e-01 3.755332695672692012e+00
3.332668637201342543e-01 3.621951159102430040e+00
3.346079778595311138e-01 3.480740739688734209e+00
3.359490919989279734e-01 3.824369511839776692e+00
3.372902061383248329e-01 3.579892318431227238e+00
3.386313202777216924e-01 3.861056896765639124e+00
3.399724344171185519e-01 3.437133628433478805e+00
3.413135485565153560e-01 3.310819543099185580e+00
3.426546626959122155e-01 3.245390967187695708e+00
3.439957768353090750e-01 3.500719488907748200e+00
3.453368909747059345e-01 3.511454876861833441e+00
3.466780051141027941e-01 3.007909273178796639e+00
3.480191192534995981e-01 2.772138942018663954e+00
3.493602333928964576e-01 2.549871981513895491e+00
3.507013475322933171e-01 2.407959235024037525e+00
3.520424616716901767e-01 2.714901682510408421e+00
3.533835758110870362e-01 2.653570914696096850e+00
3.547246899504838957e-01 2.090705870119592191e+00
3.560658040898807553e-01 2.248831657386595850e+00
3.574069182292776148e-01 2.265286642346204360e+00
3.587480323686744743e-01 1.966805368271522525e+00
3.600891465080713338e-01 2.409486373597573561e+00
3.614302606474681934e-01 2.496812409070379601e+00
3.627713747868649974e-01 2.493121155601507155e+00
3.641124889262618569e-01 2.310084541675884395e+00
3.654536030656587164e-01 1.851755375421042515e+00
3.667947172050555760e-01 1.866323004031293920e+00
3.681358313444524355e-01 2.055054802232582745e+00
3.694769454838492950e-01 1.615135667154170562e+00
3.708180596232460990e-01 1.597000168512529683e+00
3.721591737626429586e-01 1.547963704210395974e+00
3.735002879020398181e-01 1.474436016168219510e+00
3.748414020414366776e-01 1.455505314732270961e+00
3.761825161808335372e-01 1.409786432380016663e+00
3.775236303202303967e-01 1.526133390404218915e+00
3.788647444596272007e-01 1.524008594730943855e+00
3.802058585990240602e-01 1.243038321674568181e+00
3.815469727384209198e-01 1.489629895405336413e+00
3.828880868778177793e-01 1.566855005192934414e+00
3.842292010172146388e-01 1.166365664040043271e+00
3.855703151566114428e-01 1.188345679006474143e+00
3.869114292960083024e-01 1.149157852478190023e+00
3.882525434354051619e-01 8.876797191665204423e-01
3.895936575748020214e-01 6.584496878966348277e-01
3.909347717141988809e-01 1.047147718633418378e+00
3.922758858535957405e-01 1.193347416500209590e+00
3.936169999929926000e-01 1.659859321401498278e+00
3.949581141323894595e-01 1.129111098727300089e+00
3.962992282717863191e-01 9.958267040154993310e-01
3.976403424111831786e-01 1.165373611321733449e+00
3.989814565505800381e-01 9.933574782345573340e-01
4.003225706899768976e-01 9.552221784550098960e-01
4.016636848293737572e-01 1.232088834123750587e+00
4.030047989687706167e-01 1.171394098600750056e+00
4.043459131081674207e-01 9.728303233616131251e-01
4.056870272475643358e-01 9.243308326593009383e-01
4.070281413869611398e-01 9.291050599726062842e-01
4.083692555263580548e-01 9.016397270706661971e-01
4.097103696657548588e-01 6.833811214299601033e-01
4.110514838051517739e-01 9.290370272536563334e-01
4.123925979445485779e-01 1.161961775119124241e+00
4.137337120839453819e-01 1.153680809182944245e+00
4.150748262233422969e-01 1.030071064023225347e+00
4.164159403627391010e-01 8.216642641759435151e-01
4.177570545021360160e-01 7.165519330389784614e-01
4.190981686415328200e-01 7.518085684982978023e-01
4.204392827809296240e-01 7.311393446157694598e-01
4.217803969203265391e-01 8.127963873533801120e-01
4.231215110597233431e-01 7.012363214283183765e-01
4.244626251991202581e-01 7.418472308841188578e-01
4.258037393385170621e-01 1.174327292923393884e+00
4.271448534779138662e-01 1.555653495384554219e+00
4.284859676173107812e-01 1.334460469226151247e+00
4.298270817567075852e-01 1.303666944578225184e+00
4.311681958961045003e-01 1.498318217251707551e+00
4.325093100355013043e-01 1.184086953023310684e+00
4.338504241748981638e-01 8.745070666226411049e-01
4.351915383142950233e-01 8.585517631190668908e-01
4.365326524536918829e-01 8.778348164714984136e-01
4.378737665930887424e-01 9.632296756225215972e-01
4.392148807324856019e-01 5.522291018106955107e-01
4.405559948718824614e-01 8.697058725029052084e-01
4.418971090112793210e-01 1.313416883436246962e+00
4.432382231506761250e-01 1.021708180487955531e+00
4.445793372900730400e-01 9.352656977857449760e-01
4.459204514294698440e-01 8.337433969547376478e-01
4.472615655688667591e-01 8.466078778406753713e-01
4.486026797082635631e-01 1.141747781175226351e+00
4.499437938476603671e-01 1.192124841627425269e+00
4.512849079870572822e-01 1.182660910953693190e+00
4.526260221264540862e-01 1.100721753740735664e+00
4.539671362658510012e-01 1.283512224630449339e+00
4.553082504052478052e-01 1.235312575665247437e+00
4.566493645446446092e-01 9.619971383238592466e-01
4.579904786840415243e-01 8.160605987940030559e-01
4.593315928234383283e-01 9.978130342272706343e-01
4.606727069628352433e-01 1.084980500473122333e+00
4.620138211022320474e-01 1.250221708785723251e+00
4.633549352416289624e-01 9.107187562962550942e-01
4.646960493810257664e-01 1.088915772921062342e+00
4.660371635204225704e-01 1.268200328358524587e+00
4.673782776598194855e-01 1.294862196668169929e+00
4.687193917992162895e-01 1.215717050384945708e+00
4.700605059386132045e-01 1.275917315133163754e+00
4.714016200780100085e-01 9.374298198695214523e-01
4.727427342174068681e-01 7.850188921805312248e-01
4.740838483568037276e-01 9.965522630245828850e-01
4.754249624962005871e-01 1.035808222149931623e+00
4.767660766355974467e-01 1.170968845755879784e+00
4.781071907749943062e-01 7.044286754673834139e-01
4.794483049143911102e-01 9.238059607810669149e-01
4.807894190537880252e-01 1.103818412431813556e+00
4.821305331931848293e-01 1.037558578781421659e+00
4.834716473325817443e-01 1.017651112757775422e+00
4.848127614719785483e-01 9.941410816628177827e-01
4.861538756113753523e-01 1.024605806894776094e+00
4.874949897507722674e-01 9.275444072404610552e-01
4.888361038901690714e-01 1.029095854783662389e+00
4.901772180295659864e-01 1.000006985392822401e+00
4.915183321689627904e-01 9.619716829516704593e-01
4.928594463083597055e-01 7.403686727319467309e-01
4.942005604477565095e-01 9.683724423514235013e-01
4.955416745871533135e-01 9.551357771155366549e-01
4.968827887265502286e-01 7.357042840973448961e-01
4.982239028659470326e-01 7.458671682202648867e-01
4.995650170053439476e-01 8.719518901648370957e-01
5.009061311447408071e-01 9.974735866473238843e-01
5.022472452841375556e-01 7.569686842584673059e-01
5.035883594235345262e-01 1.025836172874576846e+00
5.049294735629312747e-01 1.276694740414832552e+00
5.062705877023282452e-01 1.326908699088036769e+00
5.076117018417249938e-01 9.761695147922111460e-01
5.089528159811218533e-01 6.997668227245270600e-01
5.102939301205187128e-01 6.333827940101386389e-01
5.116350442599155723e-01 4.952079532323452327e-01
5.129761583993124319e-01 5.321628660480328676e-01
5.143172725387092914e-01 4.478939174708287396e-01
5.156583866781061509e-01 4.906946334803876653e-01
5.169995008175030105e-01 6.179517950112725089e-01
5.183406149568997590e-01 4.522685953724021601e-01
5.196817290962967295e-01 5.498057676946217498e-01
5.210228432356934780e-01 4.597476792418575542e-01
5.223639573750904486e-01 5.481425382951528036e-01
5.237050715144871971e-01 6.835077546829495532e-01
5.250461856538840566e-01 4.966856827037418043e-01
5.263872997932809161e-01 6.468144280457721607e-01
5.277284139326777757e-01 1.028726128677078577e+00
5.290695280720746352e-01 8.888443471393614459e-01
5.304106422114714947e-01 1.010547961741984579e+00
5.317517563508683542e-01 7.192051650837640864e-01
5.330928704902652138e-01 4.314416734218653460e-01
5.344339846296620733e-01 7.391715258022273360e-01
5.357750987690589328e-01 7.712422940128860205e-01
5.371162129084557924e-01 9.068187954143951401e-01
5.384573270478525409e-01 7.500885618594992366e-01
5.397984411872495114e-01 6.995072106229045517e-01
5.411395553266462599e-01 9.217998203676813773e-01
5.424806694660432305e-01 1.015210824902943898e+00
5.438217836054399790e-01 8.237947787259187749e-01
5.451628977448369495e-01 6.004233063191648512e-01
5.465040118842336980e-01 4.547614887968691733e-01
5.478451260236305576e-01 8.207140566514823377e-01
5.491862401630274171e-01 7.272556985923159800e-01
5.505273543024242766e-01 5.299634313090777482e-01
5.518684684418211361e-01 4.807991350477962555e-01
5.532095825812179957e-01 3.862333102481798619e-01
5.545506967206147442e-01 3.030862290009821436e-01
