# q (1/Angstrom), Intensity (arb)
3.063590265382597211e-02 1.983897101187229239e+01
3.167440782643154290e-02 1.871519568123702015e+01
3.271291299903710675e-02 1.791803768434586530e+01
3.375141817164267755e-02 1.700630667104124072e+01
3.478992334424824834e-02 1.540872204570235482e+01
3.582842851685381913e-02 1.403872788502047442e+01
3.686693368945938992e-02 1.285373720146770538e+01
3.790543886206496071e-02 1.160184303156121643e+01
3.894394403467052457e-02 1.049095578315740696e+01
3.998244920727608842e-02 9.198444697191725083e+00
4.102095437988165921e-02 7.806400703849416089e+00
4.205945955248723001e-02 7.026961309677091094e+00
4.309796472509280080e-02 6.248351304415837859e+00
4.413646989769837159e-02 6.006645610497344023e+00
4.517497507030393544e-02 5.603522361342101021e+00
4.621348024290949930e-02 5.340823617497360232e+00
4.725198541551507009e-02 5.148666380369373741e+00
4.829049058812064088e-02 4.943642550934665536e+00
4.932899576072621167e-02 4.463102179722724827e+00
5.036750093333178246e-02 4.285478755209613411e+00
5.140600610593734632e-02 4.252561743299636987e+00
5.244451127854291711e-02 4.152676752311869279e+00
5.348301645114848096e-02 3.946873275052535490e+00
5.452152162375405869e-02 3.651705609709534173e+00
5.556002679635962255e-02 3.489413820744822203e+00
5.659853196896519334e-02 3.604133533258842448e+00
5.763703714157075719e-02 3.408407054428860050e+00
5.867554231417632105e-02 3.247415080198699400e+00
5.971404748678189878e-02 3.125235779915325196e+00
6.075255265938746263e-02 2.927206607675447714e+00
6.179105783199304036e-02 2.918639755175242101e+00
6.282956300459860421e-02 2.672648738107330502e+00
6.386806817720418195e-02 2.584403247104475554e+00
6.490657334980974580e-02 2.769557214056892036e+00
6.594507852241530965e-02 2.429938758309777569e+00
6.698358369502087351e-02 2.481849219753691216e+00
6.802208886762643736e-02 2.492793548684723248e+00
6.906059404023201509e-02 2.357411441785554729e+00
7.009909921283757894e-02 2.294492606149376002e+00
7.113760438544315667e-02 2.196391377182301596e+00
7.217610955804872053e-02 2.115444232283117287e+00
7.321461473065429826e-02 2.081093979939588223e+00
7.425311990325986211e-02 2.080402501817363969e+00
7.529162507586543984e-02 1.948972362728500940e+00
7.633013024847100370e-02 1.911678085508480507e+00
7.736863542107656755e-02 1.825575370362244598e+00
7.840714059368214528e-02 1.841407087420371624e+00
7.944564576628770913e-02 1.875223095572312815e+00
8.048415093889327299e-02 1.780289188759901720e+00
8.152265611149883684e-02 1.696780095949208089e+00
8.256116128410441457e-02 1.597610267966231845e+00
8.359966645670997842e-02 1.649577500790776696e+00
8.463817162931554228e-02 1.595897284759598023e+00
8.567667680192112001e-02 1.585217954437780463e+00
8.671518197452668386e-02 1.678531617299540812e+00
8.775368714713226159e-02 1.494724485840642103e+00
8.879219231973782545e-02 1.438431695294688950e+00
8.983069749234340318e-02 1.450258559225904520e+00
9.086920266494896703e-02 1.437569422791046492e+00
9.190770783755453088e-02 1.518932840715613963e+00
9.294621301016009474e-02 1.298866595561921855e+00
9.398471818276565859e-02 1.198840408123384549e+00
9.502322335537123632e-02 1.231929949208698361e+00
9.606172852797680017e-02 1.209065653991729050e+00
9.710023370058237790e-02 1.240934262915004638e+00
9.813873887318794176e-02 1.252391983171985856e+00
9.917724404579351949e-02 1.186255067117627959e+00
1.002157492183990695e-01 1.136337158787970480e+00
1.012542543910046472e-01 1.160884803589190994e+00
1.022927595636101972e-01 1.176568043200369118e+00
1.033312647362157749e-01 9.986681985516696614e-01
1.043697699088213526e-01 9.334626227799560638e-01
1.054082750814269165e-01 8.605297118951789059e-01
1.064467802540324803e-01 9.925130110822095730e-01
1.074852854266380442e-01 8.623781682764573020e-01
1.085237905992436219e-01 8.898792765900722657e-01
1.095622957718491719e-01 9.591843663919128460e-01
1.106008009444547496e-01 9.154939638473820196e-01
1.116393061170603274e-01 8.870178304434048755e-01
1.126778112896659051e-01 8.461120374135653321e-01
1.137163164622714551e-01 6.722077970466777685e-01
1.147548216348770328e-01 7.312447896409679515e-01
1.157933268074826105e-01 8.014023825194307449e-01
1.168318319800881605e-01 7.512534385821432181e-01
1.178703371526937382e-01 6.459600651637771307e-01
1.189088423252993021e-01 6.068711228510572653e-01
1.199473474979048798e-01 6.537705637780000245e-01
1.209858526705104298e-01 6.341295760765426337e-01
1.220243578431160075e-01 7.623738559762465172e-01
1.230628630157215853e-01 5.820287941658293107e-01
1.241013681883271630e-01 5.919036706492448729e-01
1.251398733609327130e-01 7.450415966659598155e-01
1.261783785335382768e-01 8.642173997434383637e-01
1.272168837061438684e-01 7.362199277718275425e-01
1.282553888787494045e-01 6.384088186272691701e-01
1.292938940513549961e-01 6.339153382126951897e-01
1.303323992239605600e-01 5.683542584559511113e-01
1.313709043965661516e-01 5.540606892181436649e-01
1.324094095691716877e-01 4.566427109482624758e-01
1.334479147417772793e-01 3.949466837884116899e-01
1.344864199143828432e-01 5.055941187000740911e-01
1.355249250869884070e-01 5.185321940375118288e-01
1.365634302595939709e-01 4.875460207164543647e-01
1.376019354321995347e-01 5.113583636301264335e-01
1.386404406048051263e-01 5.500621784458417096e-01
1.396789457774106624e-01 4.594806294440552108e-01
1.407174509500162540e-01 4.491672892876010792e-01
1.417559561226218179e-01 3.831637860752188374e-01
1.427944612952273817e-01 3.704411193713887940e-01
1.438329664678329456e-01 4.823738890043500760e-01
1.448714716404385372e-01 4.590792213458989579e-01
1.459099768130441011e-01 4.616645012506346291e-01
1.469484819856496649e-01 3.637239255269939520e-01
1.479869871582552288e-01 4.452025729254032171e-01
1.490254923308607926e-01 5.603076340209014461e-01
1.500639975034663842e-01 4.731691670118358672e-01
1.511025026760719481e-01 5.122088166327571912e-01
1.521410078486775119e-01 4.745468225013631525e-01
1.531795130212830758e-01 3.003282626235126429e-01
1.542180181938886396e-01 2.526623218705950080e-01
1.552565233664942035e-01 3.269293103870083428e-01
1.562950285390997951e-01 3.374155814307862045e-01
1.573335337117053589e-01 3.434873551456369967e-01
1.583720388843109228e-01 3.390950654299729194e-01
1.594105440569164867e-01 3.778836994247285475e-01
1.604490492295220783e-01 5.033091158742344362e-01
1.614875544021276144e-01 4.684292833531564781e-01
1.625260595747332060e-01 3.411639377906148241e-01
1.635645647473387698e-01 3.189913360979375057e-01
1.646030699199443337e-01 3.385909593263569661e-01
1.656415750925498975e-01 3.757696430452135417e-01
1.666800802651554614e-01 2.670548588947561086e-01
1.677185854377610530e-01 3.651969709264406561e-01
1.687570906103665891e-01 2.891321211617388087e-01
1.697955957829721807e-01 2.648757779938755164e-01
1.708341009555777446e-01 2.383963669021085252e-01
1.718726061281833362e-01 2.323424888895893048e-01
1.729111113007888723e-01 2.108682329261881705e-01
1.739496164733944639e-01 2.504779249122144336e-01
1.749881216460000277e-01 2.509794125099915618e-01
1.760266268186055916e-01 3.051549145286891473e-01
1.770651319912111554e-01 2.696118404863909745e-01
1.781036371638167193e-01 2.855875594801844386e-01
1.791421423364223109e-01 2.512046815171018466e-01
1.801806475090278470e-01 2.663183130357182904e-01
1.812191526816334386e-01 2.861133381312583879e-01
1.822576578542390024e-01 2.952245466302301224e-01
1.832961630268445663e-01 2.115354670468683196e-01
1.843346681994501302e-01 2.065513598089481206e-01
1.853731733720557218e-01 1.931680163919828885e-01
1.864116785446612856e-01 1.466370734104778251e-01
1.874501837172668495e-01 7.032608045634347604e-02
1.884886888898724133e-01 8.731536345518264852e-02
1.895271940624779772e-01 2.503667968322282888e-01
1.905656992350835688e-01 2.925270913723139188e-01
1.916042044076891049e-01 2.223439092775620907e-01
1.926427095802946965e-01 1.801835571881831299e-01
1.936812147529002603e-01 2.177953685174109921e-01
1.947197199255058242e-01 1.773408693093152522e-01
1.957582250981113881e-01 2.138750500822759193e-01
1.967967302707169797e-01 1.904859984006996854e-01
1.978352354433225435e-01 2.054946618260977687e-01
1.988737406159281074e-01 1.823006669548661307e-01
1.999122457885336712e-01 2.365395781802632769e-01
2.009507509611392351e-01 1.700614153213670932e-01
2.019892561337448267e-01 1.361213984428211177e-01
2.030277613063503905e-01 2.168412001543416068e-01
2.040662664789559266e-01 1.769429949929453016e-01
2.051047716515614905e-01 2.701104662745485996e-01
2.061432768241670821e-01 2.519839624738082762e-01
2.071817819967726459e-01 2.339035098754926878e-01
2.082202871693782376e-01 2.518917278707029084e-01
2.092587923419838014e-01 2.312701967054699992e-01
2.102972975145893653e-01 2.560271517713736955e-01
2.113358026871949014e-01 2.423767589099590225e-01
2.123743078598004930e-01 2.078755816503132792e-01
2.134128130324060568e-01 1.940455836985144344e-01
2.144513182050116207e-01 1.694161800911757609e-01
2.154898233776172123e-01 2.187317696454265104e-01
2.165283285502227761e-01 2.151018952913155147e-01
2.175668337228283677e-01 1.583481211823603019e-01
2.186053388954338761e-01 1.437389802832669261e-01
2.196438440680394677e-01 2.418147106210817299e-01
2.206823492406450316e-01 1.180885891889502659e-01
2.217208544132506232e-01 1.186503622159165161e-01
2.227593595858561870e-01 1.135452568564971898e-01
2.237978647584617509e-01 1.200464107101701927e-01
2.248363699310673425e-01 1.631399640186579347e-01
2.258748751036728786e-01 2.051287048702583604e-01
2.269133802762784424e-01 2.193552793283046753e-01
2.279518854488840063e-01 1.134509942884562861e-01
2.289903906214895979e-01 1.993063819436677875e-01
2.300288957940951617e-01 1.533780123209425028e-01
2.310674009667007534e-01 1.426546717769738848e-01
2.321059061393063172e-01 2.306446252205880398e-01
2.331444113119118533e-01 3.075078292995598872e-01
2.341829164845174172e-01 2.538354362545440779e-01
2.352214216571230088e-01 2.591702299063385340e-01
2.362599268297285726e-01 1.514802907133052656e-01
2.372984320023341365e-01 1.423129741266997428e-01
2.383369371749397281e-01 2.093949322390145085e-01
2.393754423475452919e-01 1.587793584928967050e-01
2.404139475201508835e-01 1.410507460662238088e-01
2.414524526927563919e-01 2.013062126511044880e-01
2.424909578653619835e-01 2.169668215568876235e-01
2.435294630379675473e-01 1.739387728109349496e-01
2.445679682105731390e-01 1.568432045264422925e-01
2.456064733831787028e-01 2.087847478552653513e-01
2.466449785557842667e-01 2.817642067901928726e-01
2.476834837283898583e-01 2.559398426665602244e-01
2.487219889009953944e-01 2.523752842678632646e-01
2.497604940736009582e-01 2.691444263470259557e-01
2.507989992462065221e-01 2.488102269963157198e-01
2.518375044188120859e-01 2.339684148569247668e-01
2.528760095914177053e-01 3.177917618115060350e-01
2.539145147640232691e-01 2.186944273018553986e-01
2.549530199366288330e-01 2.444480432829472250e-01
2.559915251092343413e-01 2.344410021382543619e-01
2.570300302818399607e-01 1.910432767286209810e-01
2.580685354544455246e-01 2.109378414650784350e-01
2.591070406270510884e-01 1.883958161484429183e-01
2.601455457996566523e-01 1.357946497921993512e-01
2.611840509722622161e-01 1.871792953514450630e-01
2.622225561448678355e-01 2.481881863268782240e-01
2.632610613174733438e-01 2.686989204198830805e-01
2.642995664900789077e-01 1.875157307479931035e-01
2.653380716626844715e-01 1.648818013931148130e-01
2.663765768352900909e-01 1.147085009815711487e-01
2.674150820078956547e-01 1.044158568121460462e-01
2.684535871805012186e-01 1.611073047634938860e-01
2.694920923531067825e-01 1.461943727280541339e-01
2.705305975257123463e-01 1.862533072505954124e-01
2.715691026983179102e-01 1.445516052105730864e-01
2.726076078709234740e-01 1.887535134089191047e-01
2.736461130435290379e-01 2.008503913307393418e-01
2.746846182161346017e-01 1.750927652265126255e-01
2.757231233887402211e-01 2.309865035874594241e-01
2.767616285613457849e-01 2.070731922648292311e-01
2.778001337339512933e-01 1.898757176085652532e-01
2.788386389065568571e-01 1.614868221304348594e-01
2.798771440791624765e-01 1.886711949834669610e-01
2.809156492517680404e-01 2.215114535767419568e-01
2.819541544243736042e-01 1.602304646765517759e-01
2.829926595969791681e-01 1.510571309854285005e-01
2.840311647695847319e-01 1.303994463780071555e-01
2.850696699421902958e-01 1.689106406364295765e-01
2.861081751147958596e-01 1.943015500836615672e-01
2.871466802874014235e-01 1.579991937246276734e-01
2.881851854600069873e-01 1.778450964133639900e-01
2.892236906326126067e-01 2.241934355205543739e-01
2.902621958052181705e-01 2.011800331404458575e-01
2.913007009778237344e-01 1.599120347051936619e-01
2.923392061504292427e-01 2.009898093982300793e-01
2.933777113230348621e-01 1.078413811989342719e-01
2.944162164956404260e-01 1.181035580340115132e-01
2.954547216682459898e-01 1.868093222357707361e-01
2.964932268408515537e-01 1.313518933999979765e-01
2.975317320134571175e-01 1.702792152261629610e-01
2.985702371860627369e-01 2.106468639239515994e-01
2.996087423586683007e-01 2.706832419222671149e-01
3.006472475312738091e-01 2.380903071639544066e-01
3.016857527038794284e-01 2.292062103636709480e-01
3.027242578764849923e-01 1.684572456584980671e-01
3.037627630490905561e-01 2.177714194211048948e-01
3.048012682216961200e-01 2.076088336979431404e-01
3.058397733943016839e-01 1.756861301800043407e-01
3.068782785669073032e-01 1.363933896876687868e-01
3.079167837395128116e-01 1.573114021768304838e-01
3.089552889121183754e-01 1.604748531307400583e-01
3.099937940847239393e-01 1.812756115545575142e-01
3.110322992573295586e-01 2.038741468808389357e-01
3.120708044299351225e-01 2.343629382171599218e-01
3.131093096025406863e-01 1.605304140064340856e-01
3.141478147751462502e-01 1.517589798265568390e-01
3.151863199477518140e-01 1.476857869923620115e-01
3.162248251203573779e-01 1.181648653058466891e-01
3.172633302929629417e-01 1.615861011873569453e-01
3.183018354655685056e-01 1.650666282157011722e-01
3.193403406381740695e-01 1.428823358909561136e-01
3.203788458107796888e-01 9.548312317181029130e-02
3.214173509833852527e-01 1.181170379063765097e-01
3.224558561559907610e-01 1.127364891268882729e-01
3.234943613285963249e-01 1.821854419976780548e-01
3.245328665012019442e-01 1.493726991486923339e-01
3.255713716738075081e-01 1.625705288928394054e-01
3.266098768464130719e-01 1.253234875256019620e-01
3.276483820190186358e-01 1.634067749356518107e-01
3.286868871916241996e-01 2.009829440947683565e-01
3.297253923642297635e-01 1.990857004169583888e-01
3.307638975368353274e-01 1.223062157344863010e-01
3.318024027094408912e-01 1.449993871322590167e-01
3.328409078820464551e-01 1.610983548551665478e-01
3.338794130546520744e-01 1.550713437072310796e-01
3.349179182272576383e-01 1.557952864824905248e-01
3.359564233998632021e-01 1.807880766946183826e-01
3.369949285724687105e-01 1.953834614911684753e-01
3.380334337450743298e-01 1.455031877903216753e-01
3.390719389176798937e-01 1.526237367595726369e-01
3.401104440902854575e-01 1.393405291975895466e-01
3.411489492628910214e-01 1.150244076196322851e-01
3.421874544354965852e-01 8.475591794913839294e-02
3.432259596081022046e-01 1.932533838439631779e-01
3.442644647807077130e-01 2.674981198418073802e-01
3.453029699533132768e-01 2.398523176952380709e-01
3.463414751259188407e-01 1.538860199275262630e-01
3.473799802985244600e-01 8.452685318080810362e-02
3.484184854711300239e-01 9.579580745346305548e-02
3.494569906437355877e-01 1.409488880000253630e-01
3.504954958163411516e-01 2.148808635696681790e-01
3.515340009889467154e-01 2.683633652737213993e-01
3.525725061615522793e-01 1.964489985247261927e-01
3.536110113341578431e-01 2.041100664359944972e-01
3.546495165067634070e-01 1.418620874280307476e-01
3.556880216793689709e-01 1.792994910420837584e-01
3.567265268519745902e-01 1.449651414909958191e-01
3.577650320245801541e-01 1.663178049084557131e-01
3.588035371971856624e-01 1.593277478707939565e-01
3.598420423697912263e-01 1.339699765253357100e-01
3.608805475423968456e-01 9.114877965262380144e-02
3.619190527150024095e-01 1.358319182020615301e-01
3.629575578876079733e-01 1.191604749390471341e-01
3.639960630602135372e-01 1.802157885829700490e-01
3.650345682328191010e-01 2.139904660462796926e-01
3.660730734054246649e-01 2.634296113474725587e-01
3.671115785780302287e-01 2.602959937530933132e-01
3.681500837506357926e-01 1.756630501043652259e-01
3.691885889232413565e-01 1.621202067037508243e-01
3.702270940958469758e-01 2.200843694481946500e-01
3.712655992684525397e-01 1.940908608599904994e-01
3.723041044410581035e-01 2.379326154371987911e-01
3.733426096136636674e-01 1.694627946213458358e-01
3.743811147862692312e-01 2.370663785515176869e-01
3.754196199588747951e-01 2.100183324581301747e-01
3.764581251314803589e-01 1.674413478624785512e-01
3.774966303040859228e-01 1.213717427550733419e-01
3.785351354766914866e-01 4.380830811986413664e-02
3.795736406492971060e-01 1.210459596501358703e-01
3.806121458219026699e-01 1.329744912640649090e-01
3.816506509945081782e-01 1.433784806967643988e-01
3.826891561671137421e-01 1.807507536565253758e-01
3.837276613397193614e-01 1.555607205020805850e-01
3.847661665123249253e-01 1.640009906472599255e-01
3.858046716849304891e-01 1.181930490711167181e-01
3.868431768575360530e-01 1.779012030933486699e-01
3.878816820301416168e-01 2.103551865053496783e-01
3.889201872027471807e-01 1.565139133316613140e-01
3.899586923753527445e-01 2.399855527683669720e-01
3.909971975479583084e-01 2.301688824596261895e-01
3.920357027205638722e-01 1.697888822243740492e-01
3.930742078931694916e-01 1.657115748422519630e-01
3.941127130657750555e-01 1.644368303813976695e-01
3.951512182383806193e-01 1.758385601794074660e-01
3.961897234109861277e-01 1.324537939131680275e-01
3.972282285835917470e-01 1.069203909882894266e-01
3.982667337561973109e-01 1.434906825508406314e-01
3.993052389288028747e-01 1.572847419335552388e-01
4.003437441014084941e-01 1.987871324151981867e-01
4.013822492740140579e-01 1.655370507011149073e-01
4.024207544466196218e-01 1.351989327085014736e-01
4.034592596192252412e-01 1.728915318660391165e-01
4.044977647918308050e-01 1.592631812948823722e-01
4.055362699644363689e-01 1.050561185269636155e-01
4.065747751370419327e-01 1.583173861476190325e-01
4.076132803096474411e-01 1.397378474970984996e-01
4.086517854822530049e-01 1.004486775482824612e-01
4.096902906548585688e-01 1.408435211205656401e-01
4.107287958274641326e-01 1.642563481018548543e-01
4.117673010000697520e-01 1.639370099436661121e-01
4.128058061726753158e-01 1.903690460955616004e-01
4.138443113452808797e-01 1.555584564209659959e-01
4.148828165178864436e-01 1.703711183794851536e-01
4.159213216904920074e-01 2.008774021019092970e-01
4.169598268630976268e-01 1.412900176134073149e-01
4.179983320357031906e-01 1.246349574061618171e-01
4.190368372083087545e-01 1.635616124509731151e-01
4.200753423809143183e-01 1.615336956735511365e-01
4.211138475535198822e-01 1.348168405453051832e-01
4.221523527261253905e-01 1.472636140777048297e-01
4.231908578987309544e-01 1.980776261707113406e-01
4.242293630713365182e-01 1.748017855895938055e-01
4.252678682439421376e-01 1.584000152922939719e-01
4.263063734165477014e-01 1.452650019101220380e-01
4.273448785891532653e-01 1.529888579447948871e-01
4.283833837617588292e-01 1.544249077337909171e-01
4.294218889343643930e-01 1.338810228408178205e-01
4.304603941069700124e-01 1.429437301595193333e-01
4.314988992795755762e-01 1.656890166337170456e-01
4.325374044521811401e-01 1.787226691517922461e-01
4.335759096247867039e-01 1.824523233821828683e-01
4.346144147973922678e-01 1.283225682982909177e-01
4.356529199699978872e-01 1.068059768636011597e-01
4.366914251426033400e-01 1.413248727424551987e-01
4.377299303152089038e-01 1.988292391882389154e-01
4.387684354878145232e-01 1.766408833068631168e-01
4.398069406604200871e-01 1.749958989336164450e-01
4.408454458330256509e-01 1.678361709565265869e-01
4.418839510056312148e-01 1.153597448640013567e-01
4.429224561782367786e-01 1.146299820350122900e-01
4.439609613508423980e-01 1.026157752374459164e-01
