# q (1/Angstrom), Intensity (arb)
3.063590265382597211e-02 2.436456319958514527e+01
3.167440782643154290e-02 2.222117614217653880e+01
3.271291299903710675e-02 1.994993705128072392e+01
3.375141817164267755e-02 1.888802578268219889e+01
3.478992334424824834e-02 1.732334743681670375e+01
3.582842851685381913e-02 1.628904810144424076e+01
3.686693368945938992e-02 1.548688670273471502e+01
3.790543886206496071e-02 1.470348154407664154e+01
3.894394403467052457e-02 1.421146372876832231e+01
3.998244920727608842e-02 1.354620416365102642e+01
4.102095437988165921e-02 1.332668370106341627e+01
4.205945955248723001e-02 1.256345171933536875e+01
4.309796472509280080e-02 1.164664424531662945e+01
4.413646989769837159e-02 1.088928195178661440e+01
4.517497507030393544e-02 1.006359713856590332e+01
4.621348024290949930e-02 9.454712357162719627e+00
4.725198541551507009e-02 8.885012169237370472e+00
4.829049058812064088e-02 8.128976307266270851e+00
4.932899576072621167e-02 7.486505292910514697e+00
5.036750093333178246e-02 6.783347259698821574e+00
5.140600610593734632e-02 6.286038665576295870e+00
5.244451127854291711e-02 5.900581061414438722e+00
5.348301645114848096e-02 5.642365656549294783e+00
5.452152162375405869e-02 5.460335032579738623e+00
5.556002679635962255e-02 5.098062904416490682e+00
5.659853196896519334e-02 4.877559173829300931e+00
5.763703714157075719e-02 4.534234373068024126e+00
5.867554231417632105e-02 4.352211384959552731e+00
5.971404748678189878e-02 4.338277793298097151e+00
6.075255265938746263e-02 4.312208124005920240e+00
6.179105783199304036e-02 3.965317022463363372e+00
6.282956300459860421e-02 3.752058971783540642e+00
6.386806817720418195e-02 3.876667734592302850e+00
6.490657334980974580e-02 3.897288163405459471e+00
6.594507852241530965e-02 3.958957386200236073e+00
6.698358369502087351e-02 4.458444537972777511e+00
6.802208886762643736e-02 3.975728354046733415e+00
6.906059404023201509e-02 3.399949667118363550e+00
7.009909921283757894e-02 3.468832272149857232e+00
7.113760438544315667e-02 3.236784078121395680e+00
7.217610955804872053e-02 3.031938513076376296e+00
7.321461473065429826e-02 2.909900415941418572e+00
7.425311990325986211e-02 2.912937247571569799e+00
7.529162507586543984e-02 2.844526187569762499e+00
7.633013024847100370e-02 2.793173268453028157e+00
7.736863542107656755e-02 2.547305076854243566e+00
7.840714059368214528e-02 2.359880562880057653e+00
7.944564576628770913e-02 2.342689029341133988e+00
8.048415093889327299e-02 2.442297493542678666e+00
8.152265611149883684e-02 2.275341876267191310e+00
8.256116128410441457e-02 2.275673908407597423e+00
8.359966645670997842e-02 2.199045306918218756e+00
8.463817162931554228e-02 2.055949584981224376e+00
8.567667680192112001e-02 2.032114837248791162e+00
8.671518197452668386e-02 2.055813746305037881e+00
8.775368714713226159e-02 1.952405891828931317e+00
8.879219231973782545e-02 1.938585029842517571e+00
8.983069749234340318e-02 1.861502394855286013e+00
9.086920266494896703e-02 1.739643435320054721e+00
9.190770783755453088e-02 1.773221427644536163e+00
9.294621301016009474e-02 1.636204098816122610e+00
9.398471818276565859e-02 1.571952729442632091e+00
9.502322335537123632e-02 1.540691217791430034e+00
9.606172852797680017e-02 1.601928305685948573e+00
9.710023370058237790e-02 1.676395756831009720e+00
9.813873887318794176e-02 1.702325370387239190e+00
9.917724404579351949e-02 1.494523133255135861e+00
1.002157492183990695e-01 1.374225386063034904e+00
1.012542543910046472e-01 1.304195193286023624e+00
1.022927595636101972e-01 1.316699389132107711e+00
1.033312647362157749e-01 1.454689977956480362e+00
1.043697699088213526e-01 1.452116506485950254e+00
1.054082750814269165e-01 1.416551176206326090e+00
1.064467802540324803e-01 1.371859686891482966e+00
1.074852854266380442e-01 1.271952199956949414e+00
1.085237905992436219e-01 1.070033560348257140e+00
1.095622957718491719e-01 9.873127525766172141e-01
1.106008009444547496e-01 9.807432248330876234e-01
1.116393061170603274e-01 9.898548314162880501e-01
1.126778112896659051e-01 1.109322663515666108e+00
1.137163164622714551e-01 1.035984285413125150e+00
1.147548216348770328e-01 9.913354395362112825e-01
1.157933268074826105e-01 9.277678246640483906e-01
1.168318319800881605e-01 9.505592324149922945e-01
1.178703371526937382e-01 9.827037414011776661e-01
1.189088423252993021e-01 8.737922090580632073e-01
1.199473474979048798e-01 8.777731395971173356e-01
1.209858526705104298e-01 8.210624101833019495e-01
1.220243578431160075e-01 6.500903477420969523e-01
1.230628630157215853e-01 7.000878068590559167e-01
1.241013681883271630e-01 8.591365385366458440e-01
1.251398733609327130e-01 8.276931754055532053e-01
1.261783785335382768e-01 7.948000667232832939e-01
1.272168837061438684e-01 6.602296824415105903e-01
1.282553888787494045e-01 7.515497444637659896e-01
1.292938940513549961e-01 6.298009842656142609e-01
1.303323992239605600e-01 6.774117619651214284e-01
1.313709043965661516e-01 7.094039863417087588e-01
1.324094095691716877e-01 6.079826711610927248e-01
1.334479147417772793e-01 5.637784725803811625e-01
1.344864199143828432e-01 6.442848613011520342e-01
1.355249250869884070e-01 6.622291984042867341e-01
1.365634302595939709e-01 6.462223437276293225e-01
1.376019354321995347e-01 4.869094545507905991e-01
1.386404406048051263e-01 4.611078839964726228e-01
1.396789457774106624e-01 4.669110087214001226e-01
1.407174509500162540e-01 4.813014118184071322e-01
1.417559561226218179e-01 4.747440361258483676e-01
1.427944612952273817e-01 4.006776972870085274e-01
1.438329664678329456e-01 3.141726074287269910e-01
1.448714716404385372e-01 3.197120406703497508e-01
1.459099768130441011e-01 4.688226218468578566e-01
1.469484819856496649e-01 4.956117387405214458e-01
1.479869871582552288e-01 4.462663326617146708e-01
1.490254923308607926e-01 4.155931055372121818e-01
1.500639975034663842e-01 4.990972312407144784e-01
1.511025026760719481e-01 4.749169768811789538e-01
1.521410078486775119e-01 5.223081974347572043e-01
1.531795130212830758e-01 3.995016528219004215e-01
1.542180181938886396e-01 4.008282991748473023e-01
1.552565233664942035e-01 3.275268557723656215e-01
1.562950285390997951e-01 3.006058490169003505e-01
1.573335337117053589e-01 3.151741937133110127e-01
1.583720388843109228e-01 2.657806229180081914e-01
1.594105440569164867e-01 2.482730462293787355e-01
1.604490492295220783e-01 2.901707098404671115e-01
1.614875544021276144e-01 2.197977894153808620e-01
1.625260595747332060e-01 1.827489669041355569e-01
1.635645647473387698e-01 2.017963767282537901e-01
1.646030699199443337e-01 2.429315563596112781e-01
1.656415750925498975e-01 2.320685227151813024e-01
1.666800802651554614e-01 2.516276725868955566e-01
1.677185854377610530e-01 2.690643144442113055e-01
1.687570906103665891e-01 3.190878143289985758e-01
1.697955957829721807e-01 2.767337672894463196e-01
1.708341009555777446e-01 1.729654290163047392e-01
1.718726061281833362e-01 2.484909669816879330e-01
1.729111113007888723e-01 2.713126002138821491e-01
1.739496164733944639e-01 1.727487686342676909e-01
1.749881216460000277e-01 1.976184393456570376e-01
1.760266268186055916e-01 1.925321371413311056e-01
1.770651319912111554e-01 1.598943952277593894e-01
1.781036371638167193e-01 2.064949874779848926e-01
1.791421423364223109e-01 1.769904376248980782e-01
1.801806475090278470e-01 5.934951929172527230e-02
1.812191526816334386e-01 1.482304350383003566e-01
1.822576578542390024e-01 2.159053739724434706e-01
1.832961630268445663e-01 2.323334542380699475e-01
1.843346681994501302e-01 1.910893112814768813e-01
1.853731733720557218e-01 3.092444450479590046e-01
1.864116785446612856e-01 2.892983863770979269e-01
1.874501837172668495e-01 2.611879758745523361e-01
1.884886888898724133e-01 1.639315347463750072e-01
1.895271940624779772e-01 1.560898930702450116e-01
1.905656992350835688e-01 1.241728071440064696e-01
1.916042044076891049e-01 1.385836194306548919e-01
1.926427095802946965e-01 1.437515256357215776e-01
1.936812147529002603e-01 1.156198280820142088e-01
1.947197199255058242e-01 1.797273342918686012e-01
1.957582250981113881e-01 1.812417783744315614e-01
1.967967302707169797e-01 1.661259796626453067e-01
1.978352354433225435e-01 2.052143687791634363e-01
1.988737406159281074e-01 1.845000728001622292e-01
1.999122457885336712e-01 1.453673352811328812e-01
2.009507509611392351e-01 1.189199261681324060e-01
2.019892561337448267e-01 1.425488942422319383e-01
2.030277613063503905e-01 1.087682349157788053e-01
2.040662664789559266e-01 1.008805917396955465e-01
2.051047716515614905e-01 9.012010511584023220e-02
2.061432768241670821e-01 1.309501616831951765e-01
2.071817819967726459e-01 1.758787002020234524e-01
2.082202871693782376e-01 9.624935538725765127e-02
2.092587923419838014e-01 8.367792873741564108e-02
2.102972975145893653e-01 1.346545408880501782e-01
2.113358026871949014e-01 1.448672701689766029e-01
2.123743078598004930e-01 1.615563697875543880e-01
2.134128130324060568e-01 7.087702265723549999e-02
2.144513182050116207e-01 5.689668578519757602e-02
2.154898233776172123e-01 1.409654438064507076e-01
2.165283285502227761e-01 1.589739505990657165e-01
2.175668337228283677e-01 6.628780271957168679e-02
2.186053388954338761e-01 9.572815154677627447e-02
2.196438440680394677e-01 1.825782713824324333e-01
2.206823492406450316e-01 1.412647518915903788e-01
2.217208544132506232e-01 1.094222748511981536e-01
2.227593595858561870e-01 1.693114111508826625e-01
2.237978647584617509e-01 1.271304572969818025e-01
2.248363699310673425e-01 9.952930332385889756e-02
2.258748751036728786e-01 1.704949643985962382e-01
2.269133802762784424e-01 2.190347473467575412e-01
2.279518854488840063e-01 2.322166330397053002e-01
2.289903906214895979e-01 1.824032821919914227e-01
2.300288957940951617e-01 1.109686881816820403e-01
2.310674009667007534e-01 1.605693633315432578e-01
2.321059061393063172e-01 1.006985615036519732e-01
2.331444113119118533e-01 1.505013772938781358e-01
2.341829164845174172e-01 9.287619919873080221e-02
2.352214216571230088e-01 2.285328212243982193e-01
2.362599268297285726e-01 1.951987956492864384e-01
2.372984320023341365e-01 1.446083378831808375e-01
2.383369371749397281e-01 1.989230308835381322e-01
2.393754423475452919e-01 1.756581482559127494e-01
2.404139475201508835e-01 1.898595906179352255e-01
2.414524526927563919e-01 2.297340535992766775e-01
2.424909578653619835e-01 1.761056630474229223e-01
2.435294630379675473e-01 1.181385874642160161e-01
2.445679682105731390e-01 1.650668167015609811e-01
2.456064733831787028e-01 2.001303714417588253e-01
2.466449785557842667e-01 1.564296627859818045e-01
2.476834837283898583e-01 1.889045033914307226e-01
2.487219889009953944e-01 1.625949293803508056e-01
2.497604940736009582e-01 1.960887881977555480e-01
2.507989992462065221e-01 2.267735704720017509e-01
2.518375044188120859e-01 2.214752699062287888e-01
2.528760095914177053e-01 2.144460367292957415e-01
2.539145147640232691e-01 1.530215135010628558e-01
2.549530199366288330e-01 1.636762127598601069e-01
2.559915251092343413e-01 1.954394291285659335e-01
2.570300302818399607e-01 9.693186490459737570e-02
2.580685354544455246e-01 1.181036073985950452e-01
2.591070406270510884e-01 1.389006506120118445e-01
2.601455457996566523e-01 1.424901980420187897e-01
2.611840509722622161e-01 2.083699214569172398e-01
2.622225561448678355e-01 4.452979516351689426e-01
2.632610613174733438e-01 3.333951051471828464e-01
2.642995664900789077e-01 1.868709019208161237e-01
2.653380716626844715e-01 1.614980211159391388e-01
2.663765768352900909e-01 2.435382551560394404e-01
2.674150820078956547e-01 2.261310413439723277e-01
2.684535871805012186e-01 1.931411356987524641e-01
2.694920923531067825e-01 1.997166397871623644e-01
2.705305975257123463e-01 1.735472425172410738e-01
2.715691026983179102e-01 2.045426029464181283e-01
2.726076078709234740e-01 1.622286485712471915e-01
2.736461130435290379e-01 1.425511971309525450e-01
2.746846182161346017e-01 1.995166296207031564e-01
2.757231233887402211e-01 1.525837607966558096e-01
2.767616285613457849e-01 1.492052139880364336e-01
2.778001337339512933e-01 1.678502785977045164e-01
2.788386389065568571e-01 1.235691867865646998e-01
2.798771440791624765e-01 1.703831167331166796e-01
2.809156492517680404e-01 1.404712654391673254e-01
2.819541544243736042e-01 1.339651766217357931e-01
2.829926595969791681e-01 1.621227634178268318e-02
2.840311647695847319e-01 1.155777717168291474e-01
2.850696699421902958e-01 1.679785858675728605e-01
2.861081751147958596e-01 1.442193837559919700e-01
2.871466802874014235e-01 1.806038008819825791e-01
2.881851854600069873e-01 1.472269805056782843e-01
2.892236906326126067e-01 1.137865461176517101e-01
2.902621958052181705e-01 7.070882694722513406e-02
2.913007009778237344e-01 1.616470327513539473e-01
2.923392061504292427e-01 1.422157838077637848e-01
2.933777113230348621e-01 1.748598903215636824e-01
2.944162164956404260e-01 2.052661623597558105e-01
2.954547216682459898e-01 1.484505160214055763e-01
2.964932268408515537e-01 1.603671683130691861e-01
2.975317320134571175e-01 1.860268180092070622e-01
2.985702371860627369e-01 2.005049896944051113e-01
2.996087423586683007e-01 1.582327628143858078e-01
3.006472475312738091e-01 9.760658541460642823e-02
3.016857527038794284e-01 1.351887103876769913e-01
3.027242578764849923e-01 1.313269505229506251e-01
3.037627630490905561e-01 1.763235849117101850e-01
3.048012682216961200e-01 2.101894219525703988e-01
3.058397733943016839e-01 1.971461249138428684e-01
3.068782785669073032e-01 1.599210209673067595e-01
3.079167837395128116e-01 1.970881849555894405e-01
3.089552889121183754e-01 2.345556368112582390e-01
3.099937940847239393e-01 1.982863381603543473e-01
3.110322992573295586e-01 1.746647221267743078e-01
3.120708044299351225e-01 1.800335562061263772e-01
3.131093096025406863e-01 1.465398393211820860e-01
3.141478147751462502e-01 2.216261472616807282e-01
3.151863199477518140e-01 2.276851598185238856e-01
3.162248251203573779e-01 2.090632738187174766e-01
3.172633302929629417e-01 1.604531974595424515e-01
3.183018354655685056e-01 1.135563886270531953e-01
3.193403406381740695e-01 1.141497273119682632e-01
3.203788458107796888e-01 1.401809584529800645e-01
3.214173509833852527e-01 1.697353707983388915e-01
3.224558561559907610e-01 1.497972001349374693e-01
3.234943613285963249e-01 1.476336524239059145e-01
3.245328665012019442e-01 1.565829819652861943e-01
3.255713716738075081e-01 1.768310933556698217e-01
3.266098768464130719e-01 1.303454556821606047e-01
3.276483820190186358e-01 1.578464799288212816e-01
3.286868871916241996e-01 1.652333437178832298e-01
3.297253923642297635e-01 1.682127745519110817e-01
3.307638975368353274e-01 1.525392303020574047e-01
3.318024027094408912e-01 1.451182360279865691e-01
3.328409078820464551e-01 2.007632938052985594e-01
3.338794130546520744e-01 1.192600889289501254e-01
3.349179182272576383e-01 1.552692553942236486e-01
3.359564233998632021e-01 2.177830367775435150e-01
3.369949285724687105e-01 1.476966004424973278e-01
3.380334337450743298e-01 1.079238537704263479e-01
3.390719389176798937e-01 1.054791042816987101e-01
3.401104440902854575e-01 1.666056765375607540e-01
3.411489492628910214e-01 1.570105219056934232e-01
3.421874544354965852e-01 1.783781714246011063e-01
3.432259596081022046e-01 1.641622369530075787e-01
3.442644647807077130e-01 1.389031158971612001e-01
3.453029699533132768e-01 1.237389806993185459e-01
3.463414751259188407e-01 1.613523560861942485e-01
3.473799802985244600e-01 1.440811861610775679e-01
3.484184854711300239e-01 1.709486193671700960e-01
3.494569906437355877e-01 1.890902307087571899e-01
3.504954958163411516e-01 1.621480517913340691e-01
3.515340009889467154e-01 1.332995890544310669e-01
3.525725061615522793e-01 1.686773167616557600e-01
3.536110113341578431e-01 1.198311112966550240e-01
3.546495165067634070e-01 1.450686815938411200e-01
3.556880216793689709e-01 1.734394803623686698e-01
3.567265268519745902e-01 9.177989938595843000e-02
3.577650320245801541e-01 1.693479162351465561e-01
3.588035371971856624e-01 1.935158726386632111e-01
3.598420423697912263e-01 1.545741743054946937e-01
3.608805475423968456e-01 1.336891520665517419e-01
3.619190527150024095e-01 1.176712621517452817e-01
3.629575578876079733e-01 1.006360845755622790e-01
3.639960630602135372e-01 1.270068486053688162e-01
3.650345682328191010e-01 1.876514969467102389e-01
3.660730734054246649e-01 1.299854016502592913e-01
3.671115785780302287e-01 1.461758653756959347e-01
3.681500837506357926e-01 1.263473770643379623e-01
3.691885889232413565e-01 1.084583035705151133e-01
3.702270940958469758e-01 1.343845095665514577e-01
3.712655992684525397e-01 1.825163960448747957e-01
3.723041044410581035e-01 1.592441127902759490e-01
3.733426096136636674e-01 1.308152657352863457e-01
3.743811147862692312e-01 1.490515938931871176e-01
3.754196199588747951e-01 1.320754037415596827e-01
3.764581251314803589e-01 9.080267890120197194e-02
3.774966303040859228e-01 1.140687092556760263e-01
3.785351354766914866e-01 1.269967867456252009e-01
3.795736406492971060e-01 1.633931784220443717e-01
3.806121458219026699e-01 1.622214648088728950e-01
3.816506509945081782e-01 1.867017974695919236e-01
3.826891561671137421e-01 1.302224924033197340e-01
3.837276613397193614e-01 8.561212596445955114e-02
3.847661665123249253e-01 1.626529625893411435e-01
3.858046716849304891e-01 1.327468151926147755e-01
3.868431768575360530e-01 2.001063291438960334e-01
3.878816820301416168e-01 1.868687903019505825e-01
3.889201872027471807e-01 2.112652927213467535e-01
3.899586923753527445e-01 2.356290409204575553e-01
3.909971975479583084e-01 1.717216012086524302e-01
3.920357027205638722e-01 1.784214621706361470e-01
3.930742078931694916e-01 1.843569360665036072e-01
3.941127130657750555e-01 1.312535160398624612e-01
3.951512182383806193e-01 1.340544536362990868e-01
3.961897234109861277e-01 2.025119292805683813e-01
3.972282285835917470e-01 1.686595043626724078e-01
3.982667337561973109e-01 1.596521504540007186e-01
3.993052389288028747e-01 1.126320563353999660e-01
4.003437441014084941e-01 1.511050519204637510e-01
4.013822492740140579e-01 1.318675340811132912e-01
4.024207544466196218e-01 1.292779897474076733e-01
4.034592596192252412e-01 1.196172041311562850e-01
4.044977647918308050e-01 9.384658333410555997e-02
4.055362699644363689e-01 1.176493094937320905e-01
4.065747751370419327e-01 1.611561784931225816e-01
4.076132803096474411e-01 1.864865080905424577e-01
4.086517854822530049e-01 1.546728186598826937e-01
4.096902906548585688e-01 1.107022144865617008e-01
4.107287958274641326e-01 9.627577807908593854e-02
4.117673010000697520e-01 8.664622806034927294e-02
4.128058061726753158e-01 1.239217781496826376e-01
4.138443113452808797e-01 1.030832867381583640e-01
4.148828165178864436e-01 8.582131293537287320e-02
4.159213216904920074e-01 1.368620873706767327e-01
4.169598268630976268e-01 1.729351989543985724e-01
4.179983320357031906e-01 1.741259175527964942e-01
4.190368372083087545e-01 1.033121778323220497e-01
4.200753423809143183e-01 1.323069101482339249e-01
4.211138475535198822e-01 1.797153897705001668e-01
4.221523527261253905e-01 1.677748162455046099e-01
4.231908578987309544e-01 1.087390077561778412e-01
4.242293630713365182e-01 1.539904726796663681e-01
4.252678682439421376e-01 1.638608783086290543e-01
4.263063734165477014e-01 1.652365926964627363e-01
4.273448785891532653e-01 1.182348724375117399e-01
4.283833837617588292e-01 1.163302688824643383e-01
4.294218889343643930e-01 1.895358199741110639e-01
4.304603941069700124e-01 1.428773448679550029e-01
4.314988992795755762e-01 8.383826624174162134e-02
4.325374044521811401e-01 9.685990119522713826e-02
4.335759096247867039e-01 1.389642410717364385e-01
4.346144147973922678e-01 1.110341016957931970e-01
4.356529199699978872e-01 1.334418075993646369e-01
4.366914251426033400e-01 2.754791770344802160e-01
4.377299303152089038e-01 1.264221917947203622e-01
4.387684354878145232e-01 7.580096387635038013e-02
4.398069406604200871e-01 1.005316942631999666e-01
4.408454458330256509e-01 1.291332945497671858e-01
4.418839510056312148e-01 1.522529271790098448e-01
4.429224561782367786e-01 1.534855512283392898e-01
4.439609613508423980e-01 1.917338954020131325e-01
