# q (1/Angstrom), Intensity (arb)
3.063590265382597211e-02 1.148047434309573305e+02
3.167440782643154290e-02 1.138080962271620535e+02
3.271291299903710675e-02 1.119986924613547927e+02
3.375141817164267755e-02 1.104480259465013887e+02
3.478992334424824834e-02 1.088634537115269012e+02
3.582842851685381913e-02 1.069639547870335718e+02
3.686693368945938992e-02 1.056650936719013600e+02
3.790543886206496071e-02 1.045864283655537292e+02
3.894394403467052457e-02 1.028271283598153332e+02
3.998244920727608842e-02 1.009726718477275682e+02
4.102095437988165921e-02 9.975533882791310702e+01
4.205945955248723001e-02 9.794612789814347309e+01
4.309796472509280080e-02 9.574224717999159395e+01
4.413646989769837159e-02 9.378960083214948895e+01
4.517497507030393544e-02 9.194285565550929107e+01
4.621348024290949930e-02 8.995824197967270663e+01
4.725198541551507009e-02 8.847894559459055586e+01
4.829049058812064088e-02 8.709715889192781901e+01
4.932899576072621167e-02 8.466123463216786149e+01
5.036750093333178246e-02 8.247680791310648374e+01
5.140600610593734632e-02 8.056844857159417472e+01
5.244451127854291711e-02 7.914957974959378362e+01
5.348301645114848096e-02 7.773889461467365436e+01
5.452152162375405869e-02 7.551237424522909691e+01
5.556002679635962255e-02 7.321608999261127337e+01
5.659853196896519334e-02 7.148004970011997727e+01
5.763703714157075719e-02 6.990666973091650505e+01
5.867554231417632105e-02 6.792589074042778918e+01
5.971404748678189878e-02 6.613900254518185307e+01
6.075255265938746263e-02 6.440171354442941265e+01
6.179105783199304036e-02 6.279541113807556485e+01
6.282956300459860421e-02 6.090220730594200660e+01
6.386806817720418195e-02 5.929141576544303405e+01
6.490657334980974580e-02 5.789920503181150480e+01
6.594507852241530965e-02 5.635393609731417541e+01
6.698358369502087351e-02 5.465203567444892485e+01
6.802208886762643736e-02 5.276639919542130031e+01
6.906059404023201509e-02 5.135482551680063779e+01
7.009909921283757894e-02 4.975522543905630357e+01
7.113760438544315667e-02 4.840170872377549927e+01
7.217610955804872053e-02 4.672508813773364977e+01
7.321461473065429826e-02 4.504455718424024724e+01
7.425311990325986211e-02 4.332242241640594926e+01
7.529162507586543984e-02 4.196057897225411182e+01
7.633013024847100370e-02 4.048002929263927285e+01
7.736863542107656755e-02 3.883638414633933422e+01
7.840714059368214528e-02 3.711662546870972790e+01
7.944564576628770913e-02 3.557951780746608961e+01
8.048415093889327299e-02 3.413026948438357522e+01
8.152265611149883684e-02 3.252014399139660839e+01
8.256116128410441457e-02 3.105782781668705184e+01
8.359966645670997842e-02 2.966627518675545971e+01
8.463817162931554228e-02 2.835753800524291535e+01
8.567667680192112001e-02 2.727851950998565655e+01
8.671518197452668386e-02 2.588008997598613092e+01
8.775368714713226159e-02 2.485377393311257421e+01
8.879219231973782545e-02 2.379679459924718898e+01
8.983069749234340318e-02 2.263063826276331980e+01
9.086920266494896703e-02 2.159069580335282623e+01
9.190770783755453088e-02 2.053173715999720272e+01
9.294621301016009474e-02 1.948243687080811526e+01
9.398471818276565859e-02 1.853240796609323127e+01
9.502322335537123632e-02 1.747393940635975085e+01
9.606172852797680017e-02 1.681165175000408496e+01
9.710023370058237790e-02 1.606599697487600409e+01
9.813873887318794176e-02 1.519299445937970816e+01
9.917724404579351949e-02 1.456405458054842583e+01
1.002157492183990695e-01 1.393740757312819767e+01
1.012542543910046472e-01 1.331277154155221965e+01
1.022927595636101972e-01 1.261657552945647609e+01
1.033312647362157749e-01 1.202902934556110637e+01
1.043697699088213526e-01 1.154700749707118845e+01
1.054082750814269165e-01 1.076008043134459058e+01
1.064467802540324803e-01 1.024817533724647234e+01
1.074852854266380442e-01 9.723861124877611672e+00
1.085237905992436219e-01 9.204205895498876799e+00
1.095622957718491719e-01 8.647932078080671658e+00
1.106008009444547496e-01 8.205474857493808116e+00
1.116393061170603274e-01 7.864819164367165882e+00
1.126778112896659051e-01 7.716292688816338341e+00
1.137163164622714551e-01 7.655617861529695034e+00
1.147548216348770328e-01 7.046530850290054104e+00
1.157933268074826105e-01 6.472167599258344950e+00
1.168318319800881605e-01 6.023518719713653269e+00
1.178703371526937382e-01 5.774318840634954597e+00
1.189088423252993021e-01 5.567156192871507869e+00
1.199473474979048798e-01 5.271796232778939384e+00
1.209858526705104298e-01 5.022587420272358827e+00
1.220243578431160075e-01 4.844115025978460665e+00
1.230628630157215853e-01 4.572410373314468757e+00
1.241013681883271630e-01 4.268540582685584894e+00
1.251398733609327130e-01 4.018695056184714787e+00
1.261783785335382768e-01 3.758846106501987805e+00
1.272168837061438684e-01 3.573106161913884193e+00
1.282553888787494045e-01 3.394568743860986615e+00
1.292938940513549961e-01 3.369254892382315347e+00
1.303323992239605600e-01 3.136452256613079470e+00
1.313709043965661516e-01 3.019081549309998280e+00
1.324094095691716877e-01 2.747835681499775973e+00
1.334479147417772793e-01 2.518959797349765495e+00
1.344864199143828432e-01 2.475376780489206396e+00
1.355249250869884070e-01 2.329548224473569462e+00
1.365634302595939709e-01 2.248752239485117599e+00
1.376019354321995347e-01 2.258911687584006955e+00
1.386404406048051263e-01 2.152952287085351912e+00
1.396789457774106624e-01 2.008220139196431830e+00
1.407174509500162540e-01 1.916411820721481973e+00
1.417559561226218179e-01 1.818700957723226708e+00
1.427944612952273817e-01 1.698087271467212389e+00
1.438329664678329456e-01 1.670497718990102243e+00
1.448714716404385372e-01 1.593927787850610400e+00
1.459099768130441011e-01 1.529971528178847961e+00
1.469484819856496649e-01 1.521805884169939560e+00
1.479869871582552288e-01 1.489767598683599203e+00
1.490254923308607926e-01 1.398417846767145534e+00
1.500639975034663842e-01 1.451678573045594334e+00
1.511025026760719481e-01 1.427237726612126778e+00
1.521410078486775119e-01 1.422473288266175473e+00
1.531795130212830758e-01 1.284964681806776809e+00
1.542180181938886396e-01 1.245342148967026219e+00
1.552565233664942035e-01 1.148706410306520098e+00
1.562950285390997951e-01 1.031219351810232610e+00
1.573335337117053589e-01 1.090862234468140457e+00
1.583720388843109228e-01 1.011178652896109753e+00
1.594105440569164867e-01 1.096485296697537137e+00
1.604490492295220783e-01 1.021323133930035709e+00
1.614875544021276144e-01 1.014474600212661670e+00
1.625260595747332060e-01 1.030104625106098126e+00
1.635645647473387698e-01 9.822828936322309801e-01
1.646030699199443337e-01 9.984541655371899083e-01
1.656415750925498975e-01 8.911907566313708173e-01
1.666800802651554614e-01 9.238711631202924934e-01
1.677185854377610530e-01 9.765854652625058918e-01
1.687570906103665891e-01 8.976951643353494603e-01
1.697955957829721807e-01 8.578176685943219582e-01
1.708341009555777446e-01 9.269602332780841891e-01
1.718726061281833362e-01 7.328656525782832887e-01
1.729111113007888723e-01 8.355289268291308247e-01
1.739496164733944639e-01 8.797825316450307298e-01
1.749881216460000277e-01 8.578142908385153476e-01
1.760266268186055916e-01 7.737739990051082373e-01
1.770651319912111554e-01 7.450500377812829811e-01
1.781036371638167193e-01 8.090188430216613824e-01
1.791421423364223109e-01 7.845857719233642058e-01
1.801806475090278470e-01 8.313460800552405772e-01
1.812191526816334386e-01 8.634575923475225068e-01
1.822576578542390024e-01 8.444454245377208679e-01
1.832961630268445663e-01 8.293077853862449444e-01
1.843346681994501302e-01 8.879736505012232328e-01
1.853731733720557218e-01 8.622821445559729625e-01
1.864116785446612856e-01 9.153077578008605997e-01
1.874501837172668495e-01 8.315512677453789081e-01
1.884886888898724133e-01 7.631971403808073262e-01
1.895271940624779772e-01 8.076473009877176423e-01
1.905656992350835688e-01 8.379293906082310173e-01
1.916042044076891049e-01 8.806963441902446732e-01
1.926427095802946965e-01 7.480312355634275434e-01
1.936812147529002603e-01 7.716110450167832369e-01
1.947197199255058242e-01 7.830061496956517431e-01
1.957582250981113881e-01 7.745381174746626129e-01
1.967967302707169797e-01 8.714711968674748732e-01
1.978352354433225435e-01 7.598625628081272509e-01
1.988737406159281074e-01 7.748528636813141190e-01
1.999122457885336712e-01 7.955749956936415401e-01
2.009507509611392351e-01 9.103789426572319599e-01
2.019892561337448267e-01 8.918809831243628139e-01
2.030277613063503905e-01 7.778606264686231953e-01
2.040662664789559266e-01 8.178940653348085732e-01
2.051047716515614905e-01 7.906984313880798254e-01
2.061432768241670821e-01 7.666916877486720239e-01
2.071817819967726459e-01 6.964045432913117395e-01
2.082202871693782376e-01 6.943645791794601507e-01
2.092587923419838014e-01 7.458994154853257896e-01
2.102972975145893653e-01 7.856665692614264174e-01
2.113358026871949014e-01 7.199611276501940438e-01
2.123743078598004930e-01 7.651379359291219373e-01
2.134128130324060568e-01 7.744825556387802123e-01
2.144513182050116207e-01 7.761927312529230960e-01
2.154898233776172123e-01 7.338285531821284735e-01
2.165283285502227761e-01 7.995661553518544906e-01
2.175668337228283677e-01 7.913772187033565331e-01
2.186053388954338761e-01 7.229256057632369448e-01
2.196438440680394677e-01 6.395495270859719028e-01
2.206823492406450316e-01 5.270689173103058067e-01
2.217208544132506232e-01 7.079152310704763806e-01
2.227593595858561870e-01 6.962251553944049931e-01
2.237978647584617509e-01 6.627474298135780373e-01
2.248363699310673425e-01 7.109293687743054591e-01
2.258748751036728786e-01 6.642105834917195750e-01
2.269133802762784424e-01 5.431112073428145948e-01
2.279518854488840063e-01 6.210435394117723717e-01
2.289903906214895979e-01 6.489116288125345022e-01
2.300288957940951617e-01 7.375112767360967325e-01
2.310674009667007534e-01 6.642768338835693953e-01
2.321059061393063172e-01 6.369775272645128439e-01
2.331444113119118533e-01 5.952281708056581522e-01
2.341829164845174172e-01 5.969730000648070245e-01
2.352214216571230088e-01 5.515433567684624450e-01
2.362599268297285726e-01 4.923682528331632113e-01
2.372984320023341365e-01 5.161718020713479405e-01
2.383369371749397281e-01 5.513285050023633005e-01
2.393754423475452919e-01 5.101351625043371030e-01
2.404139475201508835e-01 5.227308004952710974e-01
2.414524526927563919e-01 5.194497932193264944e-01
2.424909578653619835e-01 4.679502760205771494e-01
2.435294630379675473e-01 4.461254310521276523e-01
2.445679682105731390e-01 4.444365697564691686e-01
2.456064733831787028e-01 5.012607882623605349e-01
2.466449785557842667e-01 5.164121244651411757e-01
2.476834837283898583e-01 4.530648914565311713e-01
2.487219889009953944e-01 5.185001281690695407e-01
2.497604940736009582e-01 4.514048588392149952e-01
2.507989992462065221e-01 3.438184116617080122e-01
2.518375044188120859e-01 4.314421636286951411e-01
2.528760095914177053e-01 3.597438860879158540e-01
2.539145147640232691e-01 4.440003249278028363e-01
2.549530199366288330e-01 4.492731779871519393e-01
2.559915251092343413e-01 4.416198964812743100e-01
2.570300302818399607e-01 4.735536209803612451e-01
2.580685354544455246e-01 4.616433459428357367e-01
2.591070406270510884e-01 4.215715582600232381e-01
2.601455457996566523e-01 3.917541422756514180e-01
2.611840509722622161e-01 3.918848087607180730e-01
2.622225561448678355e-01 3.676618217480971396e-01
2.632610613174733438e-01 3.026304868847908836e-01
2.642995664900789077e-01 3.254886478998741950e-01
2.653380716626844715e-01 3.897630924213117964e-01
2.663765768352900909e-01 3.254344108036413274e-01
2.674150820078956547e-01 4.121038971317894095e-01
2.684535871805012186e-01 4.854833773145124098e-01
2.694920923531067825e-01 5.306021379767820179e-01
2.705305975257123463e-01 4.481113735780581919e-01
2.715691026983179102e-01 3.697221068624827467e-01
2.726076078709234740e-01 3.022537686733635098e-01
2.736461130435290379e-01 2.977278776800602600e-01
2.746846182161346017e-01 3.220819078902010801e-01
2.757231233887402211e-01 3.120165126598095640e-01
2.767616285613457849e-01 2.779262284350103585e-01
2.778001337339512933e-01 3.975806190766135728e-01
2.788386389065568571e-01 3.216403320981342517e-01
2.798771440791624765e-01 2.599894923689447523e-01
2.809156492517680404e-01 3.187736118232216143e-01
2.819541544243736042e-01 3.303709679364459362e-01
2.829926595969791681e-01 3.116961571582201884e-01
2.840311647695847319e-01 3.263659289060960589e-01
2.850696699421902958e-01 3.339213775549367824e-01
2.861081751147958596e-01 2.761376444886209924e-01
2.871466802874014235e-01 2.782673688751451380e-01
2.881851854600069873e-01 3.251783960504859294e-01
2.892236906326126067e-01 3.434722277711870220e-01
2.902621958052181705e-01 3.358955038341626675e-01
2.913007009778237344e-01 3.113254679187207330e-01
2.923392061504292427e-01 3.587978031530312251e-01
2.933777113230348621e-01 4.145804689244840802e-01
2.944162164956404260e-01 4.139633944587650660e-01
2.954547216682459898e-01 2.600469291495350888e-01
2.964932268408515537e-01 2.838529650286609751e-01
2.975317320134571175e-01 3.791348424564944253e-01
2.985702371860627369e-01 2.989471803966239349e-01
2.996087423586683007e-01 2.477706468487888003e-01
3.006472475312738091e-01 2.605210108535338520e-01
3.016857527038794284e-01 3.044181731680488667e-01
3.027242578764849923e-01 3.450620893306037829e-01
3.037627630490905561e-01 3.087175488001818735e-01
3.048012682216961200e-01 3.233451873690711409e-01
3.058397733943016839e-01 2.863850389076922909e-01
3.068782785669073032e-01 2.166110276390220690e-01
3.079167837395128116e-01 1.870437474673565248e-01
3.089552889121183754e-01 2.666881326659478191e-01
3.099937940847239393e-01 2.797759856508470477e-01
3.110322992573295586e-01 1.809370839016892774e-01
3.120708044299351225e-01 2.512036581212342412e-01
3.131093096025406863e-01 2.852477121806877847e-01
3.141478147751462502e-01 2.153714318483430645e-01
3.151863199477518140e-01 2.846159258221270250e-01
3.162248251203573779e-01 2.591371273820328724e-01
3.172633302929629417e-01 2.429876845773044636e-01
3.183018354655685056e-01 1.770635830841555958e-01
3.193403406381740695e-01 2.986068389522849031e-01
3.203788458107796888e-01 2.835569973794065390e-01
3.214173509833852527e-01 3.336190959615308316e-01
3.224558561559907610e-01 4.369964489768776161e-01
3.234943613285963249e-01 2.409381550528806315e-01
3.245328665012019442e-01 2.274572064346500611e-01
3.255713716738075081e-01 2.310581743313271375e-01
3.266098768464130719e-01 2.597248121107007535e-01
3.276483820190186358e-01 2.134146754975425608e-01
3.286868871916241996e-01 2.487277605619624410e-01
3.297253923642297635e-01 2.509431279331657549e-01
3.307638975368353274e-01 2.305149411459197495e-01
3.318024027094408912e-01 3.073786306021624171e-01
3.328409078820464551e-01 2.935653439825216537e-01
3.338794130546520744e-01 2.549963327954820613e-01
3.349179182272576383e-01 3.362009421237281970e-01
3.359564233998632021e-01 3.151966775492063277e-01
3.369949285724687105e-01 2.615054567630821225e-01
3.380334337450743298e-01 2.460864813945882190e-01
3.390719389176798937e-01 2.206941437018521412e-01
3.401104440902854575e-01 2.332616091011203707e-01
3.411489492628910214e-01 2.647427371302200072e-01
3.421874544354965852e-01 2.158433723458799136e-01
3.432259596081022046e-01 2.228112788040235159e-01
3.442644647807077130e-01 2.035112868294817190e-01
3.453029699533132768e-01 1.674411705907417058e-01
3.463414751259188407e-01 2.415073460824572749e-01
3.473799802985244600e-01 2.044748514192775701e-01
3.484184854711300239e-01 1.759630582110958130e-01
3.494569906437355877e-01 1.975199485228209539e-01
3.504954958163411516e-01 2.363754968976579107e-01
3.515340009889467154e-01 1.919031612869588344e-01
3.525725061615522793e-01 2.245481997217773085e-01
3.536110113341578431e-01 2.696431488961934519e-01
3.546495165067634070e-01 2.457208919766848965e-01
3.556880216793689709e-01 2.211730771088937786e-01
3.567265268519745902e-01 1.968832347985589593e-01
3.577650320245801541e-01 2.503871347889621291e-01
3.588035371971856624e-01 2.697039818546755896e-01
3.598420423697912263e-01 2.163949225438166479e-01
3.608805475423968456e-01 2.676652377058523768e-01
3.619190527150024095e-01 1.971903173023896727e-01
3.629575578876079733e-01 1.659520684947395353e-01
3.639960630602135372e-01 1.984889597689090124e-01
3.650345682328191010e-01 2.160323053723196551e-01
3.660730734054246649e-01 1.772427393814020036e-01
3.671115785780302287e-01 1.325449126925555277e-01
3.681500837506357926e-01 1.844874113230652313e-01
3.691885889232413565e-01 2.416197309605898624e-01
3.702270940958469758e-01 1.471585797896644010e-01
3.712655992684525397e-01 1.817026247336350764e-01
3.723041044410581035e-01 1.822989926038687258e-01
3.733426096136636674e-01 2.289344657039507069e-01
3.743811147862692312e-01 2.033004846138055655e-01
3.754196199588747951e-01 1.862720346715640574e-01
3.764581251314803589e-01 1.865012303972086727e-01
3.774966303040859228e-01 1.795718860446164911e-01
3.785351354766914866e-01 1.232421623079815731e-01
3.795736406492971060e-01 1.311811890078260490e-01
3.806121458219026699e-01 1.736710079185392885e-01
3.816506509945081782e-01 1.771332102284404186e-01
3.826891561671137421e-01 2.152087082528097994e-01
3.837276613397193614e-01 1.433139256434827757e-01
3.847661665123249253e-01 1.233363836109688805e-01
3.858046716849304891e-01 1.754580269344252486e-01
3.868431768575360530e-01 2.299377971506864071e-01
3.878816820301416168e-01 2.820025238456800309e-01
3.889201872027471807e-01 2.419558546869602367e-01
3.899586923753527445e-01 2.245038635507903280e-01
3.909971975479583084e-01 1.229717898885738236e-01
3.920357027205638722e-01 1.279183833476089660e-01
3.930742078931694916e-01 1.858388455657475902e-01
3.941127130657750555e-01 1.471444133422359357e-01
3.951512182383806193e-01 1.666988695188287295e-01
3.961897234109861277e-01 1.932904941120803244e-01
3.972282285835917470e-01 1.760445973203097481e-01
3.982667337561973109e-01 2.082008839023714586e-01
3.993052389288028747e-01 2.093306725659402900e-01
4.003437441014084941e-01 1.823164072014726855e-01
4.013822492740140579e-01 1.459118323302348585e-01
4.024207544466196218e-01 1.632015963475375031e-01
4.034592596192252412e-01 1.607442750099927764e-01
4.044977647918308050e-01 2.182425521766333532e-01
4.055362699644363689e-01 2.105714806413914175e-01
4.065747751370419327e-01 1.106627413993379605e-01
4.076132803096474411e-01 1.300942101198998557e-01
4.086517854822530049e-01 1.634609679026333140e-01
4.096902906548585688e-01 1.822110394807232581e-01
4.107287958274641326e-01 1.252435710872532582e-01
4.117673010000697520e-01 8.989435515731614146e-02
4.128058061726753158e-01 1.129096895404337886e-01
4.138443113452808797e-01 1.308272704954838161e-01
4.148828165178864436e-01 1.605422006003074387e-01
4.159213216904920074e-01 2.005368086491543522e-01
4.169598268630976268e-01 1.885413715822465974e-01
4.179983320357031906e-01 1.607919415442502498e-01
4.190368372083087545e-01 1.272326367139626768e-01
4.200753423809143183e-01 1.488842448674638774e-01
4.211138475535198822e-01 1.626629322990744697e-01
4.221523527261253905e-01 1.835587751886258445e-01
4.231908578987309544e-01 1.266540394687822868e-01
4.242293630713365182e-01 1.111203856577667182e-01
4.252678682439421376e-01 1.187126579807085136e-01
4.263063734165477014e-01 1.409419168402941125e-01
4.273448785891532653e-01 1.275026595640795790e-01
4.283833837617588292e-01 9.326259134807912687e-02
4.294218889343643930e-01 9.666002001179307968e-02
4.304603941069700124e-01 1.081054419014861878e-01
4.314988992795755762e-01 1.422238630583052554e-01
4.325374044521811401e-01 1.362269650707688129e-01
4.335759096247867039e-01 1.340749959660563206e-01
4.346144147973922678e-01 1.141359120686544770e-01
4.356529199699978872e-01 1.099982580387219855e-01
4.366914251426033400e-01 1.527101254455516255e-01
4.377299303152089038e-01 1.555075898700657433e-01
4.387684354878145232e-01 1.398234415260688479e-01
4.398069406604200871e-01 1.082297076671387970e-01
4.408454458330256509e-01 1.842568986129720088e-01
4.418839510056312148e-01 1.951262482090321271e-01
4.429224561782367786e-01 1.693914849048390181e-01
4.439609613508423980e-01 1.911900936711603549e-01
