# q (1/Angstrom), Intensity (arb)
3.063590265382597211e-02 3.013697778741789080e+01
3.167440782643154290e-02 2.684017688891446340e+01
3.271291299903710675e-02 2.392807146165085186e+01
3.375141817164267755e-02 2.173224102249240275e+01
3.478992334424824834e-02 1.950556396654334534e+01
3.582842851685381913e-02 1.742225739846955079e+01
3.686693368945938992e-02 1.568262500251941916e+01
3.790543886206496071e-02 1.453138701181822512e+01
3.894394403467052457e-02 1.315058829364720694e+01
3.998244920727608842e-02 1.223289636797729685e+01
4.102095437988165921e-02 1.155653543549146178e+01
4.205945955248723001e-02 1.077873953996520839e+01
4.309796472509280080e-02 9.853391914103458049e+00
4.413646989769837159e-02 9.123630107229590891e+00
4.517497507030393544e-02 8.664059892211739111e+00
4.621348024290949930e-02 8.090951523826738878e+00
4.725198541551507009e-02 7.740486979977596604e+00
4.829049058812064088e-02 7.181019120001447931e+00
4.932899576072621167e-02 6.704052870384533236e+00
5.036750093333178246e-02 6.502138779791337697e+00
5.140600610593734632e-02 6.207104313328628109e+00
5.244451127854291711e-02 5.690155535246002927e+00
5.348301645114848096e-02 5.244988679055026637e+00
5.452152162375405869e-02 4.974141649738715643e+00
5.556002679635962255e-02 4.568650955672495684e+00
5.659853196896519334e-02 4.225131032357648309e+00
5.763703714157075719e-02 3.947431103635612004e+00
5.867554231417632105e-02 3.709424490792777362e+00
5.971404748678189878e-02 3.475309125208028149e+00
6.075255265938746263e-02 3.163037014708599770e+00
6.179105783199304036e-02 3.221030879657586610e+00
6.282956300459860421e-02 2.794211873382707267e+00
6.386806817720418195e-02 2.458756445070065411e+00
6.490657334980974580e-02 2.431113354139029070e+00
6.594507852241530965e-02 2.364070360894288569e+00
6.698358369502087351e-02 2.229725111875382026e+00
6.802208886762643736e-02 2.043593691506917054e+00
6.906059404023201509e-02 2.022632753694235674e+00
7.009909921283757894e-02 1.845349717740681683e+00
7.113760438544315667e-02 1.814579329413511743e+00
7.217610955804872053e-02 1.696353185608806768e+00
7.321461473065429826e-02 1.748960603892225407e+00
7.425311990325986211e-02 1.399551044285232138e+00
7.529162507586543984e-02 1.323551479155526067e+00
7.633013024847100370e-02 1.264661846970366099e+00
7.736863542107656755e-02 1.389391672049818283e+00
7.840714059368214528e-02 1.267508251027209099e+00
7.944564576628770913e-02 1.130435961332469930e+00
8.048415093889327299e-02 9.706676435589187690e-01
8.152265611149883684e-02 9.885091141612996068e-01
8.256116128410441457e-02 8.931807033719323385e-01
8.359966645670997842e-02 7.641309835837901687e-01
8.463817162931554228e-02 7.177546514850519088e-01
8.567667680192112001e-02 7.532891724107706466e-01
8.671518197452668386e-02 5.440245111747046280e-01
8.775368714713226159e-02 3.943438400867300686e-01
8.879219231973782545e-02 3.185078080195644645e-01
8.983069749234340318e-02 2.671985534501466475e-01
9.086920266494896703e-02 3.677143432852645333e-01
9.190770783755453088e-02 1.876014580444689273e-01
9.294621301016009474e-02 0.000000000000000000e+00
9.398471818276565859e-02 1.127008308387615898e-01
9.502322335537123632e-02 2.794433887240757031e-01
9.606172852797680017e-02 2.649899745034929310e-01
9.710023370058237790e-02 3.214487149502112118e-01
9.813873887318794176e-02 4.215392488405989013e-01
9.917724404579351949e-02 4.644913931853942302e-01
1.002157492183990695e-01 3.786351177813749302e-01
1.012542543910046472e-01 3.842965795293302733e-01
1.022927595636101972e-01 3.205941572604054102e-01
1.033312647362157749e-01 3.127483476068171342e-01
1.043697699088213526e-01 4.047555671618212614e-01
1.054082750814269165e-01 5.617194555282551960e-01
1.064467802540324803e-01 6.099325225527643113e-01
1.074852854266380442e-01 5.774903785273934886e-01
1.085237905992436219e-01 6.234523464721029029e-01
1.095622957718491719e-01 6.999504821598065973e-01
1.106008009444547496e-01 6.761326281652237924e-01
1.116393061170603274e-01 6.650375629774103459e-01
1.126778112896659051e-01 6.340570846153781304e-01
1.137163164622714551e-01 7.383691662346265616e-01
1.147548216348770328e-01 7.178263288954980226e-01
1.157933268074826105e-01 7.195426699933911152e-01
1.168318319800881605e-01 7.692549085157303068e-01
1.178703371526937382e-01 7.192617029682182306e-01
1.189088423252993021e-01 6.821373856794110679e-01
1.199473474979048798e-01 5.821108015431022409e-01
1.209858526705104298e-01 5.524134447151638483e-01
1.220243578431160075e-01 5.546190664248484836e-01
1.230628630157215853e-01 4.097712382587843649e-01
1.241013681883271630e-01 4.760622970032351020e-01
1.251398733609327130e-01 4.941482155967165113e-01
1.261783785335382768e-01 4.267003742217312379e-01
1.272168837061438684e-01 4.481554311110755862e-01
1.282553888787494045e-01 6.073342279564322155e-01
1.292938940513549961e-01 5.894210484925785920e-01
1.303323992239605600e-01 6.236213674587354205e-01
1.313709043965661516e-01 6.086410568616464900e-01
1.324094095691716877e-01 5.150938801197284533e-01
1.334479147417772793e-01 5.131448881116149607e-01
1.344864199143828432e-01 4.661231657753646118e-01
1.355249250869884070e-01 5.264352272459156268e-01
1.365634302595939709e-01 6.496616038801406035e-01
1.376019354321995347e-01 6.453245648293872705e-01
1.386404406048051263e-01 6.448705572422781529e-01
1.396789457774106624e-01 5.546296571234243800e-01
1.407174509500162540e-01 6.602584001388152046e-01
1.417559561226218179e-01 6.393205857512249679e-01
1.427944612952273817e-01 6.294243593715833640e-01
1.438329664678329456e-01 5.805040962044181185e-01
1.448714716404385372e-01 5.604073340001569647e-01
1.459099768130441011e-01 5.351118053704020383e-01
1.469484819856496649e-01 5.129108010004621576e-01
1.479869871582552288e-01 5.433635560431824274e-01
1.490254923308607926e-01 5.661738832801397336e-01
1.500639975034663842e-01 5.988889556177028339e-01
1.511025026760719481e-01 5.156141154333013787e-01
1.521410078486775119e-01 5.946208372690229282e-01
1.531795130212830758e-01 5.661137646089855480e-01
1.542180181938886396e-01 5.787619282174283342e-01
1.552565233664942035e-01 6.140494870793844484e-01
1.562950285390997951e-01 5.632951268301731318e-01
1.573335337117053589e-01 5.354485428898030364e-01
1.583720388843109228e-01 6.024159224584764161e-01
1.594105440569164867e-01 5.687902670823170581e-01
1.604490492295220783e-01 4.998449764960000152e-01
1.614875544021276144e-01 4.201033047202145099e-01
1.625260595747332060e-01 3.869200123701332927e-01
1.635645647473387698e-01 6.040197144213799163e-01
1.646030699199443337e-01 6.760870079366796404e-01
1.656415750925498975e-01 6.080543080871585460e-01
1.666800802651554614e-01 4.571056702139841832e-01
1.677185854377610530e-01 4.152260460121262042e-01
1.687570906103665891e-01 3.266474927195552880e-01
1.697955957829721807e-01 5.056634372393951082e-01
1.708341009555777446e-01 6.318583549951384271e-01
1.718726061281833362e-01 6.382877709551095791e-01
1.729111113007888723e-01 5.354227161542830515e-01
1.739496164733944639e-01 4.854951502539748276e-01
1.749881216460000277e-01 5.348507011213250451e-01
1.760266268186055916e-01 4.917974725481606413e-01
1.770651319912111554e-01 5.180965460535311706e-01
1.781036371638167193e-01 6.074467766888460574e-01
1.791421423364223109e-01 5.530563907287096015e-01
1.801806475090278470e-01 4.628255006663550830e-01
1.812191526816334386e-01 5.227047397245208060e-01
1.822576578542390024e-01 5.502638323194979364e-01
1.832961630268445663e-01 6.111558715525085006e-01
1.843346681994501302e-01 6.240856564042793764e-01
1.853731733720557218e-01 5.952074053628351180e-01
1.864116785446612856e-01 5.336361176053898703e-01
1.874501837172668495e-01 5.483010467326856485e-01
1.884886888898724133e-01 3.972634884428529745e-01
1.895271940624779772e-01 4.540085844201797727e-01
1.905656992350835688e-01 4.541729856419571831e-01
1.916042044076891049e-01 5.301177560536700639e-01
1.926427095802946965e-01 4.522687984601247990e-01
1.936812147529002603e-01 4.088578927348791581e-01
1.947197199255058242e-01 3.854305345657138560e-01
1.957582250981113881e-01 3.840984707967223244e-01
1.967967302707169797e-01 4.104503608725735830e-01
1.978352354433225435e-01 5.604878502415893138e-01
1.988737406159281074e-01 5.411600490334009805e-01
1.999122457885336712e-01 5.285234558836080510e-01
2.009507509611392351e-01 5.503081045616795564e-01
2.019892561337448267e-01 4.023443921602520845e-01
2.030277613063503905e-01 4.405397019473369369e-01
2.040662664789559266e-01 5.878235105182767484e-01
2.051047716515614905e-01 6.803738248149855394e-01
2.061432768241670821e-01 5.287313199919374540e-01
2.071817819967726459e-01 4.704640541213969129e-01
2.082202871693782376e-01 5.130578303780239935e-01
2.092587923419838014e-01 5.818475578736403975e-01
2.102972975145893653e-01 5.951893010229021286e-01
2.113358026871949014e-01 5.614615155295794580e-01
2.123743078598004930e-01 4.716940554167514676e-01
2.134128130324060568e-01 5.279022068230005971e-01
2.144513182050116207e-01 4.477083076740200340e-01
2.154898233776172123e-01 4.817438773321143231e-01
2.165283285502227761e-01 4.547074835252580272e-01
2.175668337228283677e-01 5.233373039520543557e-01
2.186053388954338761e-01 5.519020618936067990e-01
2.196438440680394677e-01 5.915058682667968526e-01
2.206823492406450316e-01 5.297798601763616944e-01
2.217208544132506232e-01 5.331303428381204412e-01
2.227593595858561870e-01 5.431534727723033029e-01
2.237978647584617509e-01 5.750947661615910533e-01
2.248363699310673425e-01 5.157106575483574318e-01
2.258748751036728786e-01 4.744411686310847642e-01
2.269133802762784424e-01 4.639144183269579003e-01
2.279518854488840063e-01 5.221280824185576819e-01
2.289903906214895979e-01 6.935377994873839214e-01
2.300288957940951617e-01 6.223424998734152780e-01
2.310674009667007534e-01 4.862384047880254911e-01
2.321059061393063172e-01 4.936226510717993676e-01
2.331444113119118533e-01 5.228149404005968393e-01
2.341829164845174172e-01 4.561924747726706642e-01
2.352214216571230088e-01 4.759231811085875563e-01
2.362599268297285726e-01 5.158813992006052729e-01
2.372984320023341365e-01 5.276756576419678879e-01
2.383369371749397281e-01 5.430511399598998423e-01
2.393754423475452919e-01 5.253096124011555901e-01
2.404139475201508835e-01 5.399131591449268797e-01
2.414524526927563919e-01 5.914234411717131934e-01
2.424909578653619835e-01 5.626719090066103490e-01
2.435294630379675473e-01 4.763990742967720848e-01
2.445679682105731390e-01 4.372078971936623759e-01
2.456064733831787028e-01 4.744015857397805291e-01
2.466449785557842667e-01 4.967455142116889988e-01
2.476834837283898583e-01 5.258276096562184421e-01
2.487219889009953944e-01 5.625000042986982862e-01
2.497604940736009582e-01 5.892281520574158549e-01
2.507989992462065221e-01 5.741096908825795708e-01
2.518375044188120859e-01 5.720426129244202684e-01
2.528760095914177053e-01 5.648158301402830261e-01
2.539145147640232691e-01 5.374864240947516691e-01
2.549530199366288330e-01 4.739975919559675788e-01
2.559915251092343413e-01 5.032976547778602594e-01
2.570300302818399607e-01 5.640095205584074733e-01
2.580685354544455246e-01 5.615955948495034988e-01
2.591070406270510884e-01 4.916012333089128106e-01
2.601455457996566523e-01 5.566665959183936252e-01
2.611840509722622161e-01 5.419415135931977545e-01
2.622225561448678355e-01 4.869340865734628210e-01
2.632610613174733438e-01 5.579774816995772824e-01
2.642995664900789077e-01 4.994493088689608840e-01
2.653380716626844715e-01 5.463544239450790485e-01
2.663765768352900909e-01 4.779725877458496086e-01
2.674150820078956547e-01 5.000632183865434399e-01
2.684535871805012186e-01 5.657706566998754738e-01
2.694920923531067825e-01 5.665401439673090067e-01
2.705305975257123463e-01 5.796759498052530546e-01
2.715691026983179102e-01 5.711969607212701305e-01
2.726076078709234740e-01 5.214952693663157390e-01
2.736461130435290379e-01 4.797225589272571256e-01
2.746846182161346017e-01 5.367521207346044321e-01
2.757231233887402211e-01 5.126289095930083306e-01
2.767616285613457849e-01 5.106440240187168911e-01
2.778001337339512933e-01 5.012366998773671867e-01
2.788386389065568571e-01 5.651887398369694893e-01
2.798771440791624765e-01 5.238876655617055178e-01
2.809156492517680404e-01 5.510227743696560765e-01
2.819541544243736042e-01 5.392583094955227807e-01
2.829926595969791681e-01 6.188232495550636258e-01
2.840311647695847319e-01 5.872957992913967473e-01
2.850696699421902958e-01 5.056681965402489709e-01
2.861081751147958596e-01 5.148219640874458491e-01
2.871466802874014235e-01 5.779567867107395784e-01
2.881851854600069873e-01 5.876311973691699109e-01
2.892236906326126067e-01 6.122971849680354239e-01
2.902621958052181705e-01 4.960017999971171321e-01
2.913007009778237344e-01 5.874208042830453280e-01
2.923392061504292427e-01 5.968672712739611086e-01
2.933777113230348621e-01 5.366578979705600716e-01
2.944162164956404260e-01 5.428058458424764865e-01
2.954547216682459898e-01 7.563439404381107067e-01
2.964932268408515537e-01 6.287870705476983346e-01
2.975317320134571175e-01 5.564013299567101001e-01
2.985702371860627369e-01 6.074346693863503788e-01
2.996087423586683007e-01 5.748972231177411629e-01
3.006472475312738091e-01 4.872146748916428294e-01
3.016857527038794284e-01 4.599382641095388635e-01
3.027242578764849923e-01 5.115037453885129537e-01
3.037627630490905561e-01 5.484582910096627018e-01
3.048012682216961200e-01 5.882875034187939889e-01
3.058397733943016839e-01 5.565142670543252734e-01
3.068782785669073032e-01 5.730949015364927845e-01
3.079167837395128116e-01 5.802900732994409339e-01
3.089552889121183754e-01 5.645467369892891440e-01
3.099937940847239393e-01 5.565909546947693798e-01
3.110322992573295586e-01 5.655651375687646976e-01
3.120708044299351225e-01 5.167890291374028777e-01
3.131093096025406863e-01 5.471913571212425609e-01
3.141478147751462502e-01 5.528944958282195898e-01
3.151863199477518140e-01 5.120479900350858316e-01
3.162248251203573779e-01 5.780168094893163300e-01
3.172633302929629417e-01 6.262620188498289053e-01
3.183018354655685056e-01 5.936209845924835804e-01
3.193403406381740695e-01 5.985509914810371868e-01
3.203788458107796888e-01 5.540922329669157875e-01
3.214173509833852527e-01 5.850572094243631227e-01
3.224558561559907610e-01 6.243490949999639383e-01
3.234943613285963249e-01 6.291386061814598918e-01
3.245328665012019442e-01 5.343528123259346785e-01
3.255713716738075081e-01 4.899726302803841804e-01
3.266098768464130719e-01 5.220970914234257521e-01
3.276483820190186358e-01 6.284208333456078321e-01
3.286868871916241996e-01 6.469452560235744443e-01
3.297253923642297635e-01 6.080808599999123487e-01
3.307638975368353274e-01 6.561358802561336745e-01
3.318024027094408912e-01 6.016871242584116430e-01
3.328409078820464551e-01 5.581650373586910518e-01
3.338794130546520744e-01 4.998133389281065320e-01
3.349179182272576383e-01 4.638128209257992296e-01
3.359564233998632021e-01 5.198146893346127229e-01
3.369949285724687105e-01 5.763080393135808777e-01
3.380334337450743298e-01 5.975141956701790491e-01
3.390719389176798937e-01 5.732138522828940097e-01
3.401104440902854575e-01 5.837411875628291114e-01
3.411489492628910214e-01 5.857332181325034526e-01
3.421874544354965852e-01 5.521942917028717090e-01
3.432259596081022046e-01 4.967608379281855946e-01
3.442644647807077130e-01 5.618144764287578141e-01
3.453029699533132768e-01 5.805011021264192550e-01
3.463414751259188407e-01 5.252822321772292469e-01
3.473799802985244600e-01 5.933870281302340288e-01
3.484184854711300239e-01 6.746065707042916415e-01
3.494569906437355877e-01 6.509600831345849770e-01
3.504954958163411516e-01 5.894733006547063781e-01
3.515340009889467154e-01 5.096659682975861472e-01
3.525725061615522793e-01 5.630956986042789936e-01
3.536110113341578431e-01 6.105316609616302514e-01
3.546495165067634070e-01 6.196133859548069722e-01
3.556880216793689709e-01 6.476349595773172041e-01
3.567265268519745902e-01 6.454453776293505030e-01
3.577650320245801541e-01 6.687182906616051525e-01
3.588035371971856624e-01 5.956762480776518487e-01
3.598420423697912263e-01 5.333299102825428406e-01
3.608805475423968456e-01 6.011724581845818705e-01
3.619190527150024095e-01 5.916188099686863211e-01
3.629575578876079733e-01 5.730492653519121404e-01
3.639960630602135372e-01 5.653511719068902153e-01
3.650345682328191010e-01 5.485850288125106999e-01
3.660730734054246649e-01 5.481470888549679898e-01
3.671115785780302287e-01 5.350781408055382826e-01
3.681500837506357926e-01 5.499946158461170853e-01
3.691885889232413565e-01 5.650012372356876256e-01
3.702270940958469758e-01 5.575575040907061464e-01
3.712655992684525397e-01 6.246983551602234286e-01
3.723041044410581035e-01 5.964515100281921889e-01
3.733426096136636674e-01 5.196939888614728886e-01
3.743811147862692312e-01 5.187247291542362859e-01
3.754196199588747951e-01 5.882321025070460507e-01
3.764581251314803589e-01 6.583465798210283992e-01
3.774966303040859228e-01 6.550367004500934343e-01
3.785351354766914866e-01 6.360938932980957361e-01
3.795736406492971060e-01 5.858619046197119928e-01
3.806121458219026699e-01 6.082950602447034782e-01
3.816506509945081782e-01 6.179116832751567756e-01
3.826891561671137421e-01 6.239180986841326160e-01
3.837276613397193614e-01 6.269055608578639749e-01
3.847661665123249253e-01 5.768983580483784124e-01
3.858046716849304891e-01 5.920157580863190105e-01
3.868431768575360530e-01 6.250247962885353559e-01
3.878816820301416168e-01 6.284898920869750327e-01
3.889201872027471807e-01 5.905430460377409929e-01
3.899586923753527445e-01 5.099038678377176836e-01
3.909971975479583084e-01 6.202729161034419292e-01
3.920357027205638722e-01 6.150865525815554236e-01
3.930742078931694916e-01 5.567277845349600796e-01
3.941127130657750555e-01 4.978311694944608234e-01
3.951512182383806193e-01 5.610030138301631553e-01
3.961897234109861277e-01 5.702050953127759669e-01
3.972282285835917470e-01 6.326950025835884617e-01
3.982667337561973109e-01 6.109980166452473327e-01
3.993052389288028747e-01 6.199299331575076621e-01
4.003437441014084941e-01 5.867374026848750646e-01
4.013822492740140579e-01 6.042309954902016500e-01
4.024207544466196218e-01 5.881053303242680386e-01
4.034592596192252412e-01 5.816699465854746620e-01
4.044977647918308050e-01 6.057338400715899240e-01
4.055362699644363689e-01 6.525306292580879131e-01
4.065747751370419327e-01 6.774280957334184450e-01
4.076132803096474411e-01 6.731598227149007130e-01
4.086517854822530049e-01 6.343185446079608880e-01
4.096902906548585688e-01 5.975010494424459750e-01
4.107287958274641326e-01 6.550730050651942804e-01
4.117673010000697520e-01 6.135250254710200579e-01
4.128058061726753158e-01 5.983830025489567106e-01
4.138443113452808797e-01 5.655434474523168831e-01
4.148828165178864436e-01 5.656188049803567708e-01
4.159213216904920074e-01 5.909621151072883549e-01
4.169598268630976268e-01 6.125791880577153847e-01
4.179983320357031906e-01 6.019219667268984608e-01
4.190368372083087545e-01 5.728401695908722502e-01
4.200753423809143183e-01 5.511945902130683805e-01
4.211138475535198822e-01 5.894253653948950955e-01
4.221523527261253905e-01 6.420422449290263955e-01
4.231908578987309544e-01 6.062787343612825453e-01
4.242293630713365182e-01 6.023875358383214973e-01
4.252678682439421376e-01 5.819935713965058710e-01
4.263063734165477014e-01 5.980678971844710645e-01
4.273448785891532653e-01 5.649195206652031231e-01
4.283833837617588292e-01 5.567868695491675624e-01
4.294218889343643930e-01 5.544237737550012923e-01
4.304603941069700124e-01 5.670215869137535947e-01
4.314988992795755762e-01 6.288152961852944145e-01
4.325374044521811401e-01 5.454591768806302809e-01
4.335759096247867039e-01 5.950441096771896810e-01
4.346144147973922678e-01 5.858811317984979894e-01
4.356529199699978872e-01 5.650296996766002167e-01
4.366914251426033400e-01 6.134969685236555392e-01
4.377299303152089038e-01 6.303399888493999015e-01
4.387684354878145232e-01 5.687890853553838610e-01
4.398069406604200871e-01 5.968054132933637845e-01
4.408454458330256509e-01 6.058294865171518495e-01
4.418839510056312148e-01 5.971178457585786248e-01
4.429224561782367786e-01 6.227000894550904775e-01
4.439609613508423980e-01 6.242938347558606438e-01
