# q (1/Angstrom), Intensity (arb)
2.029070354705860696e-02 1.057195832502019357e+02
2.133125244372399004e-02 8.583675711226936755e+01
2.237180134038937659e-02 7.325815613086547273e+01
2.341235023705475968e-02 6.460733340040599160e+01
2.445289913372014276e-02 5.520706036133404382e+01
2.549344803038552584e-02 4.968435139853991700e+01
2.653399692705091240e-02 4.428096016610349750e+01
2.757454582371629548e-02 3.799305714938581957e+01
2.861509472038167856e-02 3.552873127260195929e+01
2.965564361704706164e-02 3.182780257950655312e+01
3.069619251371244473e-02 2.987066005249329237e+01
3.173674141037782781e-02 2.710089189632371642e+01
3.277729030704321089e-02 2.455003509568185649e+01
3.381783920370859398e-02 2.375082657503782002e+01
3.485838810037397706e-02 2.313244804725648862e+01
3.589893699703936014e-02 2.159790920333305309e+01
3.693948589370474322e-02 2.020354227096650135e+01
3.798003479037012631e-02 2.010616134166073010e+01
3.902058368703550939e-02 1.893486968483164645e+01
4.006113258370089247e-02 1.846876818645383622e+01
4.110168148036627556e-02 1.765823881039439414e+01
4.214223037703165864e-02 1.754844545019148683e+01
4.318277927369704866e-02 1.690206263086524530e+01
4.422332817036243174e-02 1.726340305654263574e+01
4.526387706702781483e-02 1.612759414144451142e+01
4.630442596369319791e-02 1.649563414833323094e+01
4.734497486035858099e-02 1.648437155598493220e+01
4.838552375702396408e-02 1.654761452446404491e+01
4.942607265368934716e-02 1.642138220888313072e+01
5.046662155035473024e-02 1.657915657013263200e+01
5.150717044702011332e-02 1.678870278419336515e+01
5.254771934368549641e-02 1.648368792936841487e+01
5.358826824035087949e-02 1.778108482251560574e+01
5.462881713701626257e-02 1.877197096006203125e+01
5.566936603368164566e-02 1.904521890628423719e+01
5.670991493034702874e-02 2.030881256349762864e+01
5.775046382701241182e-02 2.161539010443734199e+01
5.879101272367779490e-02 2.221433185352371353e+01
5.983156162034317799e-02 2.315375055224076917e+01
6.087211051700856107e-02 2.471480851924331645e+01
6.191265941367394415e-02 2.665557572881617077e+01
6.295320831033933417e-02 2.848015400966880151e+01
6.399375720700471726e-02 3.150575763624172154e+01
6.503430610367010034e-02 3.548978497866472281e+01
6.607485500033548342e-02 3.953861600751588412e+01
6.711540389700086651e-02 4.327285354973302134e+01
6.815595279366624959e-02 4.825545325206813629e+01
6.919650169033163267e-02 5.453244393747819174e+01
7.023705058699701576e-02 6.358046885288992200e+01
7.127759948366239884e-02 7.957412554449766162e+01
7.231814838032778192e-02 1.148034044411070056e+02
7.335869727699316500e-02 1.959330320536693364e+02
7.439924617365854809e-02 3.232385086530717899e+02
7.543979507032393117e-02 4.545517847818545079e+02
7.648034396698931425e-02 6.209075434921846863e+02
7.752089286365469734e-02 9.969554507612989482e+02
7.856144176032008042e-02 1.502188168096987738e+03
7.960199065698546350e-02 1.565632836052070616e+03
8.064253955365084658e-02 1.063361229834059941e+03
8.168308845031622967e-02 6.193896691160003911e+02
8.272363734698161275e-02 4.258012176645843283e+02
8.376418624364699583e-02 3.387560568025207886e+02
8.480473514031239279e-02 2.809922667907346181e+02
8.584528403697777588e-02 2.390680673074961078e+02
8.688583293364315896e-02 2.089557798970665772e+02
8.792638183030854204e-02 1.887789598598274381e+02
8.896693072697392513e-02 1.854852694867432774e+02
9.000747962363930821e-02 1.988230775468998957e+02
9.104802852030469129e-02 2.021835843502420005e+02
9.208857741697007437e-02 1.616420742519877081e+02
9.312912631363545746e-02 9.761319108326381411e+01
9.416967521030084054e-02 5.332055711917533358e+01
9.521022410696622362e-02 3.206891629771854468e+01
9.625077300363160671e-02 2.164413312322126970e+01
9.729132190029698979e-02 1.605174349037571702e+01
9.833187079696237287e-02 1.201037425490192589e+01
9.937241969362775595e-02 9.434002700877172742e+00
1.004129685902931390e-01 7.848981704080642885e+00
1.014535174869585221e-01 6.440246523375311227e+00
1.024940663836239052e-01 5.321564533048139367e+00
1.035346152802892883e-01 4.707354141333940589e+00
1.045751641769546714e-01 4.019568974873415357e+00
1.056157130736200545e-01 3.450032233061374853e+00
1.066562619702854375e-01 3.345854045392449905e+00
1.076968108669508206e-01 3.318644734633657833e+00
1.087373597636162037e-01 2.797700247726787381e+00
1.097779086602815868e-01 2.796251104234226403e+00
1.108184575569469699e-01 2.686060556345204020e+00
1.118590064536123529e-01 2.349981618165148944e+00
1.128995553502777360e-01 2.667403733239982699e+00
1.139401042469431191e-01 2.209494744068077665e+00
1.149806531436085022e-01 2.405490254715630272e+00
1.160212020402738853e-01 2.854616100359802289e+00
1.170617509369392684e-01 2.880830597408024829e+00
1.181022998336046514e-01 3.011027450990827248e+00
1.191428487302700345e-01 2.924520204852139926e+00
1.201833976269354176e-01 3.068037315515780961e+00
1.212239465236008007e-01 3.906242327315684548e+00
1.222644954202661838e-01 4.103821897122760021e+00
1.233050443169315669e-01 4.875128048848687001e+00
1.243455932135969499e-01 6.043923205604446736e+00
1.253861421102623330e-01 8.167745861957591558e+00
1.264266910069277161e-01 1.366729207122994794e+01
1.274672399035930992e-01 2.486172826366949096e+01
1.285077888002584823e-01 3.870222862402226838e+01
1.295483376969238654e-01 4.288010793601394255e+01
1.305888865935892484e-01 3.197292811461046824e+01
1.316294354902546315e-01 1.985959507197135210e+01
1.326699843869200146e-01 1.346738559283002701e+01
1.337105332835853977e-01 1.109525631591134953e+01
1.347510821802507808e-01 1.015330890945834952e+01
1.357916310769161639e-01 9.980932774644575289e+00
1.368321799735815469e-01 1.003275470695227156e+01
1.378727288702469300e-01 1.014834428697423974e+01
1.389132777669123131e-01 1.009363125376930626e+01
1.399538266635776962e-01 1.010240193247524587e+01
1.409943755602430793e-01 9.995870252735176820e+00
1.420349244569084624e-01 1.019667911620473078e+01
1.430754733535738454e-01 1.027821690329037096e+01
1.441160222502392285e-01 1.090104483861954776e+01
1.451565711469046116e-01 1.218407831409232500e+01
1.461971200435699947e-01 1.450433935518010742e+01
1.472376689402353778e-01 1.950331374435812748e+01
1.482782178369007609e-01 3.025180936330518477e+01
1.493187667335661439e-01 5.009665252933032065e+01
1.503593156302315270e-01 7.750880864903648160e+01
1.513998645268969101e-01 9.328944674704240470e+01
1.524404134235622932e-01 8.056397227844530562e+01
1.534809623202276763e-01 5.333980395239019856e+01
1.545215112168930593e-01 3.425651084445581773e+01
1.555620601135584424e-01 2.662956134297876787e+01
1.566026090102238255e-01 2.568368741914050446e+01
1.576431579068892086e-01 2.636030546380565909e+01
1.586837068035545917e-01 2.361445164353131787e+01
1.597242557002199748e-01 1.683837441657284018e+01
1.607648045968853578e-01 1.014261055171061443e+01
1.618053534935507409e-01 6.629124684270749412e+00
1.628459023902161240e-01 4.649441740283535296e+00
1.638864512868815071e-01 3.728786612187622751e+00
1.649270001835468902e-01 3.386879371250586246e+00
1.659675490802122733e-01 2.673897431514131284e+00
1.670080979768776563e-01 2.312422437356779881e+00
1.680486468735430672e-01 2.245545956169486601e+00
1.690891957702084503e-01 2.096692799150620345e+00
1.701297446668738333e-01 1.957387500075764564e+00
1.711702935635392164e-01 1.881734050005395176e+00
1.722108424602045995e-01 1.663648509567757117e+00
1.732513913568699826e-01 1.764212031239154044e+00
1.742919402535353657e-01 1.622221416381012915e+00
1.753324891502007488e-01 1.653450896133822567e+00
1.763730380468661318e-01 1.590941217276906627e+00
1.774135869435315149e-01 1.531075842230112727e+00
1.784541358401968980e-01 1.404544495134388171e+00
1.794946847368622811e-01 1.466586270564352645e+00
1.805352336335276642e-01 1.381528958051532641e+00
1.815757825301930473e-01 1.829388181504658206e+00
1.826163314268584303e-01 1.845732639794633201e+00
1.836568803235238134e-01 1.507472860307100149e+00
1.846974292201891965e-01 1.266721065966969206e+00
1.857379781168545796e-01 1.491046238216302555e+00
1.867785270135199627e-01 1.218605399518928323e+00
1.878190759101853458e-01 9.431390806894341949e-01
1.888596248068507288e-01 8.667132644573989353e-01
1.899001737035161119e-01 7.857501918315890066e-01
1.909407226001814950e-01 9.628604454041678196e-01
1.919812714968468781e-01 6.286349811696823053e-01
1.930218203935122612e-01 8.171983912671336725e-01
1.940623692901776443e-01 8.237184053712560683e-01
1.951029181868430273e-01 8.287171119817919873e-01
1.961434670835084104e-01 1.072009300992537106e+00
1.971840159801737935e-01 1.259315921546747319e+00
1.982245648768391766e-01 1.540757861959349384e+00
1.992651137735045597e-01 1.752616393431075892e+00
2.003056626701699428e-01 2.168282596901789816e+00
2.013462115668353813e-01 2.276928457272660467e+00
2.023867604635007644e-01 2.608937560625609109e+00
2.034273093601661475e-01 3.402920015816334853e+00
2.044678582568315306e-01 3.240217829337296962e+00
2.055084071534969137e-01 2.701925991629700263e+00
2.065489560501622968e-01 2.528927867943899344e+00
2.075895049468276798e-01 1.975625332142438850e+00
2.086300538434930629e-01 1.561162521794418723e+00
2.096706027401584460e-01 1.285171325785707808e+00
2.107111516368238291e-01 1.334673793303355893e+00
2.117517005334892122e-01 1.443661683242311256e+00
2.127922494301545953e-01 1.262527280175063993e+00
2.138327983268199783e-01 1.548617069165235449e+00
2.148733472234853614e-01 1.605322328724884784e+00
2.159138961201507445e-01 1.518046020204256052e+00
2.169544450168161276e-01 1.690927900077280555e+00
2.179949939134815107e-01 1.721840149795426100e+00
2.190355428101468938e-01 2.087510529533837200e+00
2.200760917068122768e-01 2.548081210770682503e+00
2.211166406034776599e-01 3.229457510371787521e+00
2.221571895001430430e-01 4.102967729225547089e+00
2.231977383968084261e-01 5.087145871523532037e+00
2.242382872934738092e-01 5.347122816892895258e+00
2.252788361901391923e-01 4.751479672837909618e+00
2.263193850868045753e-01 4.022867821107421804e+00
2.273599339834699584e-01 3.154719541109649583e+00
2.284004828801353415e-01 2.633226949700848252e+00
2.294410317768007246e-01 2.335127893456395043e+00
2.304815806734661077e-01 2.396273322232580938e+00
2.315221295701314908e-01 2.520740089184297261e+00
2.325626784667968738e-01 2.777976468303780422e+00
2.336032273634622569e-01 3.052355758493344950e+00
2.346437762601276400e-01 3.623581377677361104e+00
2.356843251567930231e-01 4.693987612784056296e+00
2.367248740534584062e-01 5.701178045749603740e+00
2.377654229501237892e-01 5.557709278523446983e+00
2.388059718467891723e-01 4.376576842113664156e+00
2.398465207434545554e-01 3.076171919740058769e+00
2.408870696401199385e-01 2.301188245982473290e+00
2.419276185367853216e-01 1.712473752948824313e+00
2.429681674334507047e-01 1.451771974178171831e+00
2.440087163301160877e-01 1.230936752621964558e+00
2.450492652267814708e-01 1.387322363591426466e+00
2.460898141234468539e-01 1.123102750656329363e+00
2.471303630201122370e-01 1.175284776303765710e+00
2.481709119167776201e-01 1.255915018518379611e+00
2.492114608134430032e-01 1.184320967844623596e+00
2.502520097101083585e-01 9.111424810729715773e-01
2.512925586067737416e-01 6.729940634047544279e-01
2.523331075034391247e-01 7.281315919367585821e-01
2.533736564001045077e-01 6.037270468459290385e-01
2.544142052967698908e-01 4.551698241757655694e-01
2.554547541934352739e-01 8.470886881218504527e-01
2.564953030901006570e-01 1.003754894078529247e+00
2.575358519867660401e-01 9.818411109627156463e-01
2.585764008834314231e-01 8.926050685233519744e-01
2.596169497800968062e-01 8.266803035396783628e-01
2.606574986767621893e-01 6.908267275878934299e-01
2.616980475734275724e-01 6.134350255407099439e-01
2.627385964700929555e-01 7.167465235659200573e-01
2.637791453667583386e-01 6.686948249774111730e-01
2.648196942634237216e-01 6.405739805448575908e-01
2.658602431600891047e-01 4.323266590885737060e-01
2.669007920567544878e-01 3.972398760554156638e-01
2.679413409534198709e-01 4.169151255876073492e-01
2.689818898500852540e-01 5.950140650452446778e-01
2.700224387467506371e-01 6.164667049998442394e-01
2.710629876434160201e-01 7.317013384425656852e-01
2.721035365400814032e-01 7.543004640415027495e-01
2.731440854367467863e-01 6.425961993579605291e-01
2.741846343334121694e-01 5.413334005430101570e-01
2.752251832300775525e-01 6.908667007650350911e-01
2.762657321267429356e-01 7.046398033033973718e-01
2.773062810234083186e-01 4.990798894968833110e-01
2.783468299200737017e-01 6.075666249603735025e-01
2.793873788167390848e-01 5.319514977118480203e-01
2.804279277134044679e-01 3.826986677113133339e-01
2.814684766100698510e-01 4.008219573379605549e-01
2.825090255067352341e-01 5.114186672182121640e-01
2.835495744034006171e-01 5.588173991469851387e-01
2.845901233000660002e-01 5.540725808913542494e-01
2.856306721967313833e-01 6.793240724532694230e-01
2.866712210933967664e-01 6.515859823795011607e-01
2.877117699900621495e-01 6.951357238337507738e-01
2.887523188867275326e-01 1.040825525939514051e+00
2.897928677833929156e-01 1.061665503170072355e+00
2.908334166800582987e-01 8.782513716060122988e-01
2.918739655767236818e-01 7.075991665680589904e-01
2.929145144733890649e-01 6.069169136048913060e-01
2.939550633700544480e-01 7.023633319223527849e-01
2.949956122667198311e-01 9.588448776319751232e-01
2.960361611633852141e-01 9.374804010050539205e-01
2.970767100600505972e-01 1.091935052018495611e+00
2.981172589567159803e-01 1.054263638540238190e+00
2.991578078533813634e-01 1.341306606985774863e+00
3.001983567500468020e-01 1.684962171468502135e+00
3.012389056467121851e-01 1.570598027277988251e+00
3.022794545433775681e-01 1.351886290145248637e+00
3.033200034400429512e-01 1.373781708174323768e+00
3.043605523367083343e-01 1.152477748292824344e+00
3.054011012333737174e-01 9.419333116422166086e-01
3.064416501300391005e-01 8.248014786789887864e-01
3.074821990267044836e-01 8.723040699419328803e-01
3.085227479233698666e-01 6.329714614693813246e-01
3.095632968200352497e-01 6.614465687523534143e-01
3.106038457167006328e-01 7.629540698222712081e-01
3.116443946133660159e-01 6.987362562260379661e-01
3.126849435100313990e-01 8.462306962905508101e-01
3.137254924066967821e-01 8.981593996753751696e-01
3.147660413033621651e-01 6.474065677519256212e-01
3.158065902000275482e-01 6.655122975772300720e-01
3.168471390966929313e-01 4.830363814433376035e-01
3.178876879933583144e-01 7.349278497836984059e-01
3.189282368900236975e-01 8.345260615416698613e-01
3.199687857866890806e-01 6.964779556472571187e-01
3.210093346833544636e-01 7.372230934555084048e-01
3.220498835800198467e-01 8.172622503728490528e-01
3.230904324766852298e-01 9.349593749717222124e-01
3.241309813733506129e-01 1.070997515939819067e+00
3.251715302700159960e-01 1.144714016780049803e+00
3.262120791666813790e-01 1.138745540086624430e+00
3.272526280633467621e-01 1.168883951153652845e+00
3.282931769600121452e-01 8.916117860259582528e-01
3.293337258566775283e-01 9.498767003470405257e-01
3.303742747533429114e-01 7.956260650295163828e-01
3.314148236500082945e-01 6.609868791235271601e-01
3.324553725466736775e-01 6.389711866804645979e-01
3.334959214433390606e-01 6.155536664649545742e-01
3.345364703400044437e-01 5.819665715494046765e-01
3.355770192366698268e-01 3.171538519281220658e-01
3.366175681333352099e-01 4.337626075511913371e-01
3.376581170300005930e-01 4.519173590833105436e-01
3.386986659266659760e-01 3.686655663316358300e-01
3.397392148233313591e-01 3.107067868029780300e-01
3.407797637199967422e-01 5.461342798433399537e-01
3.418203126166621253e-01 7.585402349102388087e-01
3.428608615133275084e-01 5.091638647375162918e-01
3.439014104099928915e-01 3.895235813198389963e-01
3.449419593066582745e-01 4.821273556461029841e-01
3.459825082033236576e-01 4.779312515340308209e-01
3.470230570999890407e-01 5.006148382891595361e-01
3.480636059966544238e-01 3.355502513135384390e-01
3.491041548933198069e-01 2.685320025058999249e-01
3.501447037899851900e-01 3.294380344644913805e-01
3.511852526866505730e-01 2.096207287402265251e-01
3.522258015833159561e-01 1.787970767834856645e-01
3.532663504799813392e-01 3.190045106089378635e-01
3.543068993766467223e-01 4.761409764971169523e-01
3.553474482733121054e-01 5.044395296159045472e-01
3.563879971699774885e-01 4.915550064311560163e-01
3.574285460666428715e-01 4.572803209535294400e-01
3.584690949633082546e-01 4.319398626833468313e-01
3.595096438599736377e-01 4.493487222217211752e-01
3.605501927566390208e-01 4.241193445040210008e-01
3.615907416533044039e-01 3.835162231045892156e-01
3.626312905499697870e-01 5.012014442413779136e-01
3.636718394466351700e-01 5.580715797482476148e-01
3.647123883433005531e-01 4.808837102000822483e-01
3.657529372399659362e-01 3.894817228657458941e-01
3.667934861366313193e-01 2.692191961434389214e-01
3.678340350332967024e-01 4.059827657792247635e-01
3.688745839299620854e-01 4.575140931372700948e-01
3.699151328266274685e-01 5.354049501357565077e-01
3.709556817232928516e-01 7.987987618092446951e-01
3.719962306199582347e-01 6.568719547093522237e-01
3.730367795166236178e-01 5.973905754440487215e-01
3.740773284132890009e-01 7.983429867719671336e-01
3.751178773099543839e-01 6.690691100859815776e-01
3.761584262066197670e-01 5.694077839885096637e-01
3.771989751032851501e-01 5.089117919561907399e-01
3.782395239999505332e-01 5.118372127541910288e-01
3.792800728966159163e-01 3.117662668508529578e-01
3.803206217932812994e-01 2.652523319884672048e-01
3.813611706899466824e-01 5.065481302762044891e-01
3.824017195866120655e-01 5.244010142851642797e-01
3.834422684832774486e-01 3.501692463053025506e-01
3.844828173799428317e-01 6.037505582659292713e-01
3.855233662766082148e-01 7.016161496727733038e-01
3.865639151732735979e-01 5.933403885038792680e-01
3.876044640699389809e-01 6.464002051897956846e-01
3.886450129666043640e-01 6.608669658641517231e-01
3.896855618632697471e-01 6.757902603006940012e-01
3.907261107599351302e-01 6.650419266772544802e-01
3.917666596566005133e-01 6.270602695644420521e-01
3.928072085532658964e-01 5.798560581505434186e-01
3.938477574499312794e-01 7.538113394162699876e-01
3.948883063465966625e-01 8.070544239359378480e-01
3.959288552432620456e-01 9.006592613280979265e-01
3.969694041399274287e-01 8.633205333118390001e-01
3.980099530365928118e-01 6.713708042565222911e-01
3.990505019332581949e-01 6.156762867615022117e-01
4.000910508299235779e-01 6.206532019295352143e-01
4.011315997265889610e-01 3.843047467381808247e-01
4.021721486232543441e-01 3.590097172031114781e-01
4.032126975199197272e-01 2.465253285746342726e-01
4.042532464165851103e-01 4.225767444774355397e-01
4.052937953132504934e-01 3.553853367161003973e-01
4.063343442099158764e-01 4.061366484602508820e-01
4.073748931065812595e-01 4.476610901835655909e-01
4.084154420032466426e-01 4.878858869708651014e-01
4.094559908999120257e-01 4.673932751641238781e-01
4.104965397965774088e-01 4.313790321759931601e-01
4.115370886932427918e-01 4.543434149110119336e-01
4.125776375899081749e-01 5.435176514139001824e-01
4.136181864865735580e-01 4.137306848102468848e-01
4.146587353832389411e-01 4.525919275819205723e-01
4.156992842799043242e-01 5.104930255215300861e-01
4.167398331765697073e-01 4.973971974860944556e-01
4.177803820732350903e-01 4.770737164106115813e-01
4.188209309699004734e-01 5.196586607616602294e-01
4.198614798665658565e-01 6.245992545457355050e-01
4.209020287632312396e-01 5.183809493863584805e-01
4.219425776598966227e-01 3.719436673614282540e-01
4.229831265565620058e-01 3.336030046281024397e-01
4.240236754532273888e-01 3.357616747524545531e-01
4.250642243498927719e-01 3.245901791593617247e-01
4.261047732465581550e-01 2.408692769069631368e-01
4.271453221432235381e-01 2.467704013164677690e-01
4.281858710398889212e-01 3.443915773020691518e-01
4.292264199365543043e-01 3.246909744581429891e-01
4.302669688332196873e-01 2.125723624368980325e-01
4.313075177298850704e-01 2.820823710960027597e-01
4.323480666265504535e-01 3.407812061879376131e-01
4.333886155232158366e-01 2.058309413824730427e-01
4.344291644198812197e-01 1.934392448526196517e-01
