# q (1/Angstrom), Intensity (arb)
2.029070354705860696e-02 9.960149705791212682e+01
2.133125244372399004e-02 8.306577221842852055e+01
2.237180134038937659e-02 7.308099802208383267e+01
2.341235023705475968e-02 6.209794440287598150e+01
2.445289913372014276e-02 5.524621969042874525e+01
2.549344803038552584e-02 4.947979435938245274e+01
2.653399692705091240e-02 4.319918570293907578e+01
2.757454582371629548e-02 3.791310410757843385e+01
2.861509472038167856e-02 3.425881880605109586e+01
2.965564361704706164e-02 3.140072394910016840e+01
3.069619251371244473e-02 2.958114641953622481e+01
3.173674141037782781e-02 2.639171339541628925e+01
3.277729030704321089e-02 2.463044047665731284e+01
3.381783920370859398e-02 2.438601759286763127e+01
3.485838810037397706e-02 2.300906668204563488e+01
3.589893699703936014e-02 2.231377201511499919e+01
3.693948589370474322e-02 2.136917904515994593e+01
3.798003479037012631e-02 2.058481909804472565e+01
3.902058368703550939e-02 1.863797791250821945e+01
4.006113258370089247e-02 1.743012814485919648e+01
4.110168148036627556e-02 1.737856223149087498e+01
4.214223037703165864e-02 1.701119038598412203e+01
4.318277927369704866e-02 1.635316849287654151e+01
4.422332817036243174e-02 1.664821147793591649e+01
4.526387706702781483e-02 1.698877997210250612e+01
4.630442596369319791e-02 1.703227581213084818e+01
4.734497486035858099e-02 1.636200825630709232e+01
4.838552375702396408e-02 1.699058893716823349e+01
4.942607265368934716e-02 1.736642889363655939e+01
5.046662155035473024e-02 1.703558751684243333e+01
5.150717044702011332e-02 1.673800578286010676e+01
5.254771934368549641e-02 1.694748417675126717e+01
5.358826824035087949e-02 1.780616268403461788e+01
5.462881713701626257e-02 1.780126494718397367e+01
5.566936603368164566e-02 1.826865667394199733e+01
5.670991493034702874e-02 1.952412202288416410e+01
5.775046382701241182e-02 2.013696697455328177e+01
5.879101272367779490e-02 2.075965507845426572e+01
5.983156162034317799e-02 2.203267120123644673e+01
6.087211051700856107e-02 2.394450309492439288e+01
6.191265941367394415e-02 2.554345982815777205e+01
6.295320831033933417e-02 2.758746371517937135e+01
6.399375720700471726e-02 2.966156728192517278e+01
6.503430610367010034e-02 3.202997839992185902e+01
6.607485500033548342e-02 3.493625448380262810e+01
6.711540389700086651e-02 3.892434392250804365e+01
6.815595279366624959e-02 4.304993406903498965e+01
6.919650169033163267e-02 4.769389381802638184e+01
7.023705058699701576e-02 5.418854051021995133e+01
7.127759948366239884e-02 6.443587068066369739e+01
7.231814838032778192e-02 8.384112010287880423e+01
7.335869727699316500e-02 1.324672587557942904e+02
7.439924617365854809e-02 2.307291296837203447e+02
7.543979507032393117e-02 3.517656646115232206e+02
7.648034396698931425e-02 4.668528782429086164e+02
7.752089286365469734e-02 6.825776940448766936e+02
7.856144176032008042e-02 1.118053466301047365e+03
7.960199065698546350e-02 1.470874175583185206e+03
8.064253955365084658e-02 1.239085712712206259e+03
8.168308845031622967e-02 7.393347478300366902e+02
8.272363734698161275e-02 4.521329690792614997e+02
8.376418624364699583e-02 3.361703092948205835e+02
8.480473514031239279e-02 2.744726008355905265e+02
8.584528403697777588e-02 2.307607226280172483e+02
8.688583293364315896e-02 1.963704953633396144e+02
8.792638183030854204e-02 1.719064922340461123e+02
8.896693072697392513e-02 1.594146977430805805e+02
9.000747962363930821e-02 1.629425699106341199e+02
9.104802852030469129e-02 1.755586488876230078e+02
9.208857741697007437e-02 1.653757471952241076e+02
9.312912631363545746e-02 1.177723929677564882e+02
9.416967521030084054e-02 6.672757852693857217e+01
9.521022410696622362e-02 3.779162694678699097e+01
9.625077300363160671e-02 2.372735235753763661e+01
9.729132190029698979e-02 1.632122625764467827e+01
9.833187079696237287e-02 1.217329288419086808e+01
9.937241969362775595e-02 9.662858537319447549e+00
1.004129685902931390e-01 8.017271322874652384e+00
1.014535174869585221e-01 6.591535626800791192e+00
1.024940663836239052e-01 5.740077998008377591e+00
1.035346152802892883e-01 5.195096102174630914e+00
1.045751641769546714e-01 4.153976857672695644e+00
1.056157130736200545e-01 3.699296949074717844e+00
1.066562619702854375e-01 3.538421594438940332e+00
1.076968108669508206e-01 3.485395907801809301e+00
1.087373597636162037e-01 2.844810708404015287e+00
1.097779086602815868e-01 3.010766764864225564e+00
1.108184575569469699e-01 2.741889460139205426e+00
1.118590064536123529e-01 2.741646430814348889e+00
1.128995553502777360e-01 2.659583346244705382e+00
1.139401042469431191e-01 2.730824494401780100e+00
1.149806531436085022e-01 2.664616454582141358e+00
1.160212020402738853e-01 2.362480520412081120e+00
1.170617509369392684e-01 2.603530176052753831e+00
1.181022998336046514e-01 2.961736549073862079e+00
1.191428487302700345e-01 3.604064280378800333e+00
1.201833976269354176e-01 3.814854874818042418e+00
1.212239465236008007e-01 3.955632965856818117e+00
1.222644954202661838e-01 4.065330408407366036e+00
1.233050443169315669e-01 4.735285300000214193e+00
1.243455932135969499e-01 5.738575756065536382e+00
1.253861421102623330e-01 6.430313167711947386e+00
1.264266910069277161e-01 9.115518577754215812e+00
1.274672399035930992e-01 1.518283485277319755e+01
1.285077888002584823e-01 2.752140746244343461e+01
1.295483376969238654e-01 4.138562398415129451e+01
1.305888865935892484e-01 4.358885961345961846e+01
1.316294354902546315e-01 3.129773417524032908e+01
1.326699843869200146e-01 1.933217244040056570e+01
1.337105332835853977e-01 1.365510107710228027e+01
1.347510821802507808e-01 1.136894653913214270e+01
1.357916310769161639e-01 1.057018924107672575e+01
1.368321799735815469e-01 1.003077738016356335e+01
1.378727288702469300e-01 9.523875438292520812e+00
1.389132777669123131e-01 9.560301025367795802e+00
1.399538266635776962e-01 9.208561916331461816e+00
1.409943755602430793e-01 9.189086726518670645e+00
1.420349244569084624e-01 9.217389701361870635e+00
1.430754733535738454e-01 9.560240236257651958e+00
1.441160222502392285e-01 9.992897827285140977e+00
1.451565711469046116e-01 1.058467806475886164e+01
1.461971200435699947e-01 1.174146808949518928e+01
1.472376689402353778e-01 1.362347295951898474e+01
1.482782178369007609e-01 1.798930261535794983e+01
1.493187667335661439e-01 2.751303617807595003e+01
1.503593156302315270e-01 4.550899524565650722e+01
1.513998645268969101e-01 7.044810868022807426e+01
1.524404134235622932e-01 8.650128579874512980e+01
1.534809623202276763e-01 7.581730323263467142e+01
1.545215112168930593e-01 5.001737123261472107e+01
1.555620601135584424e-01 3.195811965844062286e+01
1.566026090102238255e-01 2.457350720282215661e+01
1.576431579068892086e-01 2.297224252667574973e+01
1.586837068035545917e-01 2.392459362300544612e+01
1.597242557002199748e-01 2.183090046409314766e+01
1.607648045968853578e-01 1.550473946904623901e+01
1.618053534935507409e-01 9.797502260265378737e+00
1.628459023902161240e-01 6.275349357351878155e+00
1.638864512868815071e-01 4.781289163440238354e+00
1.649270001835468902e-01 4.214942737453409194e+00
1.659675490802122733e-01 3.389146809839008512e+00
1.670080979768776563e-01 2.983212906491786498e+00
1.680486468735430672e-01 2.817044775280834301e+00
1.690891957702084503e-01 2.380689783531231285e+00
1.701297446668738333e-01 2.058065089687321603e+00
1.711702935635392164e-01 2.249374716496788551e+00
1.722108424602045995e-01 2.088675095286578909e+00
1.732513913568699826e-01 2.116278856175078715e+00
1.742919402535353657e-01 1.890748857142298789e+00
1.753324891502007488e-01 2.111802751555838853e+00
1.763730380468661318e-01 1.778087156724115658e+00
1.774135869435315149e-01 1.673677978705981673e+00
1.784541358401968980e-01 1.596626925113728390e+00
1.794946847368622811e-01 1.495673629410710248e+00
1.805352336335276642e-01 1.500570925033219538e+00
1.815757825301930473e-01 1.548386767008476994e+00
1.826163314268584303e-01 1.783313170325783403e+00
1.836568803235238134e-01 1.836601052260412814e+00
1.846974292201891965e-01 1.425349953380216306e+00
1.857379781168545796e-01 1.417119580553841018e+00
1.867785270135199627e-01 1.447689281821922691e+00
1.878190759101853458e-01 1.088176720774406192e+00
1.888596248068507288e-01 1.042428059538305973e+00
1.899001737035161119e-01 1.049994188228247083e+00
1.909407226001814950e-01 1.151851760054480422e+00
1.919812714968468781e-01 1.046790009473326677e+00
1.930218203935122612e-01 1.240789550528674567e+00
1.940623692901776443e-01 1.537548902731352030e+00
1.951029181868430273e-01 1.594452042096961009e+00
1.961434670835084104e-01 1.470972398584621033e+00
1.971840159801737935e-01 1.540133706820988380e+00
1.982245648768391766e-01 1.593964666059100921e+00
1.992651137735045597e-01 2.132932970250529081e+00
2.003056626701699428e-01 2.191206361697737748e+00
2.013462115668353813e-01 2.395596081823093471e+00
2.023867604635007644e-01 2.772305330755401087e+00
2.034273093601661475e-01 3.493661597541098729e+00
2.044678582568315306e-01 4.005659990082666155e+00
2.055084071534969137e-01 3.919321572154260025e+00
2.065489560501622968e-01 3.371895748755118660e+00
2.075895049468276798e-01 2.839658696429314233e+00
2.086300538434930629e-01 2.160483128944179043e+00
2.096706027401584460e-01 1.913394764984914787e+00
2.107111516368238291e-01 1.711269089738074456e+00
2.117517005334892122e-01 1.709438326428813326e+00
2.127922494301545953e-01 1.717725039921894847e+00
2.138327983268199783e-01 1.707192129365182609e+00
2.148733472234853614e-01 1.694123956172955303e+00
2.159138961201507445e-01 1.740023685960935040e+00
2.169544450168161276e-01 1.786515842581131608e+00
2.179949939134815107e-01 2.121373906126716946e+00
2.190355428101468938e-01 2.142342558475387904e+00
2.200760917068122768e-01 2.020194886514623533e+00
2.211166406034776599e-01 2.457817706004263414e+00
2.221571895001430430e-01 2.974726834303670131e+00
2.231977383968084261e-01 3.780952399580076673e+00
2.242382872934738092e-01 4.813317654545901547e+00
2.252788361901391923e-01 5.497190901484184877e+00
2.263193850868045753e-01 5.324393584347891561e+00
2.273599339834699584e-01 4.634826658924907861e+00
2.284004828801353415e-01 3.585568637829240402e+00
2.294410317768007246e-01 2.855465746765634805e+00
2.304815806734661077e-01 2.795280084271777099e+00
2.315221295701314908e-01 2.765113400413969913e+00
2.325626784667968738e-01 2.622622229477443057e+00
2.336032273634622569e-01 2.646333024188034955e+00
2.346437762601276400e-01 2.619797511046073168e+00
2.356843251567930231e-01 3.059629279164997939e+00
2.367248740534584062e-01 3.747915022024553622e+00
2.377654229501237892e-01 4.792627139611358444e+00
2.388059718467891723e-01 5.267912482338992675e+00
2.398465207434545554e-01 4.575357115724028034e+00
2.408870696401199385e-01 3.655397507573159288e+00
2.419276185367853216e-01 2.728986125071408253e+00
2.429681674334507047e-01 1.989499476270857770e+00
2.440087163301160877e-01 1.624610203296629862e+00
2.450492652267814708e-01 1.574476147079561628e+00
2.460898141234468539e-01 1.286579153993997693e+00
2.471303630201122370e-01 1.344466368932529576e+00
2.481709119167776201e-01 1.248854846587050815e+00
2.492114608134430032e-01 1.171516143267400167e+00
2.502520097101083585e-01 1.069689348720224586e+00
2.512925586067737416e-01 1.036191570068957901e+00
2.523331075034391247e-01 8.999566946674875112e-01
2.533736564001045077e-01 8.893091848542731270e-01
2.544142052967698908e-01 1.113234630832060645e+00
2.554547541934352739e-01 9.875059510414665453e-01
2.564953030901006570e-01 1.080554817982982030e+00
2.575358519867660401e-01 1.301875970002939198e+00
2.585764008834314231e-01 1.266164938057546152e+00
2.596169497800968062e-01 9.131065854384026181e-01
2.606574986767621893e-01 9.199682200893199990e-01
2.616980475734275724e-01 9.995027743096720485e-01
2.627385964700929555e-01 1.195742416216479143e+00
2.637791453667583386e-01 9.324573151626047718e-01
2.648196942634237216e-01 6.199139261541724011e-01
2.658602431600891047e-01 6.615243302921030022e-01
2.669007920567544878e-01 7.289637620485187597e-01
2.679413409534198709e-01 7.109923852831556701e-01
2.689818898500852540e-01 7.979723903650928207e-01
2.700224387467506371e-01 8.090296381124169045e-01
2.710629876434160201e-01 5.930317029383225247e-01
2.721035365400814032e-01 7.499301879686228745e-01
2.731440854367467863e-01 7.828569756871495144e-01
2.741846343334121694e-01 8.190618660487167801e-01
2.752251832300775525e-01 8.779338460366652441e-01
2.762657321267429356e-01 8.059994050731980053e-01
2.773062810234083186e-01 7.613857171689986103e-01
2.783468299200737017e-01 6.123768154659110508e-01
2.793873788167390848e-01 5.477186097980180080e-01
2.804279277134044679e-01 4.745825767340008383e-01
2.814684766100698510e-01 5.018010649420041602e-01
2.825090255067352341e-01 6.994842641427254648e-01
2.835495744034006171e-01 7.214867533172011349e-01
2.845901233000660002e-01 6.867099430871412835e-01
2.856306721967313833e-01 7.526980169675248078e-01
2.866712210933967664e-01 7.652576197094411725e-01
2.877117699900621495e-01 8.184494138815203712e-01
2.887523188867275326e-01 7.745002953156259196e-01
2.897928677833929156e-01 7.637963843121653440e-01
2.908334166800582987e-01 1.075195976488881655e+00
2.918739655767236818e-01 9.024487819371636022e-01
2.929145144733890649e-01 9.107841087907395661e-01
2.939550633700544480e-01 9.042489412045959796e-01
2.949956122667198311e-01 8.405855377647455384e-01
2.960361611633852141e-01 1.034642392259407018e+00
2.970767100600505972e-01 1.161395568761786734e+00
2.981172589567159803e-01 1.315968338788984227e+00
2.991578078533813634e-01 1.392366510717440775e+00
3.001983567500468020e-01 1.349751404497968821e+00
3.012389056467121851e-01 1.263643200723919335e+00
3.022794545433775681e-01 1.480220965778510589e+00
3.033200034400429512e-01 1.791288819081632511e+00
3.043605523367083343e-01 1.879851552675098958e+00
3.054011012333737174e-01 1.481014656306751220e+00
3.064416501300391005e-01 1.408607344999609268e+00
3.074821990267044836e-01 1.153208230435954107e+00
3.085227479233698666e-01 9.576683518955313446e-01
3.095632968200352497e-01 9.531632713908670951e-01
3.106038457167006328e-01 7.719148799692732155e-01
3.116443946133660159e-01 7.594929373916059490e-01
3.126849435100313990e-01 9.161998794234555987e-01
3.137254924066967821e-01 9.780497265812400087e-01
3.147660413033621651e-01 8.511389971450711300e-01
3.158065902000275482e-01 8.545801499311167504e-01
3.168471390966929313e-01 8.641898939131245072e-01
3.178876879933583144e-01 1.059460163828678247e+00
3.189282368900236975e-01 9.193980641488508354e-01
3.199687857866890806e-01 7.503262497708540479e-01
3.210093346833544636e-01 8.497598070134451120e-01
3.220498835800198467e-01 9.661872916948404111e-01
3.230904324766852298e-01 6.837461327294356295e-01
3.241309813733506129e-01 6.502494453594707124e-01
3.251715302700159960e-01 8.507211536924650375e-01
3.262120791666813790e-01 1.062555625715120300e+00
3.272526280633467621e-01 1.200439430592140866e+00
3.282931769600121452e-01 1.288881044727197889e+00
3.293337258566775283e-01 1.258847385148904152e+00
3.303742747533429114e-01 1.130247822511055489e+00
3.314148236500082945e-01 1.001767522430672130e+00
3.324553725466736775e-01 8.537119225859619576e-01
3.334959214433390606e-01 9.131365919434522027e-01
3.345364703400044437e-01 9.598735016359469796e-01
3.355770192366698268e-01 6.805945062057681127e-01
3.366175681333352099e-01 7.264228856184082872e-01
3.376581170300005930e-01 9.522285060904351894e-01
3.386986659266659760e-01 7.681114485347606546e-01
3.397392148233313591e-01 6.935893306466525132e-01
3.407797637199967422e-01 7.234395603212853132e-01
3.418203126166621253e-01 5.571901631263855847e-01
3.428608615133275084e-01 4.829538923137128847e-01
3.439014104099928915e-01 6.433948196946914777e-01
3.449419593066582745e-01 4.449441051304035000e-01
3.459825082033236576e-01 4.855766667268817116e-01
3.470230570999890407e-01 5.166419804085222722e-01
3.480636059966544238e-01 6.762498700225556547e-01
3.491041548933198069e-01 9.680428846382049812e-01
3.501447037899851900e-01 9.323604523406174849e-01
3.511852526866505730e-01 7.868835134415057553e-01
3.522258015833159561e-01 6.553334196366265019e-01
3.532663504799813392e-01 6.393178181468250898e-01
3.543068993766467223e-01 5.429441291376519985e-01
3.553474482733121054e-01 4.066695634448009855e-01
3.563879971699774885e-01 4.034749621409972065e-01
3.574285460666428715e-01 6.057904095642427933e-01
3.584690949633082546e-01 5.571837095870684209e-01
3.595096438599736377e-01 6.456421110450172307e-01
3.605501927566390208e-01 5.495265010464898126e-01
3.615907416533044039e-01 3.989573480102883707e-01
3.626312905499697870e-01 3.871893026555497386e-01
3.636718394466351700e-01 5.169929851582111269e-01
3.647123883433005531e-01 7.081258999258075448e-01
3.657529372399659362e-01 6.515330482389956046e-01
3.667934861366313193e-01 5.280933777820102648e-01
3.678340350332967024e-01 4.681157628797407710e-01
3.688745839299620854e-01 3.835874458109458374e-01
3.699151328266274685e-01 5.079521424102182436e-01
3.709556817232928516e-01 6.555541837608238609e-01
3.719962306199582347e-01 7.061133710379188244e-01
3.730367795166236178e-01 6.585127337793963420e-01
3.740773284132890009e-01 6.481875205069407286e-01
3.751178773099543839e-01 3.796523927851787050e-01
3.761584262066197670e-01 5.830841871041307911e-01
3.771989751032851501e-01 6.674212436575679419e-01
3.782395239999505332e-01 8.338809955504977722e-01
3.792800728966159163e-01 8.887155409504110537e-01
3.803206217932812994e-01 8.372220672700549926e-01
3.813611706899466824e-01 7.027900518059873036e-01
3.824017195866120655e-01 5.339214233180626934e-01
3.834422684832774486e-01 6.551860094615413743e-01
3.844828173799428317e-01 6.061616100451914235e-01
3.855233662766082148e-01 7.049969277960386194e-01
3.865639151732735979e-01 6.797562543224628939e-01
3.876044640699389809e-01 8.034601830856509252e-01
3.886450129666043640e-01 6.125248049928053717e-01
3.896855618632697471e-01 5.703305184414055873e-01
3.907261107599351302e-01 6.622692133980123685e-01
3.917666596566005133e-01 5.867101971106478686e-01
3.928072085532658964e-01 7.802836819381546718e-01
3.938477574499312794e-01 8.080887269046250765e-01
3.948883063465966625e-01 7.831523617948157323e-01
3.959288552432620456e-01 8.211749068916134320e-01
3.969694041399274287e-01 4.814818888081049408e-01
3.980099530365928118e-01 4.142585598035388728e-01
3.990505019332581949e-01 5.531948869439879957e-01
4.000910508299235779e-01 7.410099315545934928e-01
4.011315997265889610e-01 7.328251580785867247e-01
4.021721486232543441e-01 7.123169356212528669e-01
4.032126975199197272e-01 7.452834856875369951e-01
4.042532464165851103e-01 6.623133129081679726e-01
4.052937953132504934e-01 5.660878768485382295e-01
4.063343442099158764e-01 4.635965952912997068e-01
4.073748931065812595e-01 5.823618642356755970e-01
4.084154420032466426e-01 5.776034810494223848e-01
4.094559908999120257e-01 4.845877933345974498e-01
4.104965397965774088e-01 6.776411397997250674e-01
4.115370886932427918e-01 6.188078366614178094e-01
4.125776375899081749e-01 4.281435121479226780e-01
4.136181864865735580e-01 4.413509080677648910e-01
4.146587353832389411e-01 4.105638700765439353e-01
4.156992842799043242e-01 4.627167516189167884e-01
4.167398331765697073e-01 6.699457970000395335e-01
4.177803820732350903e-01 5.390842441438330468e-01
4.188209309699004734e-01 5.247755676065430919e-01
4.198614798665658565e-01 4.936103873311346035e-01
4.209020287632312396e-01 3.496321594065037175e-01
4.219425776598966227e-01 3.199221508380958312e-01
4.229831265565620058e-01 3.709817850679328899e-01
4.240236754532273888e-01 3.931268366056386299e-01
4.250642243498927719e-01 3.205518122926207525e-01
4.261047732465581550e-01 3.163096614125926465e-01
4.271453221432235381e-01 3.289430275117162239e-01
4.281858710398889212e-01 3.525705482870620244e-01
4.292264199365543043e-01 3.548068159346406958e-01
4.302669688332196873e-01 2.678020511792880143e-01
4.313075177298850704e-01 2.822564510410003891e-01
4.323480666265504535e-01 2.855182152116242378e-01
4.333886155232158366e-01 5.633268980302155171e-01
4.344291644198812197e-01 6.217196391083490425e-01
