# q (1/Angstrom), Intensity (arb)
2.029070354705860696e-02 1.026281249630300749e+02
2.133125244372399004e-02 8.485500014628036070e+01
2.237180134038937659e-02 7.395498693230572940e+01
2.341235023705475968e-02 6.423845704805606260e+01
2.445289913372014276e-02 5.539186931075323628e+01
2.549344803038552584e-02 4.594561408606607245e+01
2.653399692705091240e-02 3.964216139827547636e+01
2.757454582371629548e-02 3.651704710878313165e+01
2.861509472038167856e-02 3.479402162185081693e+01
2.965564361704706164e-02 3.228405660420342826e+01
3.069619251371244473e-02 2.922168168625884732e+01
3.173674141037782781e-02 2.494532005300084165e+01
3.277729030704321089e-02 2.373229186147462855e+01
3.381783920370859398e-02 2.264310169260483008e+01
3.485838810037397706e-02 2.160225181104856773e+01
3.589893699703936014e-02 2.113025227474037848e+01
3.693948589370474322e-02 1.964868959254805247e+01
3.798003479037012631e-02 1.920841251139861328e+01
3.902058368703550939e-02 1.854135199408212031e+01
4.006113258370089247e-02 1.724517990593184891e+01
4.110168148036627556e-02 1.737252806423331464e+01
4.214223037703165864e-02 1.742898264077602022e+01
4.318277927369704866e-02 1.653130560555362649e+01
4.422332817036243174e-02 1.626331388105128894e+01
4.526387706702781483e-02 1.571882957959775240e+01
4.630442596369319791e-02 1.597124002636603279e+01
4.734497486035858099e-02 1.548537484865187253e+01
4.838552375702396408e-02 1.651001218508354640e+01
4.942607265368934716e-02 1.629913452254702122e+01
5.046662155035473024e-02 1.611007356937145474e+01
5.150717044702011332e-02 1.669743961691505163e+01
5.254771934368549641e-02 1.718094626598396957e+01
5.358826824035087949e-02 1.794139400105945370e+01
5.462881713701626257e-02 1.800394387311347799e+01
5.566936603368164566e-02 1.817260319749366104e+01
5.670991493034702874e-02 1.871852119299369832e+01
5.775046382701241182e-02 1.960781472581210139e+01
5.879101272367779490e-02 1.992151554926395463e+01
5.983156162034317799e-02 2.244255675277990747e+01
6.087211051700856107e-02 2.396564844371771485e+01
6.191265941367394415e-02 2.560988890843171006e+01
6.295320831033933417e-02 2.774743240634592212e+01
6.399375720700471726e-02 3.019465171467476239e+01
6.503430610367010034e-02 3.416635328904564517e+01
6.607485500033548342e-02 3.740112715528447040e+01
6.711540389700086651e-02 4.069355288648114310e+01
6.815595279366624959e-02 4.512083494762913460e+01
6.919650169033163267e-02 5.045189420635492183e+01
7.023705058699701576e-02 5.764687376858492485e+01
7.127759948366239884e-02 6.989596918280632565e+01
7.231814838032778192e-02 9.640568337295860601e+01
7.335869727699316500e-02 1.608034642663329237e+02
7.439924617365854809e-02 2.744293238131764952e+02
7.543979507032393117e-02 4.016874023953905635e+02
7.648034396698931425e-02 5.361025225047434333e+02
7.752089286365469734e-02 8.231315939166945554e+02
7.856144176032008042e-02 1.315624989664944906e+03
7.960199065698546350e-02 1.550163244779508659e+03
8.064253955365084658e-02 1.167818074277039386e+03
8.168308845031622967e-02 6.774973842984586554e+02
8.272363734698161275e-02 4.388758296315427856e+02
8.376418624364699583e-02 3.393346499712413902e+02
8.480473514031239279e-02 2.790111785275041143e+02
8.584528403697777588e-02 2.340931152542003133e+02
8.688583293364315896e-02 2.014216782693168000e+02
8.792638183030854204e-02 1.809147929639511290e+02
8.896693072697392513e-02 1.724310411907092373e+02
9.000747962363930821e-02 1.806004966533066352e+02
9.104802852030469129e-02 1.900371127336210009e+02
9.208857741697007437e-02 1.670352071848507478e+02
9.312912631363545746e-02 1.090911544233401713e+02
9.416967521030084054e-02 5.918430289404886935e+01
9.521022410696622362e-02 3.392456388258507616e+01
9.625077300363160671e-02 2.231998109542212916e+01
9.729132190029698979e-02 1.610607692177237027e+01
9.833187079696237287e-02 1.210395453734152227e+01
9.937241969362775595e-02 9.496863746115131732e+00
1.004129685902931390e-01 8.017883398637859926e+00
1.014535174869585221e-01 6.649183164041076566e+00
1.024940663836239052e-01 5.685537430758678568e+00
1.035346152802892883e-01 4.836920111371476594e+00
1.045751641769546714e-01 3.189719068788701151e+00
1.056157130736200545e-01 2.525742080748141660e+00
1.066562619702854375e-01 2.584087255367251146e+00
1.076968108669508206e-01 2.758523419748978966e+00
1.087373597636162037e-01 2.206181337798458486e+00
1.097779086602815868e-01 2.099853034353856174e+00
1.108184575569469699e-01 2.472221053333402807e+00
1.118590064536123529e-01 2.577944929326292822e+00
1.128995553502777360e-01 2.706151257693271361e+00
1.139401042469431191e-01 2.340213197301903136e+00
1.149806531436085022e-01 2.445451464347527804e+00
1.160212020402738853e-01 2.611740320144299687e+00
1.170617509369392684e-01 2.645048626946540082e+00
1.181022998336046514e-01 2.423968927197758916e+00
1.191428487302700345e-01 3.115103004227378847e+00
1.201833976269354176e-01 3.417101777165598264e+00
1.212239465236008007e-01 3.781338360267138654e+00
1.222644954202661838e-01 3.872918760018947637e+00
1.233050443169315669e-01 4.849652837033719521e+00
1.243455932135969499e-01 5.951366138143271201e+00
1.253861421102623330e-01 7.615763094037276915e+00
1.264266910069277161e-01 1.114154532447749091e+01
1.274672399035930992e-01 1.940993194127169019e+01
1.285077888002584823e-01 3.386244790032817065e+01
1.295483376969238654e-01 4.438653856856959123e+01
1.305888865935892484e-01 3.866995191792469200e+01
1.316294354902546315e-01 2.467051938928689125e+01
1.326699843869200146e-01 1.543309890441320320e+01
1.337105332835853977e-01 1.189288970795979949e+01
1.347510821802507808e-01 1.049262881289342531e+01
1.357916310769161639e-01 9.914646240493400597e+00
1.368321799735815469e-01 9.681639178011540281e+00
1.378727288702469300e-01 9.774291303471120074e+00
1.389132777669123131e-01 9.486683513916403854e+00
1.399538266635776962e-01 9.462007594757110951e+00
1.409943755602430793e-01 9.911355866354867317e+00
1.420349244569084624e-01 1.016538625315387634e+01
1.430754733535738454e-01 1.011069047907621865e+01
1.441160222502392285e-01 1.045605332496171513e+01
1.451565711469046116e-01 1.145206931811230078e+01
1.461971200435699947e-01 1.294820404034082628e+01
1.472376689402353778e-01 1.614883990815211234e+01
1.482782178369007609e-01 2.312357186130378039e+01
1.493187667335661439e-01 3.713008600586960029e+01
1.503593156302315270e-01 6.062699034744332494e+01
1.513998645268969101e-01 8.581800827021621103e+01
1.524404134235622932e-01 8.874931404349652553e+01
1.534809623202276763e-01 6.622391408365278664e+01
1.545215112168930593e-01 4.161444511975373928e+01
1.555620601135584424e-01 2.855785779065918817e+01
1.566026090102238255e-01 2.481861650414381160e+01
1.576431579068892086e-01 2.463618892796512228e+01
1.586837068035545917e-01 2.503620155998543240e+01
1.597242557002199748e-01 2.045721329144446443e+01
1.607648045968853578e-01 1.304760416590042382e+01
1.618053534935507409e-01 7.947552342647494328e+00
1.628459023902161240e-01 5.262999469136119046e+00
1.638864512868815071e-01 4.015173741622739101e+00
1.649270001835468902e-01 3.663209731970873406e+00
1.659675490802122733e-01 3.187293622629230327e+00
1.670080979768776563e-01 2.451276340444191959e+00
1.680486468735430672e-01 2.494908048063795292e+00
1.690891957702084503e-01 2.466046001515692865e+00
1.701297446668738333e-01 2.256049882376512272e+00
1.711702935635392164e-01 1.848700183106085859e+00
1.722108424602045995e-01 1.618448730314074879e+00
1.732513913568699826e-01 1.432269326178786883e+00
1.742919402535353657e-01 1.422267184592673317e+00
1.753324891502007488e-01 1.453667377059009169e+00
1.763730380468661318e-01 1.154294181505349570e+00
1.774135869435315149e-01 1.229140798656704447e+00
1.784541358401968980e-01 1.273004853273860704e+00
1.794946847368622811e-01 1.126819442686404216e+00
1.805352336335276642e-01 1.362960791629017621e+00
1.815757825301930473e-01 1.436960373897402832e+00
1.826163314268584303e-01 1.583623237306252207e+00
1.836568803235238134e-01 1.481612633643607069e+00
1.846974292201891965e-01 1.383715293960538162e+00
1.857379781168545796e-01 1.316486148554382396e+00
1.867785270135199627e-01 1.224641548817942294e+00
1.878190759101853458e-01 1.265521296080976299e+00
1.888596248068507288e-01 1.270278945725031861e+00
1.899001737035161119e-01 1.043230201109000888e+00
1.909407226001814950e-01 9.706391201395447865e-01
1.919812714968468781e-01 9.556399836207702947e-01
1.930218203935122612e-01 8.463018483316346874e-01
1.940623692901776443e-01 9.398803806767261904e-01
1.951029181868430273e-01 1.110156612747438487e+00
1.961434670835084104e-01 9.567967933715664230e-01
1.971840159801737935e-01 9.245906185467163141e-01
1.982245648768391766e-01 1.569547480560821384e+00
1.992651137735045597e-01 2.087729564157353224e+00
2.003056626701699428e-01 2.218442243285892346e+00
2.013462115668353813e-01 2.191856783334031888e+00
2.023867604635007644e-01 2.331337444816284687e+00
2.034273093601661475e-01 3.271347085956215039e+00
2.044678582568315306e-01 3.620130886143737570e+00
2.055084071534969137e-01 3.440509277874674865e+00
2.065489560501622968e-01 3.061617909271689086e+00
2.075895049468276798e-01 2.433726751410180356e+00
2.086300538434930629e-01 2.101533520013678213e+00
2.096706027401584460e-01 2.046454401621335961e+00
2.107111516368238291e-01 1.947483435526905282e+00
2.117517005334892122e-01 1.810175299851973563e+00
2.127922494301545953e-01 1.635508765405091935e+00
2.138327983268199783e-01 1.157889156542250220e+00
2.148733472234853614e-01 1.167498091987763331e+00
2.159138961201507445e-01 1.528092770589918103e+00
2.169544450168161276e-01 1.754724338068200495e+00
2.179949939134815107e-01 1.710529586332047103e+00
2.190355428101468938e-01 1.840464803817944528e+00
2.200760917068122768e-01 2.220278349393176143e+00
2.211166406034776599e-01 2.802647650440004412e+00
2.221571895001430430e-01 3.701720089615161413e+00
2.231977383968084261e-01 4.692699050244108605e+00
2.242382872934738092e-01 5.507173719511314403e+00
2.252788361901391923e-01 5.392718918138374562e+00
2.263193850868045753e-01 4.485354777765600431e+00
2.273599339834699584e-01 3.424716906447006437e+00
2.284004828801353415e-01 2.902459721740633825e+00
2.294410317768007246e-01 2.475132416855480244e+00
2.304815806734661077e-01 2.536047632303578325e+00
2.315221295701314908e-01 2.564801340322752310e+00
2.325626784667968738e-01 2.691027626992376298e+00
2.336032273634622569e-01 2.775220724745441458e+00
2.346437762601276400e-01 3.347734575843265503e+00
2.356843251567930231e-01 3.865931829048808055e+00
2.367248740534584062e-01 4.730563279359156326e+00
2.377654229501237892e-01 5.300491657338941565e+00
2.388059718467891723e-01 4.875242280769544578e+00
2.398465207434545554e-01 4.016825917282556446e+00
2.408870696401199385e-01 2.788826864160796504e+00
2.419276185367853216e-01 1.847723447739756608e+00
2.429681674334507047e-01 1.454187205402089234e+00
2.440087163301160877e-01 1.450071187948999807e+00
2.450492652267814708e-01 1.305108122954784733e+00
2.460898141234468539e-01 1.050129492102552575e+00
2.471303630201122370e-01 9.340041025983971679e-01
2.481709119167776201e-01 1.210373436256823254e+00
2.492114608134430032e-01 9.894726174200449975e-01
2.502520097101083585e-01 9.106145908448510795e-01
2.512925586067737416e-01 8.633262960756056259e-01
2.523331075034391247e-01 7.017725985199163574e-01
2.533736564001045077e-01 4.830215372521635686e-01
2.544142052967698908e-01 5.700914670581589405e-01
2.554547541934352739e-01 9.602891455717177394e-01
2.564953030901006570e-01 1.076773634919344858e+00
2.575358519867660401e-01 1.079473204610760462e+00
2.585764008834314231e-01 9.891489988440298475e-01
2.596169497800968062e-01 7.283330528205098631e-01
2.606574986767621893e-01 9.112984679343902883e-01
2.616980475734275724e-01 7.525759544775674215e-01
2.627385964700929555e-01 6.781266164874253377e-01
2.637791453667583386e-01 6.009107869412204650e-01
2.648196942634237216e-01 6.283117185825624063e-01
2.658602431600891047e-01 4.107321478482113264e-01
2.669007920567544878e-01 4.342595677060927528e-01
2.679413409534198709e-01 5.856230499910388687e-01
2.689818898500852540e-01 5.497260762224733810e-01
2.700224387467506371e-01 5.098843889525603856e-01
2.710629876434160201e-01 5.067493937504146118e-01
2.721035365400814032e-01 5.705995131443266644e-01
2.731440854367467863e-01 3.602054761008517403e-01
2.741846343334121694e-01 3.059219056756568023e-01
2.752251832300775525e-01 5.694786611161610779e-01
2.762657321267429356e-01 5.846872692355518097e-01
2.773062810234083186e-01 4.608089560101760185e-01
2.783468299200737017e-01 5.693975786432048380e-01
2.793873788167390848e-01 4.313661353980116075e-01
2.804279277134044679e-01 5.030330538709044674e-01
2.814684766100698510e-01 6.873370919740970919e-01
2.825090255067352341e-01 8.607213882702247076e-01
2.835495744034006171e-01 6.351761812422509479e-01
2.845901233000660002e-01 5.541589259111177057e-01
2.856306721967313833e-01 4.293544594738030185e-01
2.866712210933967664e-01 6.810006007379811876e-01
2.877117699900621495e-01 9.507758041627489831e-01
2.887523188867275326e-01 6.363120962629409405e-01
2.897928677833929156e-01 6.324247515213130555e-01
2.908334166800582987e-01 6.635194466934883906e-01
2.918739655767236818e-01 9.729167964988576500e-01
2.929145144733890649e-01 9.742931659836280289e-01
2.939550633700544480e-01 9.052740475144709364e-01
2.949956122667198311e-01 9.755273205653800517e-01
2.960361611633852141e-01 8.829572324359773461e-01
2.970767100600505972e-01 9.280610142156326958e-01
2.981172589567159803e-01 1.099345945581209349e+00
2.991578078533813634e-01 1.805824875561611975e+00
3.001983567500468020e-01 1.809824892872008206e+00
3.012389056467121851e-01 1.329120990504442545e+00
3.022794545433775681e-01 1.335949044272709330e+00
3.033200034400429512e-01 1.298035761327245297e+00
3.043605523367083343e-01 1.162683262246101634e+00
3.054011012333737174e-01 9.755579328429178076e-01
3.064416501300391005e-01 8.748073650958758662e-01
3.074821990267044836e-01 1.030067339765086132e+00
3.085227479233698666e-01 8.690587113486820670e-01
3.095632968200352497e-01 7.852504979990406753e-01
3.106038457167006328e-01 5.895892037571250910e-01
3.116443946133660159e-01 5.229198321457388943e-01
3.126849435100313990e-01 6.583965059713179357e-01
3.137254924066967821e-01 5.276978140390902183e-01
3.147660413033621651e-01 5.135244581365050465e-01
3.158065902000275482e-01 6.629278591473379834e-01
3.168471390966929313e-01 5.438101712376024466e-01
3.178876879933583144e-01 6.604653173691943380e-01
3.189282368900236975e-01 6.043800123081908282e-01
3.199687857866890806e-01 8.333226378696387826e-01
3.210093346833544636e-01 8.513405066410868471e-01
3.220498835800198467e-01 7.502210263804123258e-01
3.230904324766852298e-01 5.962185882836585904e-01
3.241309813733506129e-01 6.928469242578110254e-01
3.251715302700159960e-01 1.053879732354012333e+00
3.262120791666813790e-01 1.282229343043059799e+00
3.272526280633467621e-01 1.202818309666348284e+00
3.282931769600121452e-01 1.169359843615076500e+00
3.293337258566775283e-01 1.417554154577576497e+00
3.303742747533429114e-01 1.115042553297406869e+00
3.314148236500082945e-01 7.410242471329233638e-01
3.324553725466736775e-01 8.510543153333358646e-01
3.334959214433390606e-01 7.979627885229199080e-01
3.345364703400044437e-01 7.126266795611577720e-01
3.355770192366698268e-01 4.514727151237138969e-01
3.366175681333352099e-01 5.786118606928916108e-01
3.376581170300005930e-01 6.509131072078062630e-01
3.386986659266659760e-01 6.776541194710645755e-01
3.397392148233313591e-01 6.921685105229045121e-01
3.407797637199967422e-01 7.257990756678829314e-01
3.418203126166621253e-01 7.287776067947682179e-01
3.428608615133275084e-01 6.733287621063652750e-01
3.439014104099928915e-01 6.155308793860747585e-01
3.449419593066582745e-01 5.818979823346701608e-01
3.459825082033236576e-01 5.284903737574637717e-01
3.470230570999890407e-01 4.176632130186170855e-01
3.480636059966544238e-01 4.817048488821242813e-01
3.491041548933198069e-01 3.487307345369288214e-01
3.501447037899851900e-01 2.048233507439860546e-01
3.511852526866505730e-01 3.681629218120434643e-01
3.522258015833159561e-01 3.921021874817540720e-01
3.532663504799813392e-01 5.508479963262686852e-01
3.543068993766467223e-01 5.350406112255399194e-01
3.553474482733121054e-01 3.064539688844050147e-01
3.563879971699774885e-01 3.780728408641280680e-01
3.574285460666428715e-01 5.675079433488114944e-01
3.584690949633082546e-01 4.124588629980578958e-01
3.595096438599736377e-01 2.985252892206951003e-01
3.605501927566390208e-01 4.262156077264300791e-01
3.615907416533044039e-01 4.396796626841350530e-01
3.626312905499697870e-01 3.042001039829678177e-01
3.636718394466351700e-01 2.883567280707985958e-01
3.647123883433005531e-01 3.334524409111239152e-01
3.657529372399659362e-01 4.240006998421321782e-01
3.667934861366313193e-01 4.984984668698011490e-01
3.678340350332967024e-01 4.458386114871331074e-01
3.688745839299620854e-01 4.700186552100760196e-01
3.699151328266274685e-01 5.784127109279850742e-01
3.709556817232928516e-01 3.548592186132530912e-01
3.719962306199582347e-01 3.293307839480270616e-01
3.730367795166236178e-01 3.112955830121464373e-01
3.740773284132890009e-01 4.127692029571967680e-01
3.751178773099543839e-01 6.219767754444589514e-01
3.761584262066197670e-01 5.953121820930142860e-01
3.771989751032851501e-01 6.468763843209153208e-01
3.782395239999505332e-01 6.341291204963575012e-01
3.792800728966159163e-01 4.946838569975540167e-01
3.803206217932812994e-01 6.388198694122841914e-01
3.813611706899466824e-01 7.144589748702045995e-01
3.824017195866120655e-01 4.473939919992169223e-01
3.834422684832774486e-01 5.462907541741586215e-01
3.844828173799428317e-01 6.324313041224378651e-01
3.855233662766082148e-01 6.007970499934032205e-01
3.865639151732735979e-01 3.789185361874096714e-01
3.876044640699389809e-01 4.440677484062831581e-01
3.886450129666043640e-01 5.273343327444663942e-01
3.896855618632697471e-01 5.226750765660490572e-01
3.907261107599351302e-01 5.336783213921485469e-01
3.917666596566005133e-01 5.273587756693594031e-01
3.928072085532658964e-01 4.091663927308211157e-01
3.938477574499312794e-01 7.175712779343754733e-01
3.948883063465966625e-01 8.163213253043188899e-01
3.959288552432620456e-01 7.711613816340481264e-01
3.969694041399274287e-01 7.452552048365959081e-01
3.980099530365928118e-01 5.426833695253314716e-01
3.990505019332581949e-01 8.929869148460696238e-01
4.000910508299235779e-01 9.536697601269743529e-01
4.011315997265889610e-01 6.642485253852967730e-01
4.021721486232543441e-01 6.493405408350056973e-01
4.032126975199197272e-01 4.416815531758224722e-01
4.042532464165851103e-01 5.247530055480602584e-01
4.052937953132504934e-01 3.400101652440703504e-01
4.063343442099158764e-01 3.068821777231818260e-01
4.073748931065812595e-01 6.028358766878660902e-01
4.084154420032466426e-01 5.693439229062455809e-01
4.094559908999120257e-01 4.711520456003661650e-01
4.104965397965774088e-01 4.642293852874352922e-01
4.115370886932427918e-01 4.653419380386871751e-01
4.125776375899081749e-01 5.185730633302796377e-01
4.136181864865735580e-01 3.532150974179515401e-01
4.146587353832389411e-01 4.363676563437373090e-01
4.156992842799043242e-01 5.367221990462702763e-01
4.167398331765697073e-01 5.007537433192439380e-01
4.177803820732350903e-01 3.761050401432157742e-01
4.188209309699004734e-01 3.844586337882915927e-01
4.198614798665658565e-01 3.804285704939474044e-01
4.209020287632312396e-01 3.551705585164839363e-01
4.219425776598966227e-01 2.581983008161827797e-01
4.229831265565620058e-01 2.598065777149720645e-01
4.240236754532273888e-01 2.088898357560182717e-01
4.250642243498927719e-01 2.791876205124665944e-01
4.261047732465581550e-01 4.519811050528090846e-01
4.271453221432235381e-01 5.186786164604200167e-01
4.281858710398889212e-01 4.597917428772895221e-01
4.292264199365543043e-01 2.783337713868867525e-01
4.302669688332196873e-01 3.292502691821574956e-01
4.313075177298850704e-01 4.175684046995087328e-01
4.323480666265504535e-01 4.674090885743069634e-01
4.333886155232158366e-01 4.549569774117330212e-01
4.344291644198812197e-01 2.659692146715286754e-01
