# q (1/Angstrom), Intensity (arb)
2.029070354705860696e-02 9.705206658060450309e+01
2.133125244372399004e-02 8.293818409476307352e+01
2.237180134038937659e-02 7.169237451077816559e+01
2.341235023705475968e-02 6.234795181605630887e+01
2.445289913372014276e-02 5.492402507008389989e+01
2.549344803038552584e-02 5.169222010429717784e+01
2.653399692705091240e-02 4.607630040189923193e+01
2.757454582371629548e-02 3.825500312140950143e+01
2.861509472038167856e-02 3.437652516359965205e+01
2.965564361704706164e-02 3.118477010071903521e+01
3.069619251371244473e-02 2.888241425050010491e+01
3.173674141037782781e-02 2.778237564511330504e+01
3.277729030704321089e-02 2.556240355799832287e+01
3.381783920370859398e-02 2.379012229026084668e+01
3.485838810037397706e-02 2.255917257826025946e+01
3.589893699703936014e-02 2.175132472432541419e+01
3.693948589370474322e-02 2.174105650948876445e+01
3.798003479037012631e-02 2.055304966125810751e+01
3.902058368703550939e-02 1.874757613204737794e+01
4.006113258370089247e-02 1.867709849082676499e+01
4.110168148036627556e-02 1.834049535692325605e+01
4.214223037703165864e-02 1.797474202902084528e+01
4.318277927369704866e-02 1.733540443631704164e+01
4.422332817036243174e-02 1.638728041403273039e+01
4.526387706702781483e-02 1.619898959760519119e+01
4.630442596369319791e-02 1.630380969241382161e+01
4.734497486035858099e-02 1.616706366347959545e+01
4.838552375702396408e-02 1.640203174390489238e+01
4.942607265368934716e-02 1.673930638872087684e+01
5.046662155035473024e-02 1.722550103860633186e+01
5.150717044702011332e-02 1.730341036976041735e+01
5.254771934368549641e-02 1.753427630551176364e+01
5.358826824035087949e-02 1.740104479150673455e+01
5.462881713701626257e-02 1.741626301407153576e+01
5.566936603368164566e-02 1.838485751852552852e+01
5.670991493034702874e-02 1.980790053059057598e+01
5.775046382701241182e-02 2.025648410465908000e+01
5.879101272367779490e-02 2.086798622541077819e+01
5.983156162034317799e-02 2.218361050259701273e+01
6.087211051700856107e-02 2.425176231284662620e+01
6.191265941367394415e-02 2.559771301373790209e+01
6.295320831033933417e-02 2.754676140554855834e+01
6.399375720700471726e-02 3.012718382743554102e+01
6.503430610367010034e-02 3.338785037438624670e+01
6.607485500033548342e-02 3.672600025503583510e+01
6.711540389700086651e-02 4.090590904757587509e+01
6.815595279366624959e-02 4.480180162291776469e+01
6.919650169033163267e-02 5.031793621955932139e+01
7.023705058699701576e-02 5.736448045933377671e+01
7.127759948366239884e-02 6.870040752629863334e+01
7.231814838032778192e-02 9.283477992570513493e+01
7.335869727699316500e-02 1.528218566670997518e+02
7.439924617365854809e-02 2.636266872257693308e+02
7.543979507032393117e-02 3.883426975478540157e+02
7.648034396698931425e-02 5.152272757994633139e+02
7.752089286365469734e-02 7.836233851320781696e+02
7.856144176032008042e-02 1.262285084280680167e+03
7.960199065698546350e-02 1.537351310827859379e+03
8.064253955365084658e-02 1.196015270917526777e+03
8.168308845031622967e-02 6.983973682509883929e+02
8.272363734698161275e-02 4.457509324942634521e+02
8.376418624364699583e-02 3.402611775789704893e+02
8.480473514031239279e-02 2.786850272807322995e+02
8.584528403697777588e-02 2.355201841092761583e+02
8.688583293364315896e-02 2.029392968928706864e+02
8.792638183030854204e-02 1.786519372710179709e+02
8.896693072697392513e-02 1.694089747664776553e+02
9.000747962363930821e-02 1.761968604198162609e+02
9.104802852030469129e-02 1.874782599718169251e+02
9.208857741697007437e-02 1.685524228420337920e+02
9.312912631363545746e-02 1.132255774596477522e+02
9.416967521030084054e-02 6.258453221643542719e+01
9.521022410696622362e-02 3.618320912292540470e+01
9.625077300363160671e-02 2.347486620329111062e+01
9.729132190029698979e-02 1.679033902036187698e+01
9.833187079696237287e-02 1.274242657427352299e+01
9.937241969362775595e-02 9.973951117572728009e+00
1.004129685902931390e-01 8.242853779406352999e+00
1.014535174869585221e-01 6.699349167015522966e+00
1.024940663836239052e-01 5.477028157768945249e+00
1.035346152802892883e-01 5.032709335340250334e+00
1.045751641769546714e-01 4.710801530811060900e+00
1.056157130736200545e-01 4.125866943994179081e+00
1.066562619702854375e-01 3.623776080588818616e+00
1.076968108669508206e-01 3.214379931215148645e+00
1.087373597636162037e-01 2.613450578101520705e+00
1.097779086602815868e-01 2.331244400846461673e+00
1.108184575569469699e-01 2.444588235623079697e+00
1.118590064536123529e-01 2.790083454104404836e+00
1.128995553502777360e-01 2.426747087263990466e+00
1.139401042469431191e-01 2.560148968796248425e+00
1.149806531436085022e-01 2.911196035032272533e+00
1.160212020402738853e-01 3.017584659365951438e+00
1.170617509369392684e-01 3.261034241784450671e+00
1.181022998336046514e-01 3.115744834636387850e+00
1.191428487302700345e-01 3.478007743696565512e+00
1.201833976269354176e-01 3.360258945725657753e+00
1.212239465236008007e-01 3.699931894228370766e+00
1.222644954202661838e-01 3.877063515398898375e+00
1.233050443169315669e-01 4.852540729827850896e+00
1.243455932135969499e-01 6.320710919229483693e+00
1.253861421102623330e-01 7.666377151006511070e+00
1.264266910069277161e-01 1.092052121927253694e+01
1.274672399035930992e-01 1.825067495712931986e+01
1.285077888002584823e-01 3.199948788861172488e+01
1.295483376969238654e-01 4.436468619252384826e+01
1.305888865935892484e-01 4.048446889587586384e+01
1.316294354902546315e-01 2.706738835857441927e+01
1.326699843869200146e-01 1.733157844154840532e+01
1.337105332835853977e-01 1.308568580973904716e+01
1.347510821802507808e-01 1.136616079395039236e+01
1.357916310769161639e-01 1.030978827321737512e+01
1.368321799735815469e-01 9.661391243450317745e+00
1.378727288702469300e-01 9.339218661222485451e+00
1.389132777669123131e-01 9.584204785222048883e+00
1.399538266635776962e-01 9.817607402480323486e+00
1.409943755602430793e-01 1.009865816678406603e+01
1.420349244569084624e-01 1.019585693420775385e+01
1.430754733535738454e-01 1.012804754811870467e+01
1.441160222502392285e-01 1.044674751155830705e+01
1.451565711469046116e-01 1.167762300115423812e+01
1.461971200435699947e-01 1.298779361212594452e+01
1.472376689402353778e-01 1.544167694039419203e+01
1.482782178369007609e-01 2.134839332417242375e+01
1.493187667335661439e-01 3.357861686901621567e+01
1.503593156302315270e-01 5.578404521916357339e+01
1.513998645268969101e-01 8.177193595845314178e+01
1.524404134235622932e-01 8.895740764752918039e+01
1.534809623202276763e-01 7.004375582163407898e+01
1.545215112168930593e-01 4.475339103533012519e+01
1.555620601135584424e-01 2.997810644840303951e+01
1.566026090102238255e-01 2.457703016091045356e+01
1.576431579068892086e-01 2.448097643717025562e+01
1.586837068035545917e-01 2.460267283605644195e+01
1.597242557002199748e-01 2.088744017063682534e+01
1.607648045968853578e-01 1.382154007999625023e+01
1.618053534935507409e-01 8.402637568766543552e+00
1.628459023902161240e-01 5.488282800632873659e+00
1.638864512868815071e-01 4.185810696814783682e+00
1.649270001835468902e-01 3.505046439069268160e+00
1.659675490802122733e-01 3.152095743574278686e+00
1.670080979768776563e-01 2.968893169683834543e+00
1.680486468735430672e-01 2.657969326691556944e+00
1.690891957702084503e-01 2.424493367210274641e+00
1.701297446668738333e-01 2.354127128909926370e+00
1.711702935635392164e-01 2.159583306704309535e+00
1.722108424602045995e-01 2.098266326456720066e+00
1.732513913568699826e-01 1.837234615929247639e+00
1.742919402535353657e-01 1.508461960655125722e+00
1.753324891502007488e-01 1.597119912412559017e+00
1.763730380468661318e-01 1.846641446108208129e+00
1.774135869435315149e-01 1.744757759226136073e+00
1.784541358401968980e-01 1.948048722319875026e+00
1.794946847368622811e-01 1.997641725837247861e+00
1.805352336335276642e-01 1.916688858799091122e+00
1.815757825301930473e-01 1.674284480327347779e+00
1.826163314268584303e-01 1.538381461800479855e+00
1.836568803235238134e-01 1.675779555701573997e+00
1.846974292201891965e-01 1.658231863816521212e+00
1.857379781168545796e-01 1.599858151947511686e+00
1.867785270135199627e-01 1.206025194382920773e+00
1.878190759101853458e-01 1.082283134343398956e+00
1.888596248068507288e-01 1.025756887367744952e+00
1.899001737035161119e-01 1.117912137737519629e+00
1.909407226001814950e-01 1.155293959190203168e+00
1.919812714968468781e-01 1.124902650095847889e+00
1.930218203935122612e-01 1.235680461249572204e+00
1.940623692901776443e-01 1.358610397560326533e+00
1.951029181868430273e-01 1.193026448735050593e+00
1.961434670835084104e-01 1.260885801405358109e+00
1.971840159801737935e-01 1.764314663048033083e+00
1.982245648768391766e-01 1.810181024104942082e+00
1.992651137735045597e-01 1.870609389817499135e+00
2.003056626701699428e-01 2.315404682175202566e+00
2.013462115668353813e-01 2.764538391475415580e+00
2.023867604635007644e-01 3.238897469377313598e+00
2.034273093601661475e-01 3.567236893366406036e+00
2.044678582568315306e-01 3.762685904302575324e+00
2.055084071534969137e-01 3.614430380987183611e+00
2.065489560501622968e-01 3.330340249685988852e+00
2.075895049468276798e-01 2.529215692662781123e+00
2.086300538434930629e-01 2.115943902945836896e+00
2.096706027401584460e-01 1.826124408060575632e+00
2.107111516368238291e-01 1.649176998671922689e+00
2.117517005334892122e-01 1.655982625937614472e+00
2.127922494301545953e-01 1.972545052961649503e+00
2.138327983268199783e-01 1.972355949921844598e+00
2.148733472234853614e-01 1.851740547180682483e+00
2.159138961201507445e-01 1.824967535846450772e+00
2.169544450168161276e-01 1.986233775596009110e+00
2.179949939134815107e-01 1.923074295075235085e+00
2.190355428101468938e-01 2.020764557447396470e+00
2.200760917068122768e-01 2.403636464009338169e+00
2.211166406034776599e-01 2.894885820050980385e+00
2.221571895001430430e-01 3.814943164518673768e+00
2.231977383968084261e-01 4.729068631150092017e+00
2.242382872934738092e-01 5.409135394872489400e+00
2.252788361901391923e-01 5.388633221354400149e+00
2.263193850868045753e-01 4.504395703981426635e+00
2.273599339834699584e-01 3.786703944430538371e+00
2.284004828801353415e-01 3.346725992364607549e+00
2.294410317768007246e-01 2.834293186418928912e+00
2.304815806734661077e-01 2.778958051961005538e+00
2.315221295701314908e-01 2.685699638745987272e+00
2.325626784667968738e-01 2.885141805693738348e+00
2.336032273634622569e-01 3.113083262630425452e+00
2.346437762601276400e-01 3.226430380727340008e+00
2.356843251567930231e-01 3.646382205717692671e+00
2.367248740534584062e-01 4.765156516585719260e+00
2.377654229501237892e-01 5.595370871008363167e+00
2.388059718467891723e-01 5.380794675731745969e+00
2.398465207434545554e-01 4.419152300240739351e+00
2.408870696401199385e-01 3.275484795411337302e+00
2.419276185367853216e-01 2.314048508289431538e+00
2.429681674334507047e-01 1.422519332958170679e+00
2.440087163301160877e-01 1.363862816888250507e+00
2.450492652267814708e-01 1.435130333669903280e+00
2.460898141234468539e-01 1.344573667394250549e+00
2.471303630201122370e-01 1.094249216824639603e+00
2.481709119167776201e-01 1.142327337213874472e+00
2.492114608134430032e-01 1.251655716630075688e+00
2.502520097101083585e-01 1.062475331760317943e+00
2.512925586067737416e-01 8.876055963211157973e-01
2.523331075034391247e-01 9.105866235510688966e-01
2.533736564001045077e-01 6.962957822942534847e-01
2.544142052967698908e-01 9.054206675975606800e-01
2.554547541934352739e-01 9.608573038381251763e-01
2.564953030901006570e-01 1.179796900215521305e+00
2.575358519867660401e-01 1.027669712377765165e+00
2.585764008834314231e-01 1.071443381679561213e+00
2.596169497800968062e-01 1.352690071474935252e+00
2.606574986767621893e-01 1.060340984985035817e+00
2.616980475734275724e-01 1.230846313419249327e+00
2.627385964700929555e-01 9.401716707431013731e-01
2.637791453667583386e-01 5.627519598425472225e-01
2.648196942634237216e-01 5.457537797984564065e-01
2.658602431600891047e-01 5.748945821516286969e-01
2.669007920567544878e-01 6.686108283904808047e-01
2.679413409534198709e-01 7.687317762213758954e-01
2.689818898500852540e-01 7.460950502390133465e-01
2.700224387467506371e-01 5.305621844644434759e-01
2.710629876434160201e-01 5.680385220678658698e-01
2.721035365400814032e-01 8.365379549100602219e-01
2.731440854367467863e-01 9.023946513818827952e-01
2.741846343334121694e-01 1.025303642758036204e+00
2.752251832300775525e-01 9.156444139834682971e-01
2.762657321267429356e-01 8.692413503023495025e-01
2.773062810234083186e-01 7.962504837413106884e-01
2.783468299200737017e-01 1.017995665516114201e+00
2.793873788167390848e-01 8.763314772657544438e-01
2.804279277134044679e-01 8.810166929850282713e-01
2.814684766100698510e-01 7.203816764507919856e-01
2.825090255067352341e-01 8.775552938818300674e-01
2.835495744034006171e-01 9.408607411975538071e-01
2.845901233000660002e-01 8.841212936810052270e-01
2.856306721967313833e-01 1.147220840914311424e+00
2.866712210933967664e-01 1.072900872689515950e+00
2.877117699900621495e-01 1.203790203883283283e+00
2.887523188867275326e-01 1.072082293199102310e+00
2.897928677833929156e-01 1.076911912111775393e+00
2.908334166800582987e-01 1.341057182397960901e+00
2.918739655767236818e-01 1.217278609967756609e+00
2.929145144733890649e-01 1.182718378003119852e+00
2.939550633700544480e-01 1.135220349173238219e+00
2.949956122667198311e-01 1.252241390238328478e+00
2.960361611633852141e-01 1.253284028878301370e+00
2.970767100600505972e-01 1.315100420256619884e+00
2.981172589567159803e-01 1.551555434541427303e+00
2.991578078533813634e-01 1.452546218205533535e+00
3.001983567500468020e-01 1.473973210265715039e+00
3.012389056467121851e-01 1.604187265873751045e+00
3.022794545433775681e-01 1.601225376346341989e+00
3.033200034400429512e-01 1.683487808876851233e+00
3.043605523367083343e-01 1.693090415562174655e+00
3.054011012333737174e-01 1.617209880674717937e+00
3.064416501300391005e-01 1.361939064359109608e+00
3.074821990267044836e-01 1.130074690772325141e+00
3.085227479233698666e-01 1.090192200351939533e+00
3.095632968200352497e-01 1.102180694730716226e+00
3.106038457167006328e-01 8.827585008399836397e-01
3.116443946133660159e-01 8.267917229628203302e-01
3.126849435100313990e-01 7.991028270008904144e-01
3.137254924066967821e-01 8.309374511620895021e-01
3.147660413033621651e-01 7.346505675449570560e-01
3.158065902000275482e-01 7.141542905972819710e-01
3.168471390966929313e-01 8.037214704029338463e-01
3.178876879933583144e-01 9.556344424164109341e-01
3.189282368900236975e-01 1.177795261707185404e+00
3.199687857866890806e-01 1.091304301214449879e+00
3.210093346833544636e-01 8.193442326824502686e-01
3.220498835800198467e-01 9.688788100207865739e-01
3.230904324766852298e-01 9.756206045990296616e-01
3.241309813733506129e-01 9.138862557338072179e-01
3.251715302700159960e-01 1.162739028462354440e+00
3.262120791666813790e-01 1.170963061344636458e+00
3.272526280633467621e-01 9.667678384557554239e-01
3.282931769600121452e-01 1.135747649802734571e+00
3.293337258566775283e-01 1.273484529778663443e+00
3.303742747533429114e-01 1.267025299735951904e+00
3.314148236500082945e-01 1.062287569893385353e+00
3.324553725466736775e-01 1.034467959277836968e+00
3.334959214433390606e-01 7.352861009077997778e-01
3.345364703400044437e-01 7.920349209777448607e-01
3.355770192366698268e-01 8.373270460855088970e-01
3.366175681333352099e-01 9.565327633757263470e-01
3.376581170300005930e-01 9.214264132154212916e-01
3.386986659266659760e-01 7.093975459875281331e-01
3.397392148233313591e-01 5.792489424835807199e-01
3.407797637199967422e-01 5.011214685298064353e-01
3.418203126166621253e-01 4.824502738476326158e-01
3.428608615133275084e-01 6.025709385140523011e-01
3.439014104099928915e-01 5.892179495940297329e-01
3.449419593066582745e-01 5.481243939811335508e-01
3.459825082033236576e-01 5.319846760774247230e-01
3.470230570999890407e-01 5.621134496468194186e-01
3.480636059966544238e-01 6.547257742568000083e-01
3.491041548933198069e-01 6.396011301875148547e-01
3.501447037899851900e-01 4.684533457447592752e-01
3.511852526866505730e-01 5.368536169813005188e-01
3.522258015833159561e-01 3.478438166045627611e-01
3.532663504799813392e-01 5.279237282579956059e-01
3.543068993766467223e-01 6.833418986638832848e-01
3.553474482733121054e-01 5.513817254706303572e-01
3.563879971699774885e-01 5.231254972582100038e-01
3.574285460666428715e-01 6.529339585235760524e-01
3.584690949633082546e-01 5.765241239154761388e-01
3.595096438599736377e-01 6.484272477049017880e-01
3.605501927566390208e-01 6.543344937686299545e-01
3.615907416533044039e-01 6.271773644040017359e-01
3.626312905499697870e-01 4.828313822130247956e-01
3.636718394466351700e-01 4.684599400493922872e-01
3.647123883433005531e-01 5.246225659246022133e-01
3.657529372399659362e-01 6.545105851859709389e-01
3.667934861366313193e-01 7.573197225305960956e-01
3.678340350332967024e-01 8.157225844439004447e-01
3.688745839299620854e-01 8.070103690657148832e-01
3.699151328266274685e-01 9.890248714551930220e-01
3.709556817232928516e-01 9.522391879179110674e-01
3.719962306199582347e-01 9.899071570390454156e-01
3.730367795166236178e-01 9.389195143621336115e-01
3.740773284132890009e-01 9.144439807313844426e-01
3.751178773099543839e-01 7.737525076802143076e-01
3.761584262066197670e-01 6.513280674951325011e-01
3.771989751032851501e-01 6.769076296355365230e-01
3.782395239999505332e-01 7.479721003572201710e-01
3.792800728966159163e-01 7.422622018017932533e-01
3.803206217932812994e-01 7.582026863511899251e-01
3.813611706899466824e-01 5.871674920205762760e-01
3.824017195866120655e-01 5.600141611924307483e-01
3.834422684832774486e-01 6.946154346158159854e-01
3.844828173799428317e-01 7.634735255956606181e-01
3.855233662766082148e-01 8.483241176073690326e-01
3.865639151732735979e-01 7.980089352370285383e-01
3.876044640699389809e-01 7.708393101803032721e-01
3.886450129666043640e-01 8.055124105670863344e-01
3.896855618632697471e-01 7.611674742089178380e-01
3.907261107599351302e-01 8.007038106640322894e-01
3.917666596566005133e-01 6.643246423385456012e-01
3.928072085532658964e-01 9.453077474972886307e-01
3.938477574499312794e-01 9.915954064877610108e-01
3.948883063465966625e-01 8.692263406376063983e-01
3.959288552432620456e-01 8.190126234901846658e-01
3.969694041399274287e-01 9.045675622391478043e-01
3.980099530365928118e-01 9.126398845486889400e-01
3.990505019332581949e-01 8.803500044848462380e-01
4.000910508299235779e-01 8.381867004953740263e-01
4.011315997265889610e-01 7.521492994927818643e-01
4.021721486232543441e-01 7.400105043946112460e-01
4.032126975199197272e-01 7.648746493393865364e-01
4.042532464165851103e-01 6.982182187703998011e-01
4.052937953132504934e-01 5.114297650905186288e-01
4.063343442099158764e-01 4.225300677292089802e-01
4.073748931065812595e-01 4.853759237780721492e-01
4.084154420032466426e-01 6.388595213040986209e-01
4.094559908999120257e-01 7.212528954370398537e-01
4.104965397965774088e-01 7.559340046372220456e-01
4.115370886932427918e-01 5.925352385077928830e-01
4.125776375899081749e-01 4.886150021539954480e-01
4.136181864865735580e-01 6.201231655985210978e-01
4.146587353832389411e-01 6.297955329611077957e-01
4.156992842799043242e-01 5.479597944109393381e-01
4.167398331765697073e-01 6.996029849205456230e-01
4.177803820732350903e-01 7.110823919945126192e-01
4.188209309699004734e-01 6.861248469537457595e-01
4.198614798665658565e-01 7.944530861870511274e-01
4.209020287632312396e-01 5.711057726148887070e-01
4.219425776598966227e-01 6.176759981859198945e-01
4.229831265565620058e-01 4.675917374826994433e-01
4.240236754532273888e-01 4.809582166823531679e-01
4.250642243498927719e-01 4.415100156875126913e-01
4.261047732465581550e-01 5.066157212771145169e-01
4.271453221432235381e-01 3.821700416765736463e-01
4.281858710398889212e-01 5.150015542067833962e-01
4.292264199365543043e-01 5.317167563599696223e-01
4.302669688332196873e-01 4.935802781378981763e-01
4.313075177298850704e-01 5.604720125972342260e-01
4.323480666265504535e-01 4.317417017061480067e-01
4.333886155232158366e-01 3.947086711653078339e-01
4.344291644198812197e-01 5.934541867856069075e-01
