# q (1/Angstrom), Intensity (arb)
2.029070354705860696e-02 0.000000000000000000e+00
2.133125244372399004e-02 1.742872185476292302e+00
2.237180134038937659e-02 3.138701184815607448e+00
2.341235023705475968e-02 4.135761453724383863e+00
2.445289913372014276e-02 5.070642705276686257e+00
2.549344803038552584e-02 5.695977950329390360e+00
2.653399692705091240e-02 6.229216079532744033e+00
2.757454582371629548e-02 6.781374071102364454e+00
2.861509472038167856e-02 7.200435645266392015e+00
2.965564361704706164e-02 7.400315915487281515e+00
3.069619251371244473e-02 7.913328362469448152e+00
3.173674141037782781e-02 8.115028924100645469e+00
3.277729030704321089e-02 8.089381555936203227e+00
3.381783920370859398e-02 8.292353760338322388e+00
3.485838810037397706e-02 8.664047179391488385e+00
3.589893699703936014e-02 8.701234017724885916e+00
3.693948589370474322e-02 8.701588214053289860e+00
3.798003479037012631e-02 8.801050884829042076e+00
3.902058368703550939e-02 8.862545232599785550e+00
4.006113258370089247e-02 8.985632048342489853e+00
4.110168148036627556e-02 9.013818386579160347e+00
4.214223037703165864e-02 8.979976409128413550e+00
4.318277927369704866e-02 8.955334636073772003e+00
4.422332817036243174e-02 8.930514425564998859e+00
4.526387706702781483e-02 9.168731099184469713e+00
4.630442596369319791e-02 9.128798049366205092e+00
4.734497486035858099e-02 9.180556995230425343e+00
4.838552375702396408e-02 9.163516668788421526e+00
4.942607265368934716e-02 9.327491326876650390e+00
5.046662155035473024e-02 9.287733247906228229e+00
5.150717044702011332e-02 9.282588763439449053e+00
5.254771934368549641e-02 9.272568682400642359e+00
5.358826824035087949e-02 9.156516166778381205e+00
5.462881713701626257e-02 9.081720116947103350e+00
5.566936603368164566e-02 9.178441987806310820e+00
5.670991493034702874e-02 9.200210236243224315e+00
5.775046382701241182e-02 9.208127635697520574e+00
5.879101272367779490e-02 9.131608542051463218e+00
5.983156162034317799e-02 9.215286335671601492e+00
6.087211051700856107e-02 9.057342617563667986e+00
6.191265941367394415e-02 9.253007180415714572e+00
6.295320831033933417e-02 9.226830092267750416e+00
6.399375720700471726e-02 9.169275614041684008e+00
6.503430610367010034e-02 9.107753835701595690e+00
6.607485500033548342e-02 9.113381590848442571e+00
6.711540389700086651e-02 9.146394173740407751e+00
6.815595279366624959e-02 9.209679090064138762e+00
6.919650169033163267e-02 9.241421248258971488e+00
7.023705058699701576e-02 9.137245193232313767e+00
7.127759948366239884e-02 9.257847770822255740e+00
7.231814838032778192e-02 9.271465928466053441e+00
7.335869727699316500e-02 9.174354992318754398e+00
7.439924617365854809e-02 9.256607542231682473e+00
7.543979507032393117e-02 9.281771650113341821e+00
7.648034396698931425e-02 9.343506454416049323e+00
7.752089286365469734e-02 9.322027615038610548e+00
7.856144176032008042e-02 9.315748518536405953e+00
7.960199065698546350e-02 9.186173736421235247e+00
8.064253955365084658e-02 9.268409286296259708e+00
8.168308845031622967e-02 9.207927091343494297e+00
8.272363734698161275e-02 9.189333860500251916e+00
8.376418624364699583e-02 9.268746122805943344e+00
8.480473514031239279e-02 9.305345983613037220e+00
8.584528403697777588e-02 9.261895326611094603e+00
8.688583293364315896e-02 9.256717829824863131e+00
8.792638183030854204e-02 9.206480415640502457e+00
8.896693072697392513e-02 9.220786323515687499e+00
9.000747962363930821e-02 9.236992449740148103e+00
9.104802852030469129e-02 9.316587683823685850e+00
9.208857741697007437e-02 9.273443914090542251e+00
9.312912631363545746e-02 9.391283368792326058e+00
9.416967521030084054e-02 9.306261726487582209e+00
9.521022410696622362e-02 9.352355410591354001e+00
9.625077300363160671e-02 9.330100557899593028e+00
9.729132190029698979e-02 9.339489744703207919e+00
9.833187079696237287e-02 9.220619541011785714e+00
9.937241969362775595e-02 9.242811653554475981e+00
1.004129685902931390e-01 9.393328949668273253e+00
1.014535174869585221e-01 9.418457550590224159e+00
1.024940663836239052e-01 9.268287061835208007e+00
1.035346152802892883e-01 9.182355004144769239e+00
1.045751641769546714e-01 9.328253133712356870e+00
1.056157130736200545e-01 9.404046085387314236e+00
1.066562619702854375e-01 9.344046181011446350e+00
1.076968108669508206e-01 9.234816424455139838e+00
1.087373597636162037e-01 9.273735759010493851e+00
1.097779086602815868e-01 9.273230347310940758e+00
1.108184575569469699e-01 9.272719360160158075e+00
1.118590064536123529e-01 9.314209204415282883e+00
1.128995553502777360e-01 9.285057950253003511e+00
1.139401042469431191e-01 9.262673718701181613e+00
1.149806531436085022e-01 9.313333164090270344e+00
1.160212020402738853e-01 9.234581591440033321e+00
1.170617509369392684e-01 9.289476999865829754e+00
1.181022998336046514e-01 9.383923241231061141e+00
1.191428487302700345e-01 9.377363335262790756e+00
1.201833976269354176e-01 9.341905897425398564e+00
1.212239465236008007e-01 9.327611099802046724e+00
1.222644954202661838e-01 9.297657238856675832e+00
1.233050443169315669e-01 9.354864361710266252e+00
1.243455932135969499e-01 9.435308905853304395e+00
1.253861421102623330e-01 9.426483914023158661e+00
1.264266910069277161e-01 9.323814280721494541e+00
1.274672399035930992e-01 9.335277291106537589e+00
1.285077888002584823e-01 9.304138715435954055e+00
1.295483376969238654e-01 9.334769616731348307e+00
1.305888865935892484e-01 9.351326985635390443e+00
1.316294354902546315e-01 9.367771140240463978e+00
1.326699843869200146e-01 9.341419668328843073e+00
1.337105332835853977e-01 9.333613666639502426e+00
1.347510821802507808e-01 9.180174037147061483e+00
1.357916310769161639e-01 9.382684678473586004e+00
1.368321799735815469e-01 1.005599302484248803e+01
1.378727288702469300e-01 1.040788225790887367e+01
1.389132777669123131e-01 1.003118830178269150e+01
1.399538266635776962e-01 9.720924863522791171e+00
1.409943755602430793e-01 9.451942112857375733e+00
1.420349244569084624e-01 9.440910185889681117e+00
1.430754733535738454e-01 9.424792515215045796e+00
1.441160222502392285e-01 9.257237711320863482e+00
1.451565711469046116e-01 9.362863295166198085e+00
1.461971200435699947e-01 9.364315389786918686e+00
1.472376689402353778e-01 9.333301202949808584e+00
1.482782178369007609e-01 9.350274119760904057e+00
1.493187667335661439e-01 9.364130708230458566e+00
1.503593156302315270e-01 9.352818933935560963e+00
1.513998645268969101e-01 9.342654722588262572e+00
1.524404134235622932e-01 9.474208827740277172e+00
1.534809623202276763e-01 9.433571751696470997e+00
1.545215112168930593e-01 9.496393445912460152e+00
1.555620601135584424e-01 9.445204155866726126e+00
1.566026090102238255e-01 9.433214506132911126e+00
1.576431579068892086e-01 9.381660398480960339e+00
1.586837068035545917e-01 9.389783335019922461e+00
1.597242557002199748e-01 9.361317007880320062e+00
1.607648045968853578e-01 9.344520520979076039e+00
1.618053534935507409e-01 9.414810848019017797e+00
1.628459023902161240e-01 9.448411800125438020e+00
1.638864512868815071e-01 9.443966236009533333e+00
1.649270001835468902e-01 9.459066358183498835e+00
1.659675490802122733e-01 9.453315215486389533e+00
1.670080979768776563e-01 9.462729048548959909e+00
1.680486468735430672e-01 9.395100835117641935e+00
1.690891957702084503e-01 9.336443821618340522e+00
1.701297446668738333e-01 9.385015542341832884e+00
1.711702935635392164e-01 9.361190773647090069e+00
1.722108424602045995e-01 9.454498935500506462e+00
1.732513913568699826e-01 9.546446239452782478e+00
1.742919402535353657e-01 9.414216337363493281e+00
1.753324891502007488e-01 9.422237581935311468e+00
1.763730380468661318e-01 9.442311979138255040e+00
1.774135869435315149e-01 9.395782092033368116e+00
1.784541358401968980e-01 9.421241655580660179e+00
1.794946847368622811e-01 9.370918012019076926e+00
1.805352336335276642e-01 9.389620828525414353e+00
1.815757825301930473e-01 9.469421660741904390e+00
1.826163314268584303e-01 9.469277559968103830e+00
1.836568803235238134e-01 9.382654129299440982e+00
1.846974292201891965e-01 9.486877975488967607e+00
1.857379781168545796e-01 9.506502956953402972e+00
1.867785270135199627e-01 9.440698299520095205e+00
1.878190759101853458e-01 9.432154158523996301e+00
1.888596248068507288e-01 9.434192908479607453e+00
1.899001737035161119e-01 9.366842494794846985e+00
1.909407226001814950e-01 9.478138158750946118e+00
1.919812714968468781e-01 9.420898363155925992e+00
1.930218203935122612e-01 9.373489932379246881e+00
1.940623692901776443e-01 9.417330106372013176e+00
1.951029181868430273e-01 9.440001083655911174e+00
1.961434670835084104e-01 9.372572785412629059e+00
1.971840159801737935e-01 9.380626509016597225e+00
1.982245648768391766e-01 9.439189473039373723e+00
1.992651137735045597e-01 9.480876339495070582e+00
2.003056626701699428e-01 9.467750837976467437e+00
2.013462115668353813e-01 9.464548900443672252e+00
2.023867604635007644e-01 9.482292895049157622e+00
2.034273093601661475e-01 9.570314156185320442e+00
2.044678582568315306e-01 9.418677564975050487e+00
2.055084071534969137e-01 9.442560469997424377e+00
2.065489560501622968e-01 9.473289403083274607e+00
2.075895049468276798e-01 9.463975964714956390e+00
2.086300538434930629e-01 9.416833401946320237e+00
2.096706027401584460e-01 9.464507590636138445e+00
2.107111516368238291e-01 9.484580695666046779e+00
2.117517005334892122e-01 9.476718182323653039e+00
2.127922494301545953e-01 9.464486618236744420e+00
2.138327983268199783e-01 9.458133005659833614e+00
2.148733472234853614e-01 9.403385202661771913e+00
2.159138961201507445e-01 9.460316989418991795e+00
2.169544450168161276e-01 9.487789991647748167e+00
2.179949939134815107e-01 9.404288596861695382e+00
2.190355428101468938e-01 9.399931249269890543e+00
2.200760917068122768e-01 9.392386553468105248e+00
2.211166406034776599e-01 9.407672799315809797e+00
2.221571895001430430e-01 9.397691665620078183e+00
2.231977383968084261e-01 9.348062286792131914e+00
2.242382872934738092e-01 9.402030741779199730e+00
2.252788361901391923e-01 9.422180876234714120e+00
2.263193850868045753e-01 9.468274790600711199e+00
2.273599339834699584e-01 9.411620696498145477e+00
2.284004828801353415e-01 9.459091036674392328e+00
2.294410317768007246e-01 9.523543644298895217e+00
2.304815806734661077e-01 9.432744986412284760e+00
2.315221295701314908e-01 9.478601237459082895e+00
2.325626784667968738e-01 9.518625383001177553e+00
2.336032273634622569e-01 9.519301522068040811e+00
2.346437762601276400e-01 9.573881326374552359e+00
2.356843251567930231e-01 9.482130511922331806e+00
2.367248740534584062e-01 9.463263490922981802e+00
2.377654229501237892e-01 9.413214056782109651e+00
2.388059718467891723e-01 9.476330142209931751e+00
2.398465207434545554e-01 9.365463132319302275e+00
2.408870696401199385e-01 9.390419578345682083e+00
2.419276185367853216e-01 9.433987349888734997e+00
2.429681674334507047e-01 9.404329680936955427e+00
2.440087163301160877e-01 9.419535347704506734e+00
2.450492652267814708e-01 9.506036173216916296e+00
2.460898141234468539e-01 9.510073399315487563e+00
2.471303630201122370e-01 9.518709342386076244e+00
2.481709119167776201e-01 9.532867714591606756e+00
2.492114608134430032e-01 9.424292778097919765e+00
2.502520097101083585e-01 9.455316337766252133e+00
2.512925586067737416e-01 9.473862743312649215e+00
2.523331075034391247e-01 9.457862904654028569e+00
2.533736564001045077e-01 9.440483835963341619e+00
2.544142052967698908e-01 9.426826951506052765e+00
2.554547541934352739e-01 9.440232648465013199e+00
2.564953030901006570e-01 9.428706227404251905e+00
2.575358519867660401e-01 9.487631796820030772e+00
2.585764008834314231e-01 9.437128505131660461e+00
2.596169497800968062e-01 9.485957719830413026e+00
2.606574986767621893e-01 9.547091949499211694e+00
2.616980475734275724e-01 9.466868603290663486e+00
2.627385964700929555e-01 9.431701282771467021e+00
2.637791453667583386e-01 9.484640349385797364e+00
2.648196942634237216e-01 9.457790720031534093e+00
2.658602431600891047e-01 9.444919641052948123e+00
2.669007920567544878e-01 9.457651310053195814e+00
2.679413409534198709e-01 9.414052626550153846e+00
2.689818898500852540e-01 9.447292793193545535e+00
2.700224387467506371e-01 9.406113537358933741e+00
2.710629876434160201e-01 9.486147004657308202e+00
2.721035365400814032e-01 9.508947859546783121e+00
2.731440854367467863e-01 9.483694828191739035e+00
2.741846343334121694e-01 9.402658206542534813e+00
2.752251832300775525e-01 9.450356110518946195e+00
2.762657321267429356e-01 9.506248098913825828e+00
2.773062810234083186e-01 9.556170613218577969e+00
2.783468299200737017e-01 9.508694784071103356e+00
2.793873788167390848e-01 9.592345552317993906e+00
2.804279277134044679e-01 9.535781459221567502e+00
2.814684766100698510e-01 9.463235042808772590e+00
2.825090255067352341e-01 9.437555002995607012e+00
2.835495744034006171e-01 9.451974771525728514e+00
2.845901233000660002e-01 9.554672538210274624e+00
2.856306721967313833e-01 9.570483519127909844e+00
2.866712210933967664e-01 9.482682761412400296e+00
2.877117699900621495e-01 9.495231606893792531e+00
2.887523188867275326e-01 9.479362661460665862e+00
2.897928677833929156e-01 9.522127260268597126e+00
2.908334166800582987e-01 9.399408890462231270e+00
2.918739655767236818e-01 9.409797260820203846e+00
2.929145144733890649e-01 9.429975027102408092e+00
2.939550633700544480e-01 9.545491278920678724e+00
2.949956122667198311e-01 9.498455463073710803e+00
2.960361611633852141e-01 9.446978164829207714e+00
2.970767100600505972e-01 9.478871341716407883e+00
2.981172589567159803e-01 9.437888135930815992e+00
2.991578078533813634e-01 9.445774550804683756e+00
3.001983567500468020e-01 9.439677581686023444e+00
3.012389056467121851e-01 9.520745916082530513e+00
3.022794545433775681e-01 9.507820790969825353e+00
3.033200034400429512e-01 9.515995295836235712e+00
3.043605523367083343e-01 9.485442033388352456e+00
3.054011012333737174e-01 9.558583626880603035e+00
3.064416501300391005e-01 9.568445424687991974e+00
3.074821990267044836e-01 9.509925725781892325e+00
3.085227479233698666e-01 9.432393139020710748e+00
3.095632968200352497e-01 9.518001556565279131e+00
3.106038457167006328e-01 9.553803896964383924e+00
3.116443946133660159e-01 9.600167427103659890e+00
3.126849435100313990e-01 9.581757990805140679e+00
3.137254924066967821e-01 9.531882093976079773e+00
3.147660413033621651e-01 9.511811017215523023e+00
3.158065902000275482e-01 9.520762095167356165e+00
3.168471390966929313e-01 9.519030053449514028e+00
3.178876879933583144e-01 9.477200734802892157e+00
3.189282368900236975e-01 9.546433434884470159e+00
3.199687857866890806e-01 9.503769639389801682e+00
3.210093346833544636e-01 9.491025254350473617e+00
3.220498835800198467e-01 9.440035816874686958e+00
3.230904324766852298e-01 9.450427945207684033e+00
3.241309813733506129e-01 9.499568361276889306e+00
3.251715302700159960e-01 9.505506432529200467e+00
3.262120791666813790e-01 9.525243578978562553e+00
3.272526280633467621e-01 9.525876439348710534e+00
3.282931769600121452e-01 9.534231251809336172e+00
3.293337258566775283e-01 9.519192462915965436e+00
3.303742747533429114e-01 9.443722002637388258e+00
3.314148236500082945e-01 9.472208592237965519e+00
3.324553725466736775e-01 9.498961076497678846e+00
3.334959214433390606e-01 9.493050844244670827e+00
3.345364703400044437e-01 9.418726971268386094e+00
3.355770192366698268e-01 9.405469266093554381e+00
3.366175681333352099e-01 9.454063597307975186e+00
3.376581170300005930e-01 9.527280764538849311e+00
3.386986659266659760e-01 9.536262222062452665e+00
3.397392148233313591e-01 9.490200950693731485e+00
3.407797637199967422e-01 9.492073155034731258e+00
3.418203126166621253e-01 9.469379861813367327e+00
3.428608615133275084e-01 9.438933412203397211e+00
3.439014104099928915e-01 9.465762852216448309e+00
3.449419593066582745e-01 9.485842505216387721e+00
3.459825082033236576e-01 9.439225748114603576e+00
3.470230570999890407e-01 9.456458964658553512e+00
3.480636059966544238e-01 9.448264471622840333e+00
3.491041548933198069e-01 9.480188080150336205e+00
3.501447037899851900e-01 9.496521405480441658e+00
3.511852526866505730e-01 9.535228795305613403e+00
3.522258015833159561e-01 9.493209978739432842e+00
3.532663504799813392e-01 9.561392800194214558e+00
3.543068993766467223e-01 9.522007087592497143e+00
3.553474482733121054e-01 9.477771489534806193e+00
3.563879971699774885e-01 9.492309953481306906e+00
3.574285460666428715e-01 9.488502470884130346e+00
3.584690949633082546e-01 9.515125612443773306e+00
3.595096438599736377e-01 9.489364398008781620e+00
3.605501927566390208e-01 9.492539247989318696e+00
3.615907416533044039e-01 9.496570096037311615e+00
3.626312905499697870e-01 9.498480968187445583e+00
3.636718394466351700e-01 9.539253379625922236e+00
3.647123883433005531e-01 9.500603358398752363e+00
3.657529372399659362e-01 9.499677459907525545e+00
3.667934861366313193e-01 9.481289366475165181e+00
3.678340350332967024e-01 9.562280920715858556e+00
3.688745839299620854e-01 9.525430427488506879e+00
3.699151328266274685e-01 9.516946372717287161e+00
3.709556817232928516e-01 9.517719057726571563e+00
3.719962306199582347e-01 9.534054771732220601e+00
3.730367795166236178e-01 9.477375874696551961e+00
3.740773284132890009e-01 9.520556971207708941e+00
3.751178773099543839e-01 9.523524071826845017e+00
3.761584262066197670e-01 9.506386443194207558e+00
3.771989751032851501e-01 9.540992036426045431e+00
3.782395239999505332e-01 9.461466250562198255e+00
3.792800728966159163e-01 9.430780785266435373e+00
3.803206217932812994e-01 9.405199539290244104e+00
3.813611706899466824e-01 9.477330756413760326e+00
3.824017195866120655e-01 9.514414091313861732e+00
3.834422684832774486e-01 9.505128422047626202e+00
3.844828173799428317e-01 9.500572459989559349e+00
3.855233662766082148e-01 9.485421465333599755e+00
3.865639151732735979e-01 9.488706980483332387e+00
3.876044640699389809e-01 9.458963003728781516e+00
3.886450129666043640e-01 9.494273930715484866e+00
3.896855618632697471e-01 9.527593743946260574e+00
3.907261107599351302e-01 9.493279164198781928e+00
3.917666596566005133e-01 9.504737697491750126e+00
3.928072085532658964e-01 9.491868495261408967e+00
3.938477574499312794e-01 9.462800007640069566e+00
3.948883063465966625e-01 9.480632899600619723e+00
3.959288552432620456e-01 9.476810845267353400e+00
3.969694041399274287e-01 9.498468098396559256e+00
3.980099530365928118e-01 9.484302444367479268e+00
3.990505019332581949e-01 9.476483726506980787e+00
4.000910508299235779e-01 9.450164468232920001e+00
4.011315997265889610e-01 9.478754702335148608e+00
4.021721486232543441e-01 9.511297982346979651e+00
4.032126975199197272e-01 9.492820968179822572e+00
4.042532464165851103e-01 9.523218230917233740e+00
4.052937953132504934e-01 9.476046000116312484e+00
4.063343442099158764e-01 9.461743537767198120e+00
4.073748931065812595e-01 9.479581959143670744e+00
4.084154420032466426e-01 9.462676962264009006e+00
4.094559908999120257e-01 9.460828651707032577e+00
4.104965397965774088e-01 9.474099632640633928e+00
4.115370886932427918e-01 9.476081822248188402e+00
4.125776375899081749e-01 9.454747944989140507e+00
4.136181864865735580e-01 9.516322343167139763e+00
4.146587353832389411e-01 9.466823468251673646e+00
4.156992842799043242e-01 9.508387965501752248e+00
4.167398331765697073e-01 9.521036580096415847e+00
4.177803820732350903e-01 9.517048786934793725e+00
4.188209309699004734e-01 9.549758007921592906e+00
4.198614798665658565e-01 9.543757710129233018e+00
4.209020287632312396e-01 9.522762569936846333e+00
4.219425776598966227e-01 9.482724652275681620e+00
4.229831265565620058e-01 9.473575830917939200e+00
4.240236754532273888e-01 9.498091234013346096e+00
4.250642243498927719e-01 9.546874512915033861e+00
4.261047732465581550e-01 9.540780053106047376e+00
4.271453221432235381e-01 9.554321568530061981e+00
4.281858710398889212e-01 9.508788434838210790e+00
4.292264199365543043e-01 9.532215986699636545e+00
4.302669688332196873e-01 9.519531168445347191e+00
4.313075177298850704e-01 9.519925813766036526e+00
4.323480666265504535e-01 9.535647026877475341e+00
4.333886155232158366e-01 9.501983617146827044e+00
4.344291644198812197e-01 9.532295970600069168e+00
