# q (1/Angstrom), Intensity (arb)
2.029070354705860696e-02 1.041038760853133454e+02
2.133125244372399004e-02 8.706949378007774953e+01
2.237180134038937659e-02 7.112627699051759578e+01
2.341235023705475968e-02 6.265565200244782318e+01
2.445289913372014276e-02 5.468703826675178448e+01
2.549344803038552584e-02 4.936880563837269165e+01
2.653399692705091240e-02 4.257333526433843929e+01
2.757454582371629548e-02 3.851930545377645387e+01
2.861509472038167856e-02 3.554297386833428618e+01
2.965564361704706164e-02 3.239880414622454907e+01
3.069619251371244473e-02 3.025031201823438209e+01
3.173674141037782781e-02 2.712465342525987921e+01
3.277729030704321089e-02 2.537616420100889059e+01
3.381783920370859398e-02 2.268615105221338268e+01
3.485838810037397706e-02 2.136250050040106885e+01
3.589893699703936014e-02 2.009852773814663607e+01
3.693948589370474322e-02 1.868862524779081014e+01
3.798003479037012631e-02 1.735535063501679076e+01
3.902058368703550939e-02 1.693234275149630008e+01
4.006113258370089247e-02 1.743882726085288937e+01
4.110168148036627556e-02 1.763882695883638263e+01
4.214223037703165864e-02 1.663252620588891517e+01
4.318277927369704866e-02 1.587653789351472255e+01
4.422332817036243174e-02 1.620220547989470816e+01
4.526387706702781483e-02 1.567080950176108445e+01
4.630442596369319791e-02 1.447077106198279495e+01
4.734497486035858099e-02 1.482929153271028611e+01
4.838552375702396408e-02 1.493497009779532192e+01
4.942607265368934716e-02 1.470985121827143871e+01
5.046662155035473024e-02 1.489028264074923413e+01
5.150717044702011332e-02 1.485592216446045910e+01
5.254771934368549641e-02 1.463187165700756509e+01
5.358826824035087949e-02 1.444760943564891420e+01
5.462881713701626257e-02 1.494686215049900824e+01
5.566936603368164566e-02 1.544761869552099398e+01
5.670991493034702874e-02 1.642226334650967345e+01
5.775046382701241182e-02 1.633752416174105804e+01
5.879101272367779490e-02 1.680042641317472629e+01
5.983156162034317799e-02 1.803298934722901947e+01
6.087211051700856107e-02 2.036041815001237865e+01
6.191265941367394415e-02 2.177390844137136128e+01
6.295320831033933417e-02 2.306923271383954699e+01
6.399375720700471726e-02 2.443485223842492360e+01
6.503430610367010034e-02 2.695323568502477940e+01
6.607485500033548342e-02 2.924634767511528111e+01
6.711540389700086651e-02 3.250887979893985857e+01
6.815595279366624959e-02 3.530844796630171345e+01
6.919650169033163267e-02 3.895471827362684536e+01
7.023705058699701576e-02 4.294196245435689008e+01
7.127759948366239884e-02 4.804170089490920503e+01
7.231814838032778192e-02 5.645064258597671625e+01
7.335869727699316500e-02 7.239610567936776420e+01
7.439924617365854809e-02 1.134538575075019935e+02
7.543979507032393117e-02 1.976825313217105702e+02
7.648034396698931425e-02 3.046343337484200902e+02
7.752089286365469734e-02 4.033040054631975977e+02
7.856144176032008042e-02 5.748468195429979914e+02
7.960199065698546350e-02 9.428299310867814711e+02
8.064253955365084658e-02 1.294527958096706243e+03
8.168308845031622967e-02 1.160103319038507607e+03
8.272363734698161275e-02 7.117728010908435863e+02
8.376418624364699583e-02 4.273704849609643475e+02
8.480473514031239279e-02 3.100906884117714526e+02
8.584528403697777588e-02 2.506234920087828755e+02
8.688583293364315896e-02 2.093694963358484529e+02
8.792638183030854204e-02 1.791009242898969092e+02
8.896693072697392513e-02 1.564764969153943355e+02
9.000747962363930821e-02 1.424766841124782957e+02
9.104802852030469129e-02 1.414170844053467135e+02
9.208857741697007437e-02 1.505388498688900540e+02
9.312912631363545746e-02 1.493014998109802320e+02
9.416967521030084054e-02 1.174317010681203044e+02
9.521022410696622362e-02 6.988332973513867330e+01
9.625077300363160671e-02 3.728487806068040555e+01
9.729132190029698979e-02 2.277749687468761408e+01
9.833187079696237287e-02 1.566090258210068953e+01
9.937241969362775595e-02 1.127130730171553097e+01
1.004129685902931390e-01 8.298190667242096197e+00
1.014535174869585221e-01 7.076007395695327773e+00
1.024940663836239052e-01 5.650213646566278669e+00
1.035346152802892883e-01 4.693492845998243013e+00
1.045751641769546714e-01 4.197046542898085875e+00
1.056157130736200545e-01 3.968706671439583999e+00
1.066562619702854375e-01 3.562263324782314555e+00
1.076968108669508206e-01 3.141907768289634362e+00
1.087373597636162037e-01 2.497265879328537608e+00
1.097779086602815868e-01 2.632568560158915716e+00
1.108184575569469699e-01 2.167250508352310590e+00
1.118590064536123529e-01 2.395068501639237013e+00
1.128995553502777360e-01 2.325274599960614808e+00
1.139401042469431191e-01 2.155332074904720230e+00
1.149806531436085022e-01 2.474413155913090634e+00
1.160212020402738853e-01 2.169860046714418900e+00
1.170617509369392684e-01 2.061809724567552848e+00
1.181022998336046514e-01 1.987980790721479707e+00
1.191428487302700345e-01 2.144444520722792902e+00
1.201833976269354176e-01 2.286458256021688840e+00
1.212239465236008007e-01 2.548252588733198820e+00
1.222644954202661838e-01 3.459701502826156627e+00
1.233050443169315669e-01 3.892929922580350421e+00
1.243455932135969499e-01 3.732043646549279003e+00
1.253861421102623330e-01 4.211495496321276732e+00
1.264266910069277161e-01 4.810212171149530036e+00
1.274672399035930992e-01 6.112226329001138936e+00
1.285077888002584823e-01 8.973299830207452032e+00
1.295483376969238654e-01 1.515481514666790019e+01
1.305888865935892484e-01 2.782606751056562189e+01
1.316294354902546315e-01 3.999814669275318124e+01
1.326699843869200146e-01 3.876886299379496137e+01
1.337105332835853977e-01 2.657624685344102744e+01
1.347510821802507808e-01 1.620312144965141954e+01
1.357916310769161639e-01 1.140688353058683191e+01
1.368321799735815469e-01 9.835848523781173469e+00
1.378727288702469300e-01 8.948453927579940625e+00
1.389132777669123131e-01 8.784907340486412863e+00
1.399538266635776962e-01 8.598328700004678637e+00
1.409943755602430793e-01 8.401277121811759230e+00
1.420349244569084624e-01 8.229756951304501911e+00
1.430754733535738454e-01 8.148265824892781950e+00
1.441160222502392285e-01 8.184111475360211330e+00
1.451565711469046116e-01 8.637295043810723882e+00
1.461971200435699947e-01 8.886990127812481433e+00
1.472376689402353778e-01 9.018053114722071939e+00
1.482782178369007609e-01 1.027066472862662749e+01
1.493187667335661439e-01 1.214591882879061302e+01
1.503593156302315270e-01 1.553593324973620327e+01
1.513998645268969101e-01 2.251626554926011892e+01
1.524404134235622932e-01 3.700612796951942585e+01
1.534809623202276763e-01 5.819043556409069140e+01
1.545215112168930593e-01 7.504758126198998980e+01
1.555620601135584424e-01 6.958703791425493534e+01
1.566026090102238255e-01 4.792873261581051025e+01
1.576431579068892086e-01 3.060557678559692363e+01
1.586837068035545917e-01 2.232811579013104364e+01
1.597242557002199748e-01 2.015672330961891134e+01
1.607648045968853578e-01 2.095420821723381266e+01
1.618053534935507409e-01 1.964660799920680745e+01
1.628459023902161240e-01 1.558162514597773907e+01
1.638864512868815071e-01 9.642250496870616416e+00
1.649270001835468902e-01 5.975092564144937057e+00
1.659675490802122733e-01 4.182204727904490937e+00
1.670080979768776563e-01 3.424694157749556211e+00
1.680486468735430672e-01 2.897253801072373847e+00
1.690891957702084503e-01 2.594508718595278651e+00
1.701297446668738333e-01 1.797422593677552527e+00
1.711702935635392164e-01 1.554076536333177216e+00
1.722108424602045995e-01 1.781437348635723339e+00
1.732513913568699826e-01 1.449299137872962717e+00
1.742919402535353657e-01 1.229623443411036021e+00
1.753324891502007488e-01 1.199997005910759640e+00
1.763730380468661318e-01 1.271413956827768033e+00
1.774135869435315149e-01 1.201264472949183926e+00
1.784541358401968980e-01 9.955572757987560806e-01
1.794946847368622811e-01 9.876937575351334431e-01
1.805352336335276642e-01 1.073133648572504484e+00
1.815757825301930473e-01 1.308693409288057552e+00
1.826163314268584303e-01 1.181463311789510584e+00
1.836568803235238134e-01 1.219562030817201048e+00
1.846974292201891965e-01 1.134998442510546823e+00
1.857379781168545796e-01 1.006602124565009859e+00
1.867785270135199627e-01 1.136628704761523778e+00
1.878190759101853458e-01 8.303744275809599173e-01
1.888596248068507288e-01 4.118122228943121854e-01
1.899001737035161119e-01 6.154450772527404467e-01
1.909407226001814950e-01 6.260775947984420498e-01
1.919812714968468781e-01 5.362716060884942237e-01
1.930218203935122612e-01 5.526171088627229722e-01
1.940623692901776443e-01 4.721437056893833528e-01
1.951029181868430273e-01 5.612483307141893363e-01
1.961434670835084104e-01 6.230016493691934443e-01
1.971840159801737935e-01 9.260968081470188906e-01
1.982245648768391766e-01 8.039674148371958040e-01
1.992651137735045597e-01 7.687729968094778599e-01
2.003056626701699428e-01 1.218805908088597789e+00
2.013462115668353813e-01 1.597127567123173719e+00
2.023867604635007644e-01 2.022676899214896906e+00
2.034273093601661475e-01 2.266486274763622077e+00
2.044678582568315306e-01 2.312731658465246198e+00
2.055084071534969137e-01 2.466387596284281614e+00
2.065489560501622968e-01 3.045038227848213097e+00
2.075895049468276798e-01 3.338869739458857566e+00
2.086300538434930629e-01 3.499692851663532167e+00
2.096706027401584460e-01 2.981292179078565141e+00
2.107111516368238291e-01 2.265681033900815322e+00
2.117517005334892122e-01 1.819242307478276643e+00
2.127922494301545953e-01 1.466325746941134156e+00
2.138327983268199783e-01 1.012393977645697163e+00
2.148733472234853614e-01 9.520044090995689601e-01
2.159138961201507445e-01 1.037874506903079919e+00
2.169544450168161276e-01 1.106761217122201657e+00
2.179949939134815107e-01 1.347552927407136281e+00
2.190355428101468938e-01 1.322359393349291423e+00
2.200760917068122768e-01 1.357422607675708548e+00
2.211166406034776599e-01 1.492623746722593125e+00
2.221571895001430430e-01 1.387767057058926667e+00
2.231977383968084261e-01 1.429494889005336944e+00
2.242382872934738092e-01 1.989848299675749388e+00
2.252788361901391923e-01 2.293237445125736684e+00
2.263193850868045753e-01 3.153907754926702722e+00
2.273599339834699584e-01 4.113966808787957063e+00
2.284004828801353415e-01 4.686157015240933532e+00
2.294410317768007246e-01 4.466848297326372119e+00
2.304815806734661077e-01 3.642975788698752382e+00
2.315221295701314908e-01 2.983361082008038068e+00
2.325626784667968738e-01 2.250151635659698002e+00
2.336032273634622569e-01 2.116877674919184216e+00
2.346437762601276400e-01 1.790602386667384138e+00
2.356843251567930231e-01 1.553455703643390251e+00
2.367248740534584062e-01 1.740353469543144627e+00
2.377654229501237892e-01 2.117931958938225279e+00
2.388059718467891723e-01 2.455190441339507146e+00
2.398465207434545554e-01 2.623058424095400909e+00
2.408870696401199385e-01 3.483219686191549869e+00
2.419276185367853216e-01 4.185985588540741986e+00
2.429681674334507047e-01 3.795413208548897188e+00
2.440087163301160877e-01 3.187693463633497259e+00
2.450492652267814708e-01 2.157520578744641426e+00
2.460898141234468539e-01 1.545225214278723058e+00
2.471303630201122370e-01 1.424564422106222139e+00
2.481709119167776201e-01 1.147543919582794558e+00
2.492114608134430032e-01 8.517297959929166495e-01
2.502520097101083585e-01 7.777856674573762064e-01
2.512925586067737416e-01 6.401300725476488651e-01
2.523331075034391247e-01 4.597296069639114080e-01
2.533736564001045077e-01 3.174314615489635116e-01
2.544142052967698908e-01 4.283805281751753569e-01
2.554547541934352739e-01 5.038488288749789490e-01
2.564953030901006570e-01 3.504311393750185744e-01
2.575358519867660401e-01 3.695778907047575501e-01
2.585764008834314231e-01 3.790202533685587127e-01
2.596169497800968062e-01 3.049125225534261574e-01
2.606574986767621893e-01 4.013441856483872527e-01
2.616980475734275724e-01 6.640106238412322170e-01
2.627385964700929555e-01 7.554409662196199804e-01
2.637791453667583386e-01 6.293925108700477722e-01
2.648196942634237216e-01 5.780216908436273116e-01
2.658602431600891047e-01 6.921370232637507058e-01
2.669007920567544878e-01 4.029207716024032493e-01
2.679413409534198709e-01 1.323721822239036783e-01
2.689818898500852540e-01 2.872928690695317755e-01
2.700224387467506371e-01 2.595625332680846498e-01
2.710629876434160201e-01 3.894574289896475250e-01
2.721035365400814032e-01 1.311419104392115287e-01
2.731440854367467863e-01 2.711513876017797031e-01
2.741846343334121694e-01 2.587313970571258892e-01
2.752251832300775525e-01 1.938497133278858087e-01
2.762657321267429356e-01 1.686322907743331712e-02
2.773062810234083186e-01 5.124380408315332147e-02
2.783468299200737017e-01 3.286583418452408978e-01
2.793873788167390848e-01 3.101327134100060334e-01
2.804279277134044679e-01 2.866325730947529848e-01
2.814684766100698510e-01 3.614274059527744498e-01
2.825090255067352341e-01 2.993307885296196957e-01
2.835495744034006171e-01 5.743118623562644132e-01
2.845901233000660002e-01 8.297699508619729158e-01
2.856306721967313833e-01 6.078322323109226488e-01
2.866712210933967664e-01 5.652907310295276488e-01
2.877117699900621495e-01 4.407112223904334769e-01
2.887523188867275326e-01 9.559171631846297146e-02
2.897928677833929156e-01 3.248442744833610618e-01
2.908334166800582987e-01 5.325542216372838311e-01
2.918739655767236818e-01 3.777524829795169126e-01
2.929145144733890649e-01 4.769532203694346606e-01
2.939550633700544480e-01 5.282876160579164093e-01
2.949956122667198311e-01 4.205738931027127592e-01
2.960361611633852141e-01 5.463577609248382316e-01
2.970767100600505972e-01 5.653483996652362009e-01
2.981172589567159803e-01 6.729581530421242519e-01
2.991578078533813634e-01 4.296698947336565766e-01
3.001983567500468020e-01 4.634778920980977546e-01
3.012389056467121851e-01 6.612974419078021526e-01
3.022794545433775681e-01 7.534530590446770759e-01
3.033200034400429512e-01 6.937655441876628970e-01
3.043605523367083343e-01 8.474230211041877681e-01
3.054011012333737174e-01 9.541988686037932155e-01
3.064416501300391005e-01 9.715400913847993536e-01
3.074821990267044836e-01 1.139739887047124256e+00
3.085227479233698666e-01 1.162389082511076310e+00
3.095632968200352497e-01 1.222730953667781506e+00
3.106038457167006328e-01 1.077485752004747610e+00
3.116443946133660159e-01 6.241781694571990613e-01
3.126849435100313990e-01 4.715784151749566888e-01
3.137254924066967821e-01 7.122200590162961475e-01
3.147660413033621651e-01 7.951871165667867558e-01
3.158065902000275482e-01 5.992335918665894212e-01
3.168471390966929313e-01 4.787660851524861982e-01
3.178876879933583144e-01 3.236608739192377016e-01
3.189282368900236975e-01 3.414706570975347688e-01
3.199687857866890806e-01 2.421758278981442913e-01
3.210093346833544636e-01 4.260287060747245391e-01
3.220498835800198467e-01 5.283402043992815322e-01
3.230904324766852298e-01 2.909383588300187284e-01
3.241309813733506129e-01 3.125169884306799872e-01
3.251715302700159960e-01 3.631257121892268458e-01
3.262120791666813790e-01 2.186261527078947609e-01
3.272526280633467621e-01 3.686196542181043867e-01
3.282931769600121452e-01 4.925451353484149308e-01
3.293337258566775283e-01 6.790526952168711716e-01
3.303742747533429114e-01 8.336179499539433380e-01
3.314148236500082945e-01 8.683345306460523716e-01
3.324553725466736775e-01 9.767573192468930188e-01
3.334959214433390606e-01 1.056394241384662536e+00
3.345364703400044437e-01 8.952881895529891665e-01
3.355770192366698268e-01 6.077673675291705990e-01
3.366175681333352099e-01 8.256724845134755242e-01
3.376581170300005930e-01 6.697812628678008195e-01
3.386986659266659760e-01 5.303770849728834946e-01
3.397392148233313591e-01 4.494611327966104852e-01
3.407797637199967422e-01 3.210156978717186860e-01
3.418203126166621253e-01 0.000000000000000000e+00
3.428608615133275084e-01 3.108878215262009803e-01
3.439014104099928915e-01 6.148389834053098468e-01
3.449419593066582745e-01 6.756729309149029916e-01
3.459825082033236576e-01 6.435747458765312956e-01
3.470230570999890407e-01 4.421712273050424358e-01
3.480636059966544238e-01 2.068361945096199861e-01
3.491041548933198069e-01 3.562751772491701274e-01
3.501447037899851900e-01 3.199906340575964236e-01
3.511852526866505730e-01 4.947995518783585567e-01
3.522258015833159561e-01 3.497115475736833901e-01
3.532663504799813392e-01 2.463220820450544579e-01
3.543068993766467223e-01 3.593257858447351794e-01
3.553474482733121054e-01 9.702719587404828872e-02
3.563879971699774885e-01 3.004813789963804993e-01
3.574285460666428715e-01 2.689485441983379133e-01
3.584690949633082546e-01 3.516476011212965602e-01
3.595096438599736377e-01 4.382524463094128464e-01
3.605501927566390208e-01 7.118489317897633839e-01
3.615907416533044039e-01 6.259069989304073545e-01
3.626312905499697870e-01 5.025552640342354493e-01
3.636718394466351700e-01 2.126080516735378012e-01
3.647123883433005531e-01 2.256818454185633982e-01
3.657529372399659362e-01 2.785339231061705334e-01
3.667934861366313193e-01 4.835292350161388697e-01
3.678340350332967024e-01 3.681210273876516226e-01
3.688745839299620854e-01 5.167869763091488267e-01
3.699151328266274685e-01 2.806596506089853449e-01
3.709556817232928516e-01 2.644117655289655033e-01
3.719962306199582347e-01 5.077234883320684844e-01
3.730367795166236178e-01 4.278652389147765689e-01
3.740773284132890009e-01 4.945423134692177314e-01
3.751178773099543839e-01 1.686159712682169243e-01
3.761584262066197670e-01 3.343537189767431528e-01
3.771989751032851501e-01 2.810331219251729351e-01
3.782395239999505332e-01 3.506828004115654096e-01
3.792800728966159163e-01 3.330933017103063776e-01
3.803206217932812994e-01 3.089282641610466840e-01
3.813611706899466824e-01 5.288093803525768521e-01
3.824017195866120655e-01 8.146152763381522277e-01
3.834422684832774486e-01 8.034104233497956216e-01
3.844828173799428317e-01 8.585860671520748610e-01
3.855233662766082148e-01 6.657428089922845516e-01
3.865639151732735979e-01 4.932421726324527356e-01
3.876044640699389809e-01 5.781786797396577526e-01
3.886450129666043640e-01 5.576305072143661334e-01
3.896855618632697471e-01 5.486383380105230856e-01
3.907261107599351302e-01 3.339245922511224762e-01
3.917666596566005133e-01 1.656796702783864816e-01
3.928072085532658964e-01 3.547965905896184324e-01
3.938477574499312794e-01 3.320314051070809569e-01
3.948883063465966625e-01 3.705113531826711437e-01
3.959288552432620456e-01 5.102134532623381347e-01
3.969694041399274287e-01 5.190023587202361455e-01
3.980099530365928118e-01 4.251361704607887759e-01
3.990505019332581949e-01 4.941065588498219086e-01
4.000910508299235779e-01 6.233257100405218409e-01
4.011315997265889610e-01 3.320680944184601913e-01
4.021721486232543441e-01 3.986339616471212821e-01
4.032126975199197272e-01 5.210845567913402476e-01
4.042532464165851103e-01 4.777159308794054482e-01
4.052937953132504934e-01 5.425197679702939979e-01
4.063343442099158764e-01 6.196753497247229348e-01
4.073748931065812595e-01 5.954545632448997594e-01
4.084154420032466426e-01 4.432747262253897702e-01
4.094559908999120257e-01 1.847556548917665964e-01
4.104965397965774088e-01 2.886259336500600625e-01
4.115370886932427918e-01 4.283321485629301151e-01
4.125776375899081749e-01 5.496183864356538606e-01
4.136181864865735580e-01 6.469646295468081121e-01
4.146587353832389411e-01 5.491799461204323052e-01
4.156992842799043242e-01 3.783636340255078778e-01
4.167398331765697073e-01 4.132947367490586998e-01
4.177803820732350903e-01 5.756808906697052919e-01
4.188209309699004734e-01 5.304102454969381597e-01
4.198614798665658565e-01 4.796916530064265771e-01
4.209020287632312396e-01 4.764952924957555069e-01
4.219425776598966227e-01 4.742082371833085119e-01
4.229831265565620058e-01 4.567260253546585602e-01
4.240236754532273888e-01 4.286314338017014336e-01
4.250642243498927719e-01 4.764968238216447105e-01
4.261047732465581550e-01 4.895947043307771196e-01
4.271453221432235381e-01 3.288284926519047247e-01
4.281858710398889212e-01 5.091624072581524274e-01
4.292264199365543043e-01 6.066800089417760944e-01
4.302669688332196873e-01 3.659078890094527026e-01
4.313075177298850704e-01 3.451132931026386075e-01
4.323480666265504535e-01 2.389255913235430739e-01
4.333886155232158366e-01 3.863739331146653910e-01
4.344291644198812197e-01 4.379253402277569762e-01
