# q (1/Angstrom), Intensity (arb)
2.029070354705860696e-02 1.044699053684319097e+02
2.133125244372399004e-02 8.824778378301340354e+01
2.237180134038937659e-02 7.507466360400655958e+01
2.341235023705475968e-02 6.351447895126005960e+01
2.445289913372014276e-02 5.432674502402124972e+01
2.549344803038552584e-02 4.777445386976714303e+01
2.653399692705091240e-02 4.307648401164526319e+01
2.757454582371629548e-02 3.824891909936104639e+01
2.861509472038167856e-02 3.363163903076181782e+01
2.965564361704706164e-02 3.102029487542789354e+01
3.069619251371244473e-02 2.785582174103286945e+01
3.173674141037782781e-02 2.607025692180148724e+01
3.277729030704321089e-02 2.347464199621028058e+01
3.381783920370859398e-02 2.232503120027121213e+01
3.485838810037397706e-02 2.043637565847991056e+01
3.589893699703936014e-02 1.989528684503247291e+01
3.693948589370474322e-02 1.957303777512951370e+01
3.798003479037012631e-02 1.862155484488140900e+01
3.902058368703550939e-02 1.804518894004984730e+01
4.006113258370089247e-02 1.759746319624333921e+01
4.110168148036627556e-02 1.721445228576416753e+01
4.214223037703165864e-02 1.679245434181589758e+01
4.318277927369704866e-02 1.547395491480161667e+01
4.422332817036243174e-02 1.501335596384986104e+01
4.526387706702781483e-02 1.570757067287977549e+01
4.630442596369319791e-02 1.551456662341752235e+01
4.734497486035858099e-02 1.406908060714105346e+01
4.838552375702396408e-02 1.429405318139288283e+01
4.942607265368934716e-02 1.492367103430706265e+01
5.046662155035473024e-02 1.480575513656038567e+01
5.150717044702011332e-02 1.474460363116001815e+01
5.254771934368549641e-02 1.557453268049519579e+01
5.358826824035087949e-02 1.611196664574373472e+01
5.462881713701626257e-02 1.619916245648410325e+01
5.566936603368164566e-02 1.676414442873134902e+01
5.670991493034702874e-02 1.718432372941553865e+01
5.775046382701241182e-02 1.837933246428990230e+01
5.879101272367779490e-02 1.939926141126245085e+01
5.983156162034317799e-02 1.996799489777023240e+01
6.087211051700856107e-02 2.063202295512038376e+01
6.191265941367394415e-02 2.177186466672574028e+01
6.295320831033933417e-02 2.349351035437359769e+01
6.399375720700471726e-02 2.575784386618649791e+01
6.503430610367010034e-02 2.878906432798866888e+01
6.607485500033548342e-02 3.102847991203893940e+01
6.711540389700086651e-02 3.384114329791103870e+01
6.815595279366624959e-02 3.763521032889193663e+01
6.919650169033163267e-02 3.969566027715389112e+01
7.023705058699701576e-02 4.338607461248899000e+01
7.127759948366239884e-02 4.920413125189323011e+01
7.231814838032778192e-02 5.918968790218007570e+01
7.335869727699316500e-02 8.161623346434880943e+01
7.439924617365854809e-02 1.366238494797582916e+02
7.543979507032393117e-02 2.360444461536240794e+02
7.648034396698931425e-02 3.422764078261979535e+02
7.752089286365469734e-02 4.517766708245984546e+02
7.856144176032008042e-02 6.840498670163548240e+02
7.960199065698546350e-02 1.097769933627962700e+03
8.064253955365084658e-02 1.312014184343710667e+03
8.168308845031622967e-02 1.001197348676956835e+03
8.272363734698161275e-02 5.791184148010802346e+02
8.376418624364699583e-02 3.714175684035894278e+02
8.480473514031239279e-02 2.840547595735321238e+02
8.584528403697777588e-02 2.320488824040497207e+02
8.688583293364315896e-02 1.958817175764787635e+02
8.792638183030854204e-02 1.680829187427868590e+02
8.896693072697392513e-02 1.478967229389399165e+02
9.000747962363930821e-02 1.380867676284961192e+02
9.104802852030469129e-02 1.416257665445615430e+02
9.208857741697007437e-02 1.502990089560821048e+02
9.312912631363545746e-02 1.396205117744637505e+02
9.416967521030084054e-02 9.604110993863383783e+01
9.521022410696622362e-02 5.267229842953022967e+01
9.625077300363160671e-02 2.943972542618857346e+01
9.729132190029698979e-02 1.847620712820035038e+01
9.833187079696237287e-02 1.266682648170662162e+01
9.937241969362775595e-02 9.425146825212969759e+00
1.004129685902931390e-01 7.229991216103663021e+00
1.014535174869585221e-01 6.016506320487472692e+00
1.024940663836239052e-01 5.237732285428002399e+00
1.035346152802892883e-01 4.193953387484398831e+00
1.045751641769546714e-01 3.703033736596161418e+00
1.056157130736200545e-01 3.265553013628270662e+00
1.066562619702854375e-01 2.815572581302760113e+00
1.076968108669508206e-01 2.486963201919266453e+00
1.087373597636162037e-01 2.293569983034387860e+00
1.097779086602815868e-01 2.156140237486532385e+00
1.108184575569469699e-01 1.868735044531604217e+00
1.118590064536123529e-01 1.706126155548830070e+00
1.128995553502777360e-01 1.826849117295850533e+00
1.139401042469431191e-01 1.746098053791264704e+00
1.149806531436085022e-01 1.534790827721465689e+00
1.160212020402738853e-01 2.086923028731206387e+00
1.170617509369392684e-01 2.255961032306920799e+00
1.181022998336046514e-01 2.279623316412013878e+00
1.191428487302700345e-01 2.533705847089926522e+00
1.201833976269354176e-01 2.540731462833967669e+00
1.212239465236008007e-01 2.998342180660557688e+00
1.222644954202661838e-01 2.881609580801232084e+00
1.233050443169315669e-01 3.111040741147753863e+00
1.243455932135969499e-01 3.713498979235545505e+00
1.253861421102623330e-01 4.363429972681466040e+00
1.264266910069277161e-01 5.484599826136417278e+00
1.274672399035930992e-01 7.777863945349736241e+00
1.285077888002584823e-01 1.243381004092002229e+01
1.295483376969238654e-01 2.321597737609564405e+01
1.305888865935892484e-01 3.779007615469543424e+01
1.316294354902546315e-01 4.314010226181980556e+01
1.326699843869200146e-01 3.373074851450923006e+01
1.337105332835853977e-01 2.095951265121649953e+01
1.347510821802507808e-01 1.374638780154081275e+01
1.357916310769161639e-01 1.069851987833194329e+01
1.368321799735815469e-01 9.244391470813681622e+00
1.378727288702469300e-01 8.671141829776551901e+00
1.389132777669123131e-01 8.432628444155589875e+00
1.399538266635776962e-01 8.362398995860793605e+00
1.409943755602430793e-01 8.250230480720283310e+00
1.420349244569084624e-01 8.273239360684243593e+00
1.430754733535738454e-01 8.685757088164990591e+00
1.441160222502392285e-01 8.573358055008171164e+00
1.451565711469046116e-01 8.646526175490890864e+00
1.461971200435699947e-01 9.163533169752518859e+00
1.472376689402353778e-01 1.007448396938639945e+01
1.482782178369007609e-01 1.097248710648693049e+01
1.493187667335661439e-01 1.353296408708831677e+01
1.503593156302315270e-01 1.972574723263978314e+01
1.513998645268969101e-01 3.172192000057815875e+01
1.524404134235622932e-01 5.228872702807760930e+01
1.534809623202276763e-01 7.271303135309224785e+01
1.545215112168930593e-01 7.430405102260755257e+01
1.555620601135584424e-01 5.547250395971905590e+01
1.566026090102238255e-01 3.500170302553936352e+01
1.576431579068892086e-01 2.384013930270985071e+01
1.586837068035545917e-01 2.000267376558588950e+01
1.597242557002199748e-01 1.980090615063632953e+01
1.607648045968853578e-01 1.990119683354701863e+01
1.618053534935507409e-01 1.645493513507975791e+01
1.628459023902161240e-01 1.096172625435924886e+01
1.638864512868815071e-01 6.527401636475303803e+00
1.649270001835468902e-01 4.305261129704760492e+00
1.659675490802122733e-01 3.106360040454198668e+00
1.670080979768776563e-01 2.538023580961208836e+00
1.680486468735430672e-01 1.843839481468151575e+00
1.690891957702084503e-01 1.603761843830397993e+00
1.701297446668738333e-01 1.977454672500904564e+00
1.711702935635392164e-01 1.458723253989738566e+00
1.722108424602045995e-01 1.116483956135809308e+00
1.732513913568699826e-01 1.285631999638631839e+00
1.742919402535353657e-01 1.271681363082095118e+00
1.753324891502007488e-01 7.883277373333044125e-01
1.763730380468661318e-01 1.300527885859615651e+00
1.774135869435315149e-01 1.202901621630545037e+00
1.784541358401968980e-01 7.278409110409285177e-01
1.794946847368622811e-01 5.973462269555298576e-01
1.805352336335276642e-01 7.532262379613570147e-01
1.815757825301930473e-01 9.199937672545033251e-01
1.826163314268584303e-01 8.494547970975858675e-01
1.836568803235238134e-01 1.006105929188791492e+00
1.846974292201891965e-01 9.214237619052951800e-01
1.857379781168545796e-01 9.319207341839117476e-01
1.867785270135199627e-01 8.549964704139263461e-01
1.878190759101853458e-01 5.734110681349733341e-01
1.888596248068507288e-01 5.762425473078778282e-01
1.899001737035161119e-01 8.432990353003688710e-01
1.909407226001814950e-01 7.768982172954999044e-01
1.919812714968468781e-01 9.761593857243475725e-01
1.930218203935122612e-01 8.280188473509433322e-01
1.940623692901776443e-01 5.654660070433372709e-01
1.951029181868430273e-01 7.055429691005841164e-01
1.961434670835084104e-01 9.481609539082604954e-01
1.971840159801737935e-01 9.568917443390461131e-01
1.982245648768391766e-01 8.069525257128411511e-01
1.992651137735045597e-01 1.295107421195073272e+00
2.003056626701699428e-01 1.930176741500069681e+00
2.013462115668353813e-01 2.080296138640207460e+00
2.023867604635007644e-01 1.791616141722599309e+00
2.034273093601661475e-01 2.285321265934474155e+00
2.044678582568315306e-01 2.560143249011801458e+00
2.055084071534969137e-01 2.967454073802819892e+00
2.065489560501622968e-01 3.659940740378825552e+00
2.075895049468276798e-01 3.794840182984515309e+00
2.086300538434930629e-01 3.276836828219238384e+00
2.096706027401584460e-01 2.562281635609860331e+00
2.107111516368238291e-01 2.118759969954204792e+00
2.117517005334892122e-01 1.487682273688069046e+00
2.127922494301545953e-01 1.027113698060230007e+00
2.138327983268199783e-01 9.407935657940349472e-01
2.148733472234853614e-01 1.055668153323839675e+00
2.159138961201507445e-01 1.145238334364613308e+00
2.169544450168161276e-01 1.164945608660620024e+00
2.179949939134815107e-01 1.050040908044980625e+00
2.190355428101468938e-01 1.061169925226717936e+00
2.200760917068122768e-01 1.131486470311415360e+00
2.211166406034776599e-01 1.387131479740975948e+00
2.221571895001430430e-01 1.735022059694401264e+00
2.231977383968084261e-01 1.803701565946514762e+00
2.242382872934738092e-01 2.351248365335759871e+00
2.252788361901391923e-01 3.381670770652224434e+00
2.263193850868045753e-01 3.944383095666797345e+00
2.273599339834699584e-01 4.419802319498110421e+00
2.284004828801353415e-01 4.358104678283048372e+00
2.294410317768007246e-01 3.629440010637384972e+00
2.304815806734661077e-01 2.798995789966546965e+00
2.315221295701314908e-01 2.195110935947241160e+00
2.325626784667968738e-01 1.705878025170061818e+00
2.336032273634622569e-01 1.953529432681175848e+00
2.346437762601276400e-01 1.598409846975592075e+00
2.356843251567930231e-01 1.480003159755298725e+00
2.367248740534584062e-01 1.648547805261667776e+00
2.377654229501237892e-01 2.060602436015201988e+00
2.388059718467891723e-01 2.657894273694651588e+00
2.398465207434545554e-01 3.202491877886668448e+00
2.408870696401199385e-01 3.850289202332614735e+00
2.419276185367853216e-01 3.607087192141648302e+00
2.429681674334507047e-01 2.652809261356370740e+00
2.440087163301160877e-01 1.871250745730737464e+00
2.450492652267814708e-01 1.284724590166760549e+00
2.460898141234468539e-01 1.028949233897680671e+00
2.471303630201122370e-01 9.654994713198945533e-01
2.481709119167776201e-01 5.475235513276395238e-01
2.492114608134430032e-01 3.605016270959104929e-01
2.502520097101083585e-01 5.248766274711549329e-01
2.512925586067737416e-01 8.908591995208965386e-01
2.523331075034391247e-01 9.728946156773083942e-01
2.533736564001045077e-01 4.308654612542106577e-01
2.544142052967698908e-01 7.250285926540662729e-01
2.554547541934352739e-01 6.855509721688477498e-01
2.564953030901006570e-01 5.756778860523255048e-01
2.575358519867660401e-01 2.698811116853470082e-01
2.585764008834314231e-01 3.987137384588486100e-01
2.596169497800968062e-01 6.439452057180581335e-01
2.606574986767621893e-01 3.335697271844892953e-01
2.616980475734275724e-01 4.827202179730889497e-01
2.627385964700929555e-01 4.170809842593001804e-01
2.637791453667583386e-01 4.763301295009583214e-01
2.648196942634237216e-01 2.134821165161078227e-01
2.658602431600891047e-01 3.314616427164303047e-01
2.669007920567544878e-01 3.781582900626467847e-01
2.679413409534198709e-01 4.459163271617647695e-01
2.689818898500852540e-01 3.203389481417424633e-01
2.700224387467506371e-01 3.703881963996167315e-01
2.710629876434160201e-01 1.206148201506529460e-01
2.721035365400814032e-01 9.501818288599750417e-02
2.731440854367467863e-01 3.634730188101968906e-01
2.741846343334121694e-01 4.468393604040485911e-01
2.752251832300775525e-01 3.639045909122060607e-01
2.762657321267429356e-01 3.509390371032274913e-01
2.773062810234083186e-01 1.143354637248563677e-01
2.783468299200737017e-01 0.000000000000000000e+00
2.793873788167390848e-01 1.603183091363078461e-01
2.804279277134044679e-01 2.778189565051896182e-01
2.814684766100698510e-01 5.216009329167263786e-01
2.825090255067352341e-01 2.985223451670755423e-01
2.835495744034006171e-01 2.256761807378673268e-01
2.845901233000660002e-01 3.223505527726722164e-01
2.856306721967313833e-01 2.565410589696810462e-01
2.866712210933967664e-01 3.890395158846686741e-01
2.877117699900621495e-01 4.208641154396524087e-01
2.887523188867275326e-01 4.188176530931819741e-01
2.897928677833929156e-01 5.318615263178685382e-01
2.908334166800582987e-01 4.634013282988682647e-01
2.918739655767236818e-01 4.184534446326892976e-01
2.929145144733890649e-01 2.951143130014379778e-01
2.939550633700544480e-01 2.630198762793476419e-01
2.949956122667198311e-01 4.710959441206270526e-01
2.960361611633852141e-01 6.167084397031388221e-01
2.970767100600505972e-01 9.385544876382816426e-01
2.981172589567159803e-01 9.305688251575219283e-01
2.991578078533813634e-01 8.017320546879176391e-01
3.001983567500468020e-01 7.810058320877253379e-01
3.012389056467121851e-01 8.549957166443427070e-01
3.022794545433775681e-01 1.004317350876199555e+00
3.033200034400429512e-01 9.237996507960772874e-01
3.043605523367083343e-01 7.602151505304988177e-01
3.054011012333737174e-01 8.502620401367551040e-01
3.064416501300391005e-01 9.812118681710835233e-01
3.074821990267044836e-01 9.361264241030582411e-01
3.085227479233698666e-01 1.054517373862502438e+00
3.095632968200352497e-01 8.049125164416501832e-01
3.106038457167006328e-01 6.712853614699909599e-01
3.116443946133660159e-01 6.910296661713353217e-01
3.126849435100313990e-01 2.911990074782053739e-01
3.137254924066967821e-01 2.776093079633525917e-01
3.147660413033621651e-01 2.155580281893243466e-01
3.158065902000275482e-01 3.054818762369073681e-01
3.168471390966929313e-01 4.542196351308902535e-01
3.178876879933583144e-01 2.057309143335892543e-01
3.189282368900236975e-01 3.065582039465688524e-01
3.199687857866890806e-01 4.000499941764914524e-01
3.210093346833544636e-01 4.727999951280885682e-01
3.220498835800198467e-01 4.567618311255223773e-01
3.230904324766852298e-01 5.018515320167722393e-01
3.241309813733506129e-01 5.373946352250627001e-01
3.251715302700159960e-01 4.717010015172284909e-01
3.262120791666813790e-01 3.507733533214398847e-01
3.272526280633467621e-01 4.141120765844377161e-01
3.282931769600121452e-01 5.923548916362264549e-01
3.293337258566775283e-01 4.866686490189096048e-01
3.303742747533429114e-01 5.735120525961576732e-01
3.314148236500082945e-01 7.238416524433759491e-01
3.324553725466736775e-01 5.795493097561355000e-01
3.334959214433390606e-01 5.900144879426889588e-01
3.345364703400044437e-01 3.745384201919392808e-01
3.355770192366698268e-01 4.969648917929596621e-01
3.366175681333352099e-01 6.165237987095295580e-01
3.376581170300005930e-01 3.741939299696142029e-01
3.386986659266659760e-01 9.789784176601301624e-02
3.397392148233313591e-01 1.448453112076215632e-01
3.407797637199967422e-01 4.649102732069465560e-01
3.418203126166621253e-01 2.596937156084742071e-01
3.428608615133275084e-01 3.512494508694068429e-01
3.439014104099928915e-01 1.834607030294037600e-01
3.449419593066582745e-01 2.093941143541648842e-01
3.459825082033236576e-01 3.202289499585546650e-01
3.470230570999890407e-01 3.136706386236660649e-01
3.480636059966544238e-01 3.881352072320325419e-01
3.491041548933198069e-01 1.588187486396641646e-01
3.501447037899851900e-01 2.933305869192039950e-01
3.511852526866505730e-01 1.652121361242215869e-01
3.522258015833159561e-01 4.064055823138659207e-01
3.532663504799813392e-01 2.694658217750074414e-01
3.543068993766467223e-01 3.305679291492005234e-01
3.553474482733121054e-01 3.121224661367456576e-01
3.563879971699774885e-01 1.189590551356687342e-01
3.574285460666428715e-01 2.588878758079360409e-02
3.584690949633082546e-01 1.313742426613018210e-02
3.595096438599736377e-01 2.475326465426697098e-01
3.605501927566390208e-01 2.457237410566364133e-01
3.615907416533044039e-01 2.889209068091993515e-01
3.626312905499697870e-01 1.467373351448486574e-01
3.636718394466351700e-01 3.837192532254114496e-01
3.647123883433005531e-01 4.686182132382796794e-01
3.657529372399659362e-01 3.405949944770370053e-01
3.667934861366313193e-01 3.304091059593901036e-01
3.678340350332967024e-01 2.403539241053138653e-01
3.688745839299620854e-01 2.229888108644750844e-01
3.699151328266274685e-01 2.885828521971873784e-01
3.709556817232928516e-01 2.392960032245525781e-01
3.719962306199582347e-01 1.718495518729419302e-01
3.730367795166236178e-01 3.487690470193953729e-01
3.740773284132890009e-01 5.472195109953368330e-01
3.751178773099543839e-01 5.699016478231513361e-01
3.761584262066197670e-01 5.084027281957759214e-01
3.771989751032851501e-01 4.092840118573555230e-01
3.782395239999505332e-01 4.909024714531362577e-01
3.792800728966159163e-01 4.893475705231615791e-01
3.803206217932812994e-01 4.714518446924920170e-01
3.813611706899466824e-01 5.882275988156315805e-01
3.824017195866120655e-01 6.510634059740993962e-01
3.834422684832774486e-01 7.374549343415139901e-01
3.844828173799428317e-01 6.211597559156878390e-01
3.855233662766082148e-01 6.159173874064407528e-01
3.865639151732735979e-01 4.592789604776328360e-01
3.876044640699389809e-01 4.671578454249250001e-01
3.886450129666043640e-01 5.203967860504334908e-01
3.896855618632697471e-01 4.933854477536989691e-01
3.907261107599351302e-01 4.280977068089129034e-01
3.917666596566005133e-01 3.887119743582729825e-01
3.928072085532658964e-01 3.886509573616585556e-01
3.938477574499312794e-01 5.107516453898739428e-01
3.948883063465966625e-01 4.303230011161183199e-01
3.959288552432620456e-01 5.635012334329587702e-01
3.969694041399274287e-01 4.775554486184283576e-01
3.980099530365928118e-01 2.766113264813370165e-01
3.990505019332581949e-01 5.066864716027303928e-01
4.000910508299235779e-01 5.551262837066239797e-01
4.011315997265889610e-01 4.259588966897140949e-01
4.021721486232543441e-01 5.034765282916495721e-01
4.032126975199197272e-01 5.181983057725574326e-01
4.042532464165851103e-01 5.453016346946313320e-01
4.052937953132504934e-01 7.624073623071083716e-01
4.063343442099158764e-01 5.647053569254296690e-01
4.073748931065812595e-01 3.878940719322692132e-01
4.084154420032466426e-01 4.316049078944281803e-01
4.094559908999120257e-01 4.178373940681900933e-01
4.104965397965774088e-01 4.596952932716682483e-01
4.115370886932427918e-01 4.412631397871180639e-01
4.125776375899081749e-01 4.184970094049837996e-01
4.136181864865735580e-01 4.127426890122016800e-01
4.146587353832389411e-01 5.508406940053660605e-01
4.156992842799043242e-01 3.658720340636385515e-01
4.167398331765697073e-01 4.902774589098406466e-01
4.177803820732350903e-01 4.067386665596117723e-01
4.188209309699004734e-01 4.706466068305381611e-01
4.198614798665658565e-01 4.989493917593215144e-01
4.209020287632312396e-01 4.000666113179534022e-01
4.219425776598966227e-01 2.936951391571760439e-01
4.229831265565620058e-01 1.146118820781936165e-01
4.240236754532273888e-01 4.965226384873488996e-02
4.250642243498927719e-01 3.495276898613219885e-01
4.261047732465581550e-01 7.126810786830723998e-01
4.271453221432235381e-01 5.478274786912784577e-01
4.281858710398889212e-01 2.371345409315388508e-01
4.292264199365543043e-01 1.840298832722169209e-01
4.302669688332196873e-01 8.523322114580977882e-02
4.313075177298850704e-01 6.682352706654981489e-02
4.323480666265504535e-01 2.133347059244741217e-01
4.333886155232158366e-01 3.930308983491457298e-01
4.344291644198812197e-01 2.815274062840771307e-01
