# q (1/Angstrom), Intensity (arb)
2.029070354705860696e-02 1.034030036705922839e+02
2.133125244372399004e-02 8.562735264334679641e+01
2.237180134038937659e-02 7.274273921364786588e+01
2.341235023705475968e-02 6.122441948923656696e+01
2.445289913372014276e-02 5.212446992420390757e+01
2.549344803038552584e-02 4.597975725819611625e+01
2.653399692705091240e-02 4.202940585198142287e+01
2.757454582371629548e-02 3.744243494646779880e+01
2.861509472038167856e-02 3.516738017225944191e+01
2.965564361704706164e-02 3.349053971823643394e+01
3.069619251371244473e-02 3.046009664791006344e+01
3.173674141037782781e-02 2.765527499320135973e+01
3.277729030704321089e-02 2.470121035095750983e+01
3.381783920370859398e-02 2.277802923011342529e+01
3.485838810037397706e-02 2.048390880301688100e+01
3.589893699703936014e-02 1.950021654741501465e+01
3.693948589370474322e-02 2.009833764550314328e+01
3.798003479037012631e-02 1.891587003647305920e+01
3.902058368703550939e-02 1.787313543458243714e+01
4.006113258370089247e-02 1.684524627132172725e+01
4.110168148036627556e-02 1.691769877237619824e+01
4.214223037703165864e-02 1.541018955785576594e+01
4.318277927369704866e-02 1.523403540369803011e+01
4.422332817036243174e-02 1.477028970169010336e+01
4.526387706702781483e-02 1.523853066719836846e+01
4.630442596369319791e-02 1.550760795062931408e+01
4.734497486035858099e-02 1.499838393907875655e+01
4.838552375702396408e-02 1.500956884266093283e+01
4.942607265368934716e-02 1.548546843800424710e+01
5.046662155035473024e-02 1.563774461476710087e+01
5.150717044702011332e-02 1.505113671908036110e+01
5.254771934368549641e-02 1.562449577425624625e+01
5.358826824035087949e-02 1.616673059691667191e+01
5.462881713701626257e-02 1.646083584242680331e+01
5.566936603368164566e-02 1.632114336212132599e+01
5.670991493034702874e-02 1.693994685202523698e+01
5.775046382701241182e-02 1.813540986776443020e+01
5.879101272367779490e-02 1.856669445443919386e+01
5.983156162034317799e-02 1.981145983727685689e+01
6.087211051700856107e-02 2.059266289668295258e+01
6.191265941367394415e-02 2.138443215476107895e+01
6.295320831033933417e-02 2.264992424690253614e+01
6.399375720700471726e-02 2.413844839936980691e+01
6.503430610367010034e-02 2.706026062765285900e+01
6.607485500033548342e-02 3.042454192720541784e+01
6.711540389700086651e-02 3.302817241260635939e+01
6.815595279366624959e-02 3.602301938073679821e+01
6.919650169033163267e-02 3.888712607830461820e+01
7.023705058699701576e-02 4.226328423029446668e+01
7.127759948366239884e-02 4.765998732224353773e+01
7.231814838032778192e-02 5.649926745788032889e+01
7.335869727699316500e-02 7.492411269863534073e+01
7.439924617365854809e-02 1.202923015464342598e+02
7.543979507032393117e-02 2.107839941344113868e+02
7.648034396698931425e-02 3.170066950782428989e+02
7.752089286365469734e-02 4.178357195474189894e+02
7.856144176032008042e-02 6.088883862636057529e+02
7.960199065698546350e-02 9.954882000684798413e+02
8.064253955365084658e-02 1.311376802585430596e+03
8.168308845031622967e-02 1.114368380275072468e+03
8.272363734698161275e-02 6.651213047163148531e+02
8.376418624364699583e-02 4.083612292692232018e+02
8.480473514031239279e-02 3.016354388048033570e+02
8.584528403697777588e-02 2.451039845571120566e+02
8.688583293364315896e-02 2.059799997393477042e+02
8.792638183030854204e-02 1.757916273017027322e+02
8.896693072697392513e-02 1.538262209995225476e+02
9.000747962363930821e-02 1.412760024805317016e+02
9.104802852030469129e-02 1.413348955445125910e+02
9.208857741697007437e-02 1.509910268773062683e+02
9.312912631363545746e-02 1.476202482184899054e+02
9.416967521030084054e-02 1.113253773256156194e+02
9.521022410696622362e-02 6.505507522973174162e+01
9.625077300363160671e-02 3.535634038736268536e+01
9.729132190029698979e-02 2.146239093557080935e+01
9.833187079696237287e-02 1.462052580800553869e+01
9.937241969362775595e-02 1.085882263230030276e+01
1.004129685902931390e-01 8.045780248677196766e+00
1.014535174869585221e-01 5.828465407435466261e+00
1.024940663836239052e-01 5.714245190720681933e+00
1.035346152802892883e-01 4.548568487264084581e+00
1.045751641769546714e-01 3.352025002866703574e+00
1.056157130736200545e-01 2.689489117270021268e+00
1.066562619702854375e-01 2.798172997879404988e+00
1.076968108669508206e-01 2.480998659867481138e+00
1.087373597636162037e-01 2.364509153276671327e+00
1.097779086602815868e-01 2.332048050925507710e+00
1.108184575569469699e-01 1.992537870343966233e+00
1.118590064536123529e-01 1.762045035896250056e+00
1.128995553502777360e-01 1.787452848539700767e+00
1.139401042469431191e-01 1.966908797016365895e+00
1.149806531436085022e-01 2.414340376399330523e+00
1.160212020402738853e-01 2.563852533735413886e+00
1.170617509369392684e-01 2.352295291471584449e+00
1.181022998336046514e-01 2.221878935888092599e+00
1.191428487302700345e-01 2.278127961104900123e+00
1.201833976269354176e-01 2.644983110868103893e+00
1.212239465236008007e-01 2.552138749471254187e+00
1.222644954202661838e-01 2.876203873586682391e+00
1.233050443169315669e-01 2.974649926808261569e+00
1.243455932135969499e-01 3.310986859118024483e+00
1.253861421102623330e-01 4.038582005836154565e+00
1.264266910069277161e-01 4.625603508639066774e+00
1.274672399035930992e-01 6.351556359251830486e+00
1.285077888002584823e-01 9.713261656578687564e+00
1.295483376969238654e-01 1.738513301516832144e+01
1.305888865935892484e-01 3.079019410738834495e+01
1.316294354902546315e-01 4.233242993468123672e+01
1.326699843869200146e-01 3.833772850207655836e+01
1.337105332835853977e-01 2.478207681725093181e+01
1.347510821802507808e-01 1.484138418290287120e+01
1.357916310769161639e-01 1.113075331270617596e+01
1.368321799735815469e-01 1.000845498473041317e+01
1.378727288702469300e-01 9.026705323015811189e+00
1.389132777669123131e-01 8.575138469731740543e+00
1.399538266635776962e-01 8.360503760266425388e+00
1.409943755602430793e-01 8.159848154166098766e+00
1.420349244569084624e-01 8.101219538679288235e+00
1.430754733535738454e-01 8.060760869511689464e+00
1.441160222502392285e-01 8.339812569150403476e+00
1.451565711469046116e-01 8.360456611410690186e+00
1.461971200435699947e-01 8.544129187042614149e+00
1.472376689402353778e-01 8.960535933104509354e+00
1.482782178369007609e-01 1.012695050321335799e+01
1.493187667335661439e-01 1.232428845429921438e+01
1.503593156302315270e-01 1.633475471127909628e+01
1.513998645268969101e-01 2.447203339255342769e+01
1.524404134235622932e-01 4.104538267213835923e+01
1.534809623202276763e-01 6.337385347460113394e+01
1.545215112168930593e-01 7.611007434780798064e+01
1.555620601135584424e-01 6.526494461035088079e+01
1.566026090102238255e-01 4.297692820000864344e+01
1.576431579068892086e-01 2.755078425415655374e+01
1.586837068035545917e-01 2.113824327425430027e+01
1.597242557002199748e-01 2.023214003145232454e+01
1.607648045968853578e-01 2.094381572221671206e+01
1.618053534935507409e-01 1.856834670474274418e+01
1.628459023902161240e-01 1.317834618403574609e+01
1.638864512868815071e-01 8.300183367322475192e+00
1.649270001835468902e-01 5.444820712842250998e+00
1.659675490802122733e-01 3.958765326819246866e+00
1.670080979768776563e-01 2.849505822453508586e+00
1.680486468735430672e-01 2.499129184364029754e+00
1.690891957702084503e-01 1.984266872118659819e+00
1.701297446668738333e-01 1.863218083160923300e+00
1.711702935635392164e-01 1.925421498320858404e+00
1.722108424602045995e-01 1.951285560424381060e+00
1.732513913568699826e-01 1.959227613567776416e+00
1.742919402535353657e-01 1.645795180290704707e+00
1.753324891502007488e-01 1.514852207365272818e+00
1.763730380468661318e-01 1.597880444027683922e+00
1.774135869435315149e-01 8.448658212461737094e-01
1.784541358401968980e-01 9.239982162204825045e-01
1.794946847368622811e-01 7.410055515344851074e-01
1.805352336335276642e-01 4.108813115161211726e-01
1.815757825301930473e-01 4.563103027292569891e-01
1.826163314268584303e-01 6.097336467934795223e-01
1.836568803235238134e-01 7.154202111537770747e-01
1.846974292201891965e-01 9.413506796984769665e-01
1.857379781168545796e-01 6.723549375319990418e-01
1.867785270135199627e-01 5.578028877532972274e-01
1.878190759101853458e-01 6.496522923600913657e-01
1.888596248068507288e-01 4.854967284039553022e-01
1.899001737035161119e-01 5.074697481255299181e-01
1.909407226001814950e-01 2.560199264213451897e-01
1.919812714968468781e-01 2.855601720391689469e-01
1.930218203935122612e-01 3.197454466709857002e-01
1.940623692901776443e-01 4.787554471723183269e-01
1.951029181868430273e-01 5.081675993466454599e-01
1.961434670835084104e-01 5.221391611597532290e-01
1.971840159801737935e-01 9.720037326636941089e-01
1.982245648768391766e-01 9.941961758019317585e-01
1.992651137735045597e-01 9.216620689227141838e-01
2.003056626701699428e-01 1.284430268868213432e+00
2.013462115668353813e-01 1.567938976877830015e+00
2.023867604635007644e-01 1.807362356876133447e+00
2.034273093601661475e-01 2.096670607280991305e+00
2.044678582568315306e-01 2.441187623801752693e+00
2.055084071534969137e-01 2.586765241767295720e+00
2.065489560501622968e-01 2.708702554190534073e+00
2.075895049468276798e-01 3.605260239999253713e+00
2.086300538434930629e-01 3.769902080442829373e+00
2.096706027401584460e-01 2.925147282711559882e+00
2.107111516368238291e-01 2.246017425847217197e+00
2.117517005334892122e-01 1.753089052851432683e+00
2.127922494301545953e-01 1.564266004711242886e+00
2.138327983268199783e-01 1.158736997831280036e+00
2.148733472234853614e-01 1.072363097893415329e+00
2.159138961201507445e-01 1.029928105175251574e+00
2.169544450168161276e-01 1.127407712528420092e+00
2.179949939134815107e-01 1.393083039936339418e+00
2.190355428101468938e-01 1.026799301662837394e+00
2.200760917068122768e-01 9.416474245277903776e-01
2.211166406034776599e-01 1.086270544201429544e+00
2.221571895001430430e-01 1.409156256136192553e+00
2.231977383968084261e-01 1.707787126922259091e+00
2.242382872934738092e-01 1.962747993288850523e+00
2.252788361901391923e-01 2.493436625604797285e+00
2.263193850868045753e-01 3.411568548299353409e+00
2.273599339834699584e-01 4.370165521108010154e+00
2.284004828801353415e-01 4.626119888940323222e+00
2.294410317768007246e-01 4.304998166000537196e+00
2.304815806734661077e-01 3.361717168233983699e+00
2.315221295701314908e-01 2.670428395020511658e+00
2.325626784667968738e-01 2.332219300976227316e+00
2.336032273634622569e-01 1.773900256658620833e+00
2.346437762601276400e-01 1.739671598104624906e+00
2.356843251567930231e-01 1.765666699195900691e+00
2.367248740534584062e-01 1.830536968280345178e+00
2.377654229501237892e-01 2.164994676893204684e+00
2.388059718467891723e-01 2.414148924744690561e+00
2.398465207434545554e-01 2.831673467740891681e+00
2.408870696401199385e-01 3.628477949726551799e+00
2.419276185367853216e-01 4.137067283981593846e+00
2.429681674334507047e-01 3.737002203970309466e+00
2.440087163301160877e-01 3.196749976998241038e+00
2.450492652267814708e-01 2.392589903553155040e+00
2.460898141234468539e-01 1.454016326937608738e+00
2.471303630201122370e-01 8.556253992591109636e-01
2.481709119167776201e-01 7.855460267231642035e-01
2.492114608134430032e-01 6.389069290577431559e-01
2.502520097101083585e-01 3.386156251213137125e-01
2.512925586067737416e-01 5.077350809301215406e-01
2.523331075034391247e-01 4.824403909648538047e-01
2.533736564001045077e-01 5.322875727411471303e-01
2.544142052967698908e-01 4.634633891096875402e-01
2.554547541934352739e-01 5.135455034706133404e-01
2.564953030901006570e-01 4.930294210682788503e-01
2.575358519867660401e-01 2.754204368488188948e-01
2.585764008834314231e-01 2.516386365801217551e-01
2.596169497800968062e-01 3.136142960301064875e-01
2.606574986767621893e-01 6.325268792518841110e-01
2.616980475734275724e-01 6.871777428344856276e-01
2.627385964700929555e-01 7.846799165871232162e-01
2.637791453667583386e-01 3.234551239863741046e-01
2.648196942634237216e-01 4.891907352386404284e-01
2.658602431600891047e-01 3.812566355976692023e-01
2.669007920567544878e-01 3.426517399077049220e-01
2.679413409534198709e-01 3.069620552167187100e-01
2.689818898500852540e-01 5.426085044783981459e-01
2.700224387467506371e-01 5.413665145052419803e-01
2.710629876434160201e-01 2.353403320252347442e-01
2.721035365400814032e-01 2.623220547589930618e-01
2.731440854367467863e-01 2.865604327257322836e-01
2.741846343334121694e-01 1.989907196670230860e-01
2.752251832300775525e-01 5.711789028475777741e-02
2.762657321267429356e-01 2.643937054700025158e-01
2.773062810234083186e-01 3.198592039869652126e-01
2.783468299200737017e-01 1.757202469266765377e-01
2.793873788167390848e-01 3.887245023338543604e-01
2.804279277134044679e-01 5.543655307180159753e-01
2.814684766100698510e-01 4.208604574148537836e-01
2.825090255067352341e-01 4.859995514359845004e-01
2.835495744034006171e-01 3.191938767244657527e-01
2.845901233000660002e-01 4.640847409557835590e-03
2.856306721967313833e-01 6.415334867127242546e-02
2.866712210933967664e-01 2.231591277028535103e-01
2.877117699900621495e-01 4.403258615397724896e-01
2.887523188867275326e-01 1.023590623164061242e-01
2.897928677833929156e-01 7.971734061538526817e-02
2.908334166800582987e-01 3.908159279567122724e-01
2.918739655767236818e-01 4.929452091655583956e-01
2.929145144733890649e-01 5.457420657324263402e-01
2.939550633700544480e-01 5.167981062716258123e-01
2.949956122667198311e-01 6.335477989887152717e-01
2.960361611633852141e-01 5.239412063829824717e-01
2.970767100600505972e-01 6.057846777358300017e-01
2.981172589567159803e-01 7.119016855818003364e-01
2.991578078533813634e-01 8.030507157912118998e-01
3.001983567500468020e-01 6.245181632425200746e-01
3.012389056467121851e-01 5.997541582820353767e-01
3.022794545433775681e-01 7.259448202747122991e-01
3.033200034400429512e-01 9.654372799881905109e-01
3.043605523367083343e-01 1.042840604703624052e+00
3.054011012333737174e-01 1.185176297337807938e+00
3.064416501300391005e-01 1.325453451687145900e+00
3.074821990267044836e-01 1.315901455008500420e+00
3.085227479233698666e-01 1.165640975115028510e+00
3.095632968200352497e-01 9.835968346871410972e-01
3.106038457167006328e-01 7.729952557620798359e-01
3.116443946133660159e-01 6.912301654221337799e-01
3.126849435100313990e-01 5.981458090188489507e-01
3.137254924066967821e-01 2.438291024071972402e-01
3.147660413033621651e-01 2.332643703232406551e-02
3.158065902000275482e-01 2.405484205277161891e-01
3.168471390966929313e-01 3.471939986099350506e-01
3.178876879933583144e-01 3.316282515631492345e-01
3.189282368900236975e-01 5.549704237933035245e-01
3.199687857866890806e-01 6.202330433437168722e-01
3.210093346833544636e-01 4.683485291826734453e-01
3.220498835800198467e-01 4.178864607232419814e-01
3.230904324766852298e-01 4.149899238939411816e-01
3.241309813733506129e-01 3.051402035934493995e-01
3.251715302700159960e-01 3.209612203776117667e-01
3.262120791666813790e-01 3.581770097043062151e-01
3.272526280633467621e-01 5.730864803659159179e-01
3.282931769600121452e-01 6.681450765405578807e-01
3.293337258566775283e-01 6.459857868395957325e-01
3.303742747533429114e-01 6.945660836227673940e-01
3.314148236500082945e-01 7.236897769175989481e-01
3.324553725466736775e-01 6.307930377104504771e-01
3.334959214433390606e-01 6.268417304272020374e-01
3.345364703400044437e-01 5.038864510283964648e-01
3.355770192366698268e-01 5.583751490702333342e-01
3.366175681333352099e-01 5.280501722194408387e-01
3.376581170300005930e-01 6.376077887860986948e-01
3.386986659266659760e-01 4.910113544594203461e-01
3.397392148233313591e-01 4.796328130932252520e-01
3.407797637199967422e-01 4.013848382013733840e-01
3.418203126166621253e-01 3.510025519047097475e-01
3.428608615133275084e-01 4.250241537617007737e-01
3.439014104099928915e-01 3.328565611279934444e-01
3.449419593066582745e-01 2.681023095028152170e-01
3.459825082033236576e-01 2.164060351725325404e-01
3.470230570999890407e-01 2.317795521420862315e-01
3.480636059966544238e-01 2.760612749392379328e-01
3.491041548933198069e-01 1.879662191048225850e-01
3.501447037899851900e-01 1.901171464790074594e-01
3.511852526866505730e-01 1.316651207514780708e-01
3.522258015833159561e-01 1.105252914248886498e-01
3.532663504799813392e-01 1.513082105067269367e-01
3.543068993766467223e-01 6.657919063887263178e-02
3.553474482733121054e-01 2.814748711929055958e-01
3.563879971699774885e-01 3.163894005998884040e-01
3.574285460666428715e-01 3.248849822189612269e-01
3.584690949633082546e-01 2.719448467781759859e-01
3.595096438599736377e-01 4.869515434846007906e-01
3.605501927566390208e-01 4.699892318425327176e-01
3.615907416533044039e-01 3.730219582463369932e-01
3.626312905499697870e-01 3.287280446602167672e-01
3.636718394466351700e-01 1.870386124205865030e-01
3.647123883433005531e-01 1.996651091937167166e-01
3.657529372399659362e-01 1.736030119122844440e-01
3.667934861366313193e-01 1.615588256054749650e-01
3.678340350332967024e-01 2.395311893827596350e-01
3.688745839299620854e-01 9.528759292286892446e-02
3.699151328266274685e-01 8.247817999747653062e-02
3.709556817232928516e-01 1.983765070266372277e-01
3.719962306199582347e-01 0.000000000000000000e+00
3.730367795166236178e-01 2.778580226212028492e-01
3.740773284132890009e-01 1.742768116041162330e-01
3.751178773099543839e-01 2.261951836969977592e-01
3.761584262066197670e-01 3.184702731053654645e-01
3.771989751032851501e-01 3.533157582369277350e-01
3.782395239999505332e-01 3.376646743625855152e-01
3.792800728966159163e-01 3.622238804091040265e-01
3.803206217932812994e-01 6.236690831705580251e-01
3.813611706899466824e-01 4.036896522106161456e-01
3.824017195866120655e-01 3.220115982498512608e-01
3.834422684832774486e-01 3.974182262677317112e-01
3.844828173799428317e-01 5.856721353365266225e-01
3.855233662766082148e-01 6.181562335229919825e-01
3.865639151732735979e-01 5.740331596445571449e-01
3.876044640699389809e-01 2.768678074970729597e-01
3.886450129666043640e-01 3.115703745231250821e-01
3.896855618632697471e-01 4.827555075681040364e-01
3.907261107599351302e-01 5.185093366226993794e-01
3.917666596566005133e-01 5.155648978872022781e-01
3.928072085532658964e-01 2.893948059364142011e-01
3.938477574499312794e-01 2.346945716259014603e-01
3.948883063465966625e-01 5.588578383723366017e-01
3.959288552432620456e-01 4.780697845426367110e-01
3.969694041399274287e-01 2.900213041033516959e-01
3.980099530365928118e-01 5.666630856663097404e-01
3.990505019332581949e-01 6.052082836700698465e-01
4.000910508299235779e-01 4.218033519137307508e-01
4.011315997265889610e-01 4.068526206986007310e-01
4.021721486232543441e-01 6.537955698835595797e-01
4.032126975199197272e-01 6.328928754896452347e-01
4.042532464165851103e-01 6.189054573604622078e-01
4.052937953132504934e-01 3.678769422833347846e-01
4.063343442099158764e-01 4.171249295582164507e-01
4.073748931065812595e-01 5.733261713631385703e-01
4.084154420032466426e-01 6.940302881099214005e-01
4.094559908999120257e-01 4.712542899135030439e-01
4.104965397965774088e-01 2.995805726043165862e-01
4.115370886932427918e-01 3.634962070665288536e-01
4.125776375899081749e-01 3.343599713425646769e-01
4.136181864865735580e-01 2.693080671566683293e-01
4.146587353832389411e-01 1.897676126874472402e-01
4.156992842799043242e-01 3.552047704766287950e-01
4.167398331765697073e-01 3.840112121397893929e-01
4.177803820732350903e-01 2.215647100386597401e-01
4.188209309699004734e-01 2.719528166588673912e-01
4.198614798665658565e-01 3.659586002787946768e-01
4.209020287632312396e-01 3.028547821104403681e-01
4.219425776598966227e-01 1.196141849934626578e-01
4.229831265565620058e-01 3.794722502429230815e-01
4.240236754532273888e-01 3.724376588741478145e-01
4.250642243498927719e-01 3.007919585466893864e-01
4.261047732465581550e-01 4.911398137511078232e-01
4.271453221432235381e-01 5.597454461505755319e-01
4.281858710398889212e-01 3.844069502130871285e-01
4.292264199365543043e-01 3.660002433390054932e-01
4.302669688332196873e-01 3.594534675820568737e-01
4.313075177298850704e-01 3.386526677572909705e-01
4.323480666265504535e-01 1.230274131627702161e-01
4.333886155232158366e-01 1.349275159906575539e-01
4.344291644198812197e-01 1.922611465180104062e-01
