# q (1/Angstrom), Intensity (arb)
2.029070354705860696e-02 8.827649016043170604e+01
2.133125244372399004e-02 7.420388833369014492e+01
2.237180134038937659e-02 6.135470063200648383e+01
2.341235023705475968e-02 5.112897616533285827e+01
2.445289913372014276e-02 4.449309178341201232e+01
2.549344803038552584e-02 3.915172201575352062e+01
2.653399692705091240e-02 3.425414781809205067e+01
2.757454582371629548e-02 3.170561072914084377e+01
2.861509472038167856e-02 2.947703472782795586e+01
2.965564361704706164e-02 2.561651602042958586e+01
3.069619251371244473e-02 2.198315271898464118e+01
3.173674141037782781e-02 1.994974978612833638e+01
3.277729030704321089e-02 1.991623475501688745e+01
3.381783920370859398e-02 2.018125692497903145e+01
3.485838810037397706e-02 1.831631632315611569e+01
3.589893699703936014e-02 1.761898987920933024e+01
3.693948589370474322e-02 1.640346165504886500e+01
3.798003479037012631e-02 1.513591496060446673e+01
3.902058368703550939e-02 1.418745402431509461e+01
4.006113258370089247e-02 1.426032619056920225e+01
4.110168148036627556e-02 1.368675676173074152e+01
4.214223037703165864e-02 1.277080085623925498e+01
4.318277927369704866e-02 1.194274099577994264e+01
4.422332817036243174e-02 1.235408855418150154e+01
4.526387706702781483e-02 1.227899244192906991e+01
4.630442596369319791e-02 1.189416339307300774e+01
4.734497486035858099e-02 1.139535735762652280e+01
4.838552375702396408e-02 1.194228306649873161e+01
4.942607265368934716e-02 1.139274775759470515e+01
5.046662155035473024e-02 1.194327500116165908e+01
5.150717044702011332e-02 1.188289861845217388e+01
5.254771934368549641e-02 1.159054135430504573e+01
5.358826824035087949e-02 1.224295502408615732e+01
5.462881713701626257e-02 1.246013699059295021e+01
5.566936603368164566e-02 1.286790620881765079e+01
5.670991493034702874e-02 1.290269244913882574e+01
5.775046382701241182e-02 1.222916222969231370e+01
5.879101272367779490e-02 1.251037802062642612e+01
5.983156162034317799e-02 1.326157863733455144e+01
6.087211051700856107e-02 1.327318264475846377e+01
6.191265941367394415e-02 1.343521733050884848e+01
6.295320831033933417e-02 1.419740855357537868e+01
6.399375720700471726e-02 1.545451283408019805e+01
6.503430610367010034e-02 1.606281956128753308e+01
6.607485500033548342e-02 1.751404550066516208e+01
6.711540389700086651e-02 1.902719146257323501e+01
6.815595279366624959e-02 2.068806041076040003e+01
6.919650169033163267e-02 2.289571031451899330e+01
7.023705058699701576e-02 2.537626039482799456e+01
7.127759948366239884e-02 2.692844413989787711e+01
7.231814838032778192e-02 2.996304385749588306e+01
7.335869727699316500e-02 3.217978510711345308e+01
7.439924617365854809e-02 3.481846954751185308e+01
7.543979507032393117e-02 3.797286906056083211e+01
7.648034396698931425e-02 4.405996451276842407e+01
7.752089286365469734e-02 5.671018226033750409e+01
7.856144176032008042e-02 8.610701371844697860e+01
7.960199065698546350e-02 1.499194978261149913e+02
8.064253955365084658e-02 2.322613282552974567e+02
8.168308845031622967e-02 3.023026920705221983e+02
8.272363734698161275e-02 4.080419802490989127e+02
8.376418624364699583e-02 6.520744130439310311e+02
8.480473514031239279e-02 9.923884983364747541e+02
8.584528403697777588e-02 1.045803251801744182e+03
8.688583293364315896e-02 7.232869932105676298e+02
8.792638183030854204e-02 4.269308163106703091e+02
8.896693072697392513e-02 2.933349398946429574e+02
9.000747962363930821e-02 2.317702652229752687e+02
9.104802852030469129e-02 1.934744253104564962e+02
9.208857741697007437e-02 1.645521796853173839e+02
9.312912631363545746e-02 1.435062313278128556e+02
9.416967521030084054e-02 1.280293720905883390e+02
9.521022410696622362e-02 1.179772227901217718e+02
9.625077300363160671e-02 1.199776290244663528e+02
9.729132190029698979e-02 1.315985185851588426e+02
9.833187079696237287e-02 1.335329366839386580e+02
9.937241969362775595e-02 1.064375407097164725e+02
1.004129685902931390e-01 6.558440763377419103e+01
1.014535174869585221e-01 3.713784991971179750e+01
1.024940663836239052e-01 2.277843659717758129e+01
1.035346152802892883e-01 1.585552113780332206e+01
1.045751641769546714e-01 1.238738423749347817e+01
1.056157130736200545e-01 9.663553008778912101e+00
1.066562619702854375e-01 7.692313500072330612e+00
1.076968108669508206e-01 6.413950470017105943e+00
1.087373597636162037e-01 5.699570049843757147e+00
1.097779086602815868e-01 5.167210269666050237e+00
1.108184575569469699e-01 4.517741030711384553e+00
1.118590064536123529e-01 3.791219053965626529e+00
1.128995553502777360e-01 3.844262103795166752e+00
1.139401042469431191e-01 3.218345387986730088e+00
1.149806531436085022e-01 2.401254054718748421e+00
1.160212020402738853e-01 2.254367677649995017e+00
1.170617509369392684e-01 2.280901778478309438e+00
1.181022998336046514e-01 2.396421154937087294e+00
1.191428487302700345e-01 2.134832933516449316e+00
1.201833976269354176e-01 1.753516337369795508e+00
1.212239465236008007e-01 2.283351823633935851e+00
1.222644954202661838e-01 2.130500479825343518e+00
1.233050443169315669e-01 1.716694122685694879e+00
1.243455932135969499e-01 1.756967309030770252e+00
1.253861421102623330e-01 2.068890622606538443e+00
1.264266910069277161e-01 2.540992282254720180e+00
1.274672399035930992e-01 2.870419000091722239e+00
1.285077888002584823e-01 2.887460368729627191e+00
1.295483376969238654e-01 1.942106395912716721e+00
1.305888865935892484e-01 2.184811688624648696e+00
1.316294354902546315e-01 2.526204860430524946e+00
1.326699843869200146e-01 3.230168438975830725e+00
1.337105332835853977e-01 3.629396108356658601e+00
1.347510821802507808e-01 4.109197754103078637e+00
1.357916310769161639e-01 5.782552838836522824e+00
1.368321799735815469e-01 9.406682996252143880e+00
1.378727288702469300e-01 1.713277546385075567e+01
1.389132777669123131e-01 2.482473511958293244e+01
1.399538266635776962e-01 2.436834086343006334e+01
1.409943755602430793e-01 1.809397132361213778e+01
1.420349244569084624e-01 1.171519226465907337e+01
1.430754733535738454e-01 8.606182612317759606e+00
1.441160222502392285e-01 7.314112911453861443e+00
1.451565711469046116e-01 6.262993586370676269e+00
1.461971200435699947e-01 6.182876313833723714e+00
1.472376689402353778e-01 6.196089937933439984e+00
1.482782178369007609e-01 6.256221426715214307e+00
1.493187667335661439e-01 6.048842929738075469e+00
1.503593156302315270e-01 6.055382973719328987e+00
1.513998645268969101e-01 6.482200924645393769e+00
1.524404134235622932e-01 6.449060051165798058e+00
1.534809623202276763e-01 6.382869792895021988e+00
1.545215112168930593e-01 6.840833418750136730e+00
1.555620601135584424e-01 6.846213392017514110e+00
1.566026090102238255e-01 7.419678524925235052e+00
1.576431579068892086e-01 8.744966177029084520e+00
1.586837068035545917e-01 1.124240185157393057e+01
1.597242557002199748e-01 1.607948065508665891e+01
1.607648045968853578e-01 2.455286256207811135e+01
1.618053534935507409e-01 3.937285660149439792e+01
1.628459023902161240e-01 5.508285944141565693e+01
1.638864512868815071e-01 5.646232334245940621e+01
1.649270001835468902e-01 4.310139805008566327e+01
1.659675490802122733e-01 2.854854049673023297e+01
1.670080979768776563e-01 1.996903182541789690e+01
1.680486468735430672e-01 1.665227919654429201e+01
1.690891957702084503e-01 1.659860933696779028e+01
1.701297446668738333e-01 1.686500950485729433e+01
1.711702935635392164e-01 1.493116498158730110e+01
1.722108424602045995e-01 1.108742316999538602e+01
1.732513913568699826e-01 7.668217153391715613e+00
1.742919402535353657e-01 5.195812915595631409e+00
1.753324891502007488e-01 3.857907261907474350e+00
1.763730380468661318e-01 2.980461830797370482e+00
1.774135869435315149e-01 2.661422994066096948e+00
1.784541358401968980e-01 2.296918240969223035e+00
1.794946847368622811e-01 1.600111066095912804e+00
1.805352336335276642e-01 1.630926070735323918e+00
1.815757825301930473e-01 1.792553734039479707e+00
1.826163314268584303e-01 1.653542701123420500e+00
1.836568803235238134e-01 1.438149845664892013e+00
1.846974292201891965e-01 1.588493952573500678e+00
1.857379781168545796e-01 1.457149685143189544e+00
1.867785270135199627e-01 1.215309921368650237e+00
1.878190759101853458e-01 1.078625252935580647e+00
1.888596248068507288e-01 1.282139201200198642e+00
1.899001737035161119e-01 1.518563689066954936e+00
1.909407226001814950e-01 1.529583815816085490e+00
1.919812714968468781e-01 1.054935583845725944e+00
1.930218203935122612e-01 1.220041599957198741e+00
1.940623692901776443e-01 1.318262408244315509e+00
1.951029181868430273e-01 1.233481141070782883e+00
1.961434670835084104e-01 1.238217366166608713e+00
1.971840159801737935e-01 1.431670339447656204e+00
1.982245648768391766e-01 1.114411142956818423e+00
1.992651137735045597e-01 9.918282455726199487e-01
2.003056626701699428e-01 1.120401540666918550e+00
2.013462115668353813e-01 1.216776460752672762e+00
2.023867604635007644e-01 1.045706576215479799e+00
2.034273093601661475e-01 9.841147976105624195e-01
2.044678582568315306e-01 1.003085784997445273e+00
2.055084071534969137e-01 1.190294087610908491e+00
2.065489560501622968e-01 8.902482435282763618e-01
2.075895049468276798e-01 1.038649246171512885e+00
2.086300538434930629e-01 1.269736158102052315e+00
2.096706027401584460e-01 1.212753141892402908e+00
2.107111516368238291e-01 8.540411900038016313e-01
2.117517005334892122e-01 8.785688350073641573e-01
2.127922494301545953e-01 6.356884069403037074e-01
2.138327983268199783e-01 9.085819048030394640e-01
2.148733472234853614e-01 1.211221161945086777e+00
2.159138961201507445e-01 1.262650068736682840e+00
2.169544450168161276e-01 1.206249516038621294e+00
2.179949939134815107e-01 1.523578915585250826e+00
2.190355428101468938e-01 1.835458750198878164e+00
2.200760917068122768e-01 1.806139739983247949e+00
2.211166406034776599e-01 1.920575868192681668e+00
2.221571895001430430e-01 1.775152821113692880e+00
2.231977383968084261e-01 1.555109751912567617e+00
2.242382872934738092e-01 1.466315271207776050e+00
2.252788361901391923e-01 1.221721575022964856e+00
2.263193850868045753e-01 1.052300921991729865e+00
2.273599339834699584e-01 1.047794094309853818e+00
2.284004828801353415e-01 1.188398218598869960e+00
2.294410317768007246e-01 1.278914177293348331e+00
2.304815806734661077e-01 1.325790270770465185e+00
2.315221295701314908e-01 1.305235792421012064e+00
2.325626784667968738e-01 1.291428395563613662e+00
2.336032273634622569e-01 1.510159026798511661e+00
2.346437762601276400e-01 1.424648510251124378e+00
2.356843251567930231e-01 1.333535825389450480e+00
2.367248740534584062e-01 1.369804805417260241e+00
2.377654229501237892e-01 1.750524548696358096e+00
2.388059718467891723e-01 2.245155864765855824e+00
2.398465207434545554e-01 2.930985749768598936e+00
2.408870696401199385e-01 3.441612360742976051e+00
2.419276185367853216e-01 3.537708218925434522e+00
2.429681674334507047e-01 3.055253015257921589e+00
2.440087163301160877e-01 2.423768736887900843e+00
2.450492652267814708e-01 1.981071030511245112e+00
2.460898141234468539e-01 1.821789647511497634e+00
2.471303630201122370e-01 1.643853127527904689e+00
2.481709119167776201e-01 1.498745156865989969e+00
2.492114608134430032e-01 1.405303275036633437e+00
2.502520097101083585e-01 1.612975452207464855e+00
2.512925586067737416e-01 1.718694998749857206e+00
2.523331075034391247e-01 1.894325637719177280e+00
2.533736564001045077e-01 2.371536488298620071e+00
2.544142052967698908e-01 2.993664519058850004e+00
2.554547541934352739e-01 3.541648074927575607e+00
2.564953030901006570e-01 3.463332428546273434e+00
2.575358519867660401e-01 2.981348077153704423e+00
2.585764008834314231e-01 2.142473404652619706e+00
2.596169497800968062e-01 1.631702791022469512e+00
2.606574986767621893e-01 1.209401739645080909e+00
2.616980475734275724e-01 1.056534136749331054e+00
2.627385964700929555e-01 1.063548653847213643e+00
2.637791453667583386e-01 8.598001616232018307e-01
2.648196942634237216e-01 6.885401650557341213e-01
2.658602431600891047e-01 9.380444352873169578e-01
2.669007920567544878e-01 8.920750198495674965e-01
2.679413409534198709e-01 4.996290849897810915e-01
2.689818898500852540e-01 6.439499982334879746e-01
2.700224387467506371e-01 7.188547129494970989e-01
2.710629876434160201e-01 6.010081079028921636e-01
2.721035365400814032e-01 7.101757982594811835e-01
2.731440854367467863e-01 7.848537342937049743e-01
2.741846343334121694e-01 8.452260986775286256e-01
2.752251832300775525e-01 7.663548441891414598e-01
2.762657321267429356e-01 9.343089732490454935e-01
2.773062810234083186e-01 7.961653121243372766e-01
2.783468299200737017e-01 7.824268743967195405e-01
2.793873788167390848e-01 7.123817012463256049e-01
2.804279277134044679e-01 7.831825691697531511e-01
2.814684766100698510e-01 5.916808768422683329e-01
2.825090255067352341e-01 7.289870590407829809e-01
2.835495744034006171e-01 7.153624710697847888e-01
2.845901233000660002e-01 5.181293478546002973e-01
2.856306721967313833e-01 5.927243965982675888e-01
2.866712210933967664e-01 5.225257429751337668e-01
2.877117699900621495e-01 1.257367169120584549e-01
2.887523188867275326e-01 2.310812354714641970e-01
2.897928677833929156e-01 3.953870591416723812e-01
2.908334166800582987e-01 4.491745519945276044e-01
2.918739655767236818e-01 4.624146032665130690e-01
2.929145144733890649e-01 4.646317118478506814e-01
2.939550633700544480e-01 4.506125404785450428e-01
2.949956122667198311e-01 3.994211274813075363e-01
2.960361611633852141e-01 2.833203852212449192e-01
2.970767100600505972e-01 4.335937295843734773e-01
2.981172589567159803e-01 3.431160765144873892e-01
2.991578078533813634e-01 4.286316562422385346e-01
3.001983567500468020e-01 6.543429316011533103e-01
3.012389056467121851e-01 5.911279511785636487e-01
3.022794545433775681e-01 8.163157419789399682e-01
3.033200034400429512e-01 5.019325939722314445e-01
3.043605523367083343e-01 5.209247943545918247e-01
3.054011012333737174e-01 5.264565844605328948e-01
3.064416501300391005e-01 6.366987757573703277e-01
3.074821990267044836e-01 6.086828767328427148e-01
3.085227479233698666e-01 4.954261430519117937e-01
3.095632968200352497e-01 6.081864089532906803e-01
3.106038457167006328e-01 4.498617675785681058e-01
3.116443946133660159e-01 4.363789973701486247e-01
3.126849435100313990e-01 5.266100358824665761e-01
3.137254924066967821e-01 4.530858778513291441e-01
3.147660413033621651e-01 3.500660569557716428e-01
3.158065902000275482e-01 4.962056081166394961e-01
3.168471390966929313e-01 6.332048774748351150e-01
3.178876879933583144e-01 7.211239962254865077e-01
3.189282368900236975e-01 8.573753497855030048e-01
3.199687857866890806e-01 7.674937105744348287e-01
3.210093346833544636e-01 1.050217645816061918e+00
3.220498835800198467e-01 8.171252919175913121e-01
3.230904324766852298e-01 8.569523364574287427e-01
3.241309813733506129e-01 8.927563614101714506e-01
3.251715302700159960e-01 8.456597561647676287e-01
3.262120791666813790e-01 8.881578008629986698e-01
3.272526280633467621e-01 8.180247747801381308e-01
3.282931769600121452e-01 7.976124784523754840e-01
3.293337258566775283e-01 8.699961434654071013e-01
3.303742747533429114e-01 1.022012832337264143e+00
3.314148236500082945e-01 6.754464308133165673e-01
3.324553725466736775e-01 5.322081955753539262e-01
3.334959214433390606e-01 4.582689821308818523e-01
3.345364703400044437e-01 4.625078130637838569e-01
3.355770192366698268e-01 4.641267629928798044e-01
3.366175681333352099e-01 3.943308908227081133e-01
3.376581170300005930e-01 6.640060997081924654e-01
3.386986659266659760e-01 8.872876034287209279e-01
3.397392148233313591e-01 8.478466044822852155e-01
3.407797637199967422e-01 8.791934293125542865e-01
3.418203126166621253e-01 8.899800708230394264e-01
3.428608615133275084e-01 7.679573769995151622e-01
3.439014104099928915e-01 8.559112783680085101e-01
3.449419593066582745e-01 8.221250021637160899e-01
3.459825082033236576e-01 6.295235508512853073e-01
3.470230570999890407e-01 5.785311227575853366e-01
3.480636059966544238e-01 6.119550044587853677e-01
3.491041548933198069e-01 4.591566225462138107e-01
3.501447037899851900e-01 6.421183403177330717e-01
3.511852526866505730e-01 8.526141528824098259e-01
3.522258015833159561e-01 9.608337664828354718e-01
3.532663504799813392e-01 1.065746127760810680e+00
3.543068993766467223e-01 9.210751450942851193e-01
3.553474482733121054e-01 9.097652410493708430e-01
3.563879971699774885e-01 9.231113489283231388e-01
3.574285460666428715e-01 6.324403517231544924e-01
3.584690949633082546e-01 6.030772071158700953e-01
3.595096438599736377e-01 5.185836067357847412e-01
3.605501927566390208e-01 4.974577125993278059e-01
3.615907416533044039e-01 6.548396534140863423e-01
3.626312905499697870e-01 6.707183754925161168e-01
3.636718394466351700e-01 6.524778642311019894e-01
3.647123883433005531e-01 5.552502270405064166e-01
3.657529372399659362e-01 6.545852260364206643e-01
3.667934861366313193e-01 6.492882870176330812e-01
3.678340350332967024e-01 7.208195019538123915e-01
3.688745839299620854e-01 4.776166045099792257e-01
3.699151328266274685e-01 4.854823381598691867e-01
3.709556817232928516e-01 2.787494072124090394e-01
3.719962306199582347e-01 4.040996440651589694e-01
3.730367795166236178e-01 4.902552978487477731e-01
3.740773284132890009e-01 3.791509841287279414e-01
3.751178773099543839e-01 3.870139781079195984e-01
3.761584262066197670e-01 2.977787523633779188e-01
3.771989751032851501e-01 4.562968996638332442e-01
3.782395239999505332e-01 5.134471056801324096e-01
3.792800728966159163e-01 4.929559438797674886e-01
3.803206217932812994e-01 3.347461957839463764e-01
3.813611706899466824e-01 5.164806341622210084e-01
3.824017195866120655e-01 5.383095555282011446e-01
3.834422684832774486e-01 5.541876673498009609e-01
3.844828173799428317e-01 6.279714260687399019e-01
3.855233662766082148e-01 5.322377987165047841e-01
3.865639151732735979e-01 4.805116933378208444e-01
3.876044640699389809e-01 4.989224750330123470e-01
3.886450129666043640e-01 5.309387698544583145e-01
3.896855618632697471e-01 5.357969546583127851e-01
3.907261107599351302e-01 2.889045948696455923e-01
3.917666596566005133e-01 3.868709833357755201e-01
3.928072085532658964e-01 6.800659573237410882e-01
3.938477574499312794e-01 5.941336536400783075e-01
3.948883063465966625e-01 5.209241060378175803e-01
3.959288552432620456e-01 7.105546166205378711e-01
3.969694041399274287e-01 6.571536831471149753e-01
3.980099530365928118e-01 6.950199117864954701e-01
3.990505019332581949e-01 5.037113085773512466e-01
4.000910508299235779e-01 5.035218367932614569e-01
4.011315997265889610e-01 5.512694419859940353e-01
4.021721486232543441e-01 5.210076171699107306e-01
4.032126975199197272e-01 6.421878095738833281e-01
4.042532464165851103e-01 6.396886800867065404e-01
4.052937953132504934e-01 6.867641475975005960e-01
4.063343442099158764e-01 7.031332527628002538e-01
4.073748931065812595e-01 7.185416212635189481e-01
4.084154420032466426e-01 5.807367355717083512e-01
4.094559908999120257e-01 6.064697871278248442e-01
4.104965397965774088e-01 4.140599876131290102e-01
4.115370886932427918e-01 4.594512445071110562e-01
4.125776375899081749e-01 6.645423203774178944e-01
4.136181864865735580e-01 4.856441423488178089e-01
4.146587353832389411e-01 5.148428592694038741e-01
4.156992842799043242e-01 5.856681688973957023e-01
4.167398331765697073e-01 4.628997162542809463e-01
4.177803820732350903e-01 5.945865939887369223e-01
4.188209309699004734e-01 5.818512817204997134e-01
4.198614798665658565e-01 4.031326781348028021e-01
4.209020287632312396e-01 4.776501798655559128e-01
4.219425776598966227e-01 4.661265451963068074e-01
4.229831265565620058e-01 3.980573416265933417e-01
4.240236754532273888e-01 3.722031783331232191e-01
4.250642243498927719e-01 1.085615937688082511e-01
4.261047732465581550e-01 0.000000000000000000e+00
4.271453221432235381e-01 1.203034033341801035e-01
4.281858710398889212e-01 3.585510310427828529e-01
4.292264199365543043e-01 5.987020483209128940e-01
4.302669688332196873e-01 6.858830589718287740e-01
4.313075177298850704e-01 6.358313552353571652e-01
4.323480666265504535e-01 5.007870187951048990e-01
4.333886155232158366e-01 6.363382673684228052e-01
4.344291644198812197e-01 6.014076227140101594e-01
