# q (1/Angstrom), Intensity (arb)
2.029070354705860696e-02 1.055904217570413266e+02
2.133125244372399004e-02 9.048463861840630784e+01
2.237180134038937659e-02 7.807057592536568791e+01
2.341235023705475968e-02 6.691522713125263522e+01
2.445289913372014276e-02 5.903770420728974955e+01
2.549344803038552584e-02 4.929793048777770537e+01
2.653399692705091240e-02 4.386570558068586934e+01
2.757454582371629548e-02 4.035226014019690410e+01
2.861509472038167856e-02 3.555305768153141344e+01
2.965564361704706164e-02 3.259919559151029489e+01
3.069619251371244473e-02 2.997665683548714810e+01
3.173674141037782781e-02 2.755540846518448461e+01
3.277729030704321089e-02 2.576150323819605603e+01
3.381783920370859398e-02 2.436385249288339594e+01
3.485838810037397706e-02 2.288820852327705069e+01
3.589893699703936014e-02 2.084895770823992933e+01
3.693948589370474322e-02 2.043548488344180925e+01
3.798003479037012631e-02 1.973455092632740104e+01
3.902058368703550939e-02 1.890418337503759716e+01
4.006113258370089247e-02 1.840975672189804868e+01
4.110168148036627556e-02 1.807963759672612269e+01
4.214223037703165864e-02 1.742236581885092761e+01
4.318277927369704866e-02 1.715072771172635413e+01
4.422332817036243174e-02 1.607186841310802805e+01
4.526387706702781483e-02 1.610766921284884745e+01
4.630442596369319791e-02 1.599706875798504768e+01
4.734497486035858099e-02 1.505875174878563172e+01
4.838552375702396408e-02 1.417654533326381028e+01
4.942607265368934716e-02 1.555777563595208335e+01
5.046662155035473024e-02 1.603358434013345857e+01
5.150717044702011332e-02 1.628430870950226961e+01
5.254771934368549641e-02 1.585188631343321930e+01
5.358826824035087949e-02 1.593615059801060596e+01
5.462881713701626257e-02 1.576308767354829854e+01
5.566936603368164566e-02 1.594276192125794722e+01
5.670991493034702874e-02 1.744952569090171579e+01
5.775046382701241182e-02 1.807758359214756183e+01
5.879101272367779490e-02 1.887999435624603706e+01
5.983156162034317799e-02 2.020344633842438498e+01
6.087211051700856107e-02 2.070902895397779275e+01
6.191265941367394415e-02 2.199725052339454123e+01
6.295320831033933417e-02 2.441900992581724239e+01
6.399375720700471726e-02 2.646149761662013589e+01
6.503430610367010034e-02 2.909424947953936424e+01
6.607485500033548342e-02 3.183038654928778044e+01
6.711540389700086651e-02 3.446175595715334339e+01
6.815595279366624959e-02 3.752570171555312584e+01
6.919650169033163267e-02 4.121784927894854889e+01
7.023705058699701576e-02 4.575800157282864689e+01
7.127759948366239884e-02 5.143099242586222175e+01
7.231814838032778192e-02 6.217906684286065655e+01
7.335869727699316500e-02 8.757934737300263350e+01
7.439924617365854809e-02 1.473430855930635062e+02
7.543979507032393117e-02 2.482290285716268272e+02
7.648034396698931425e-02 3.550431762815312027e+02
7.752089286365469734e-02 4.731290440572684020e+02
7.856144176032008042e-02 7.303560870404108982e+02
7.960199065698546350e-02 1.152709514702395609e+03
8.064253955365084658e-02 1.315851848671831704e+03
8.168308845031622967e-02 9.570766616524285837e+02
8.272363734698161275e-02 5.490592431774480247e+02
8.376418624364699583e-02 3.626931684858173526e+02
8.480473514031239279e-02 2.793734748025056547e+02
8.584528403697777588e-02 2.298288272827323908e+02
8.688583293364315896e-02 1.937676147221989709e+02
8.792638183030854204e-02 1.661358776127386534e+02
8.896693072697392513e-02 1.464041004164445212e+02
9.000747962363930821e-02 1.375901935073368065e+02
9.104802852030469129e-02 1.426655706009928508e+02
9.208857741697007437e-02 1.508922373747174390e+02
9.312912631363545746e-02 1.340924934213914241e+02
9.416967521030084054e-02 8.967003090390852549e+01
9.521022410696622362e-02 4.869643194692464760e+01
9.625077300363160671e-02 2.744211516605648882e+01
9.729132190029698979e-02 1.785173553282923820e+01
9.833187079696237287e-02 1.232832485428684777e+01
9.937241969362775595e-02 9.414731802404062933e+00
1.004129685902931390e-01 7.523424160003486350e+00
1.014535174869585221e-01 5.957999222954718732e+00
1.024940663836239052e-01 4.841977941760980286e+00
1.035346152802892883e-01 3.967698804686399683e+00
1.045751641769546714e-01 3.403571335316833313e+00
1.056157130736200545e-01 2.890833102558879375e+00
1.066562619702854375e-01 2.805808370637357996e+00
1.076968108669508206e-01 2.263535233357785614e+00
1.087373597636162037e-01 2.189760623487856606e+00
1.097779086602815868e-01 1.789261794563770991e+00
1.108184575569469699e-01 1.285416939439798512e+00
1.118590064536123529e-01 1.465004086855230980e+00
1.128995553502777360e-01 2.136667784171542905e+00
1.139401042469431191e-01 2.160413278890970901e+00
1.149806531436085022e-01 1.991259501365384210e+00
1.160212020402738853e-01 1.605298990856532271e+00
1.170617509369392684e-01 2.306776881504028154e+00
1.181022998336046514e-01 2.927211428949021865e+00
1.191428487302700345e-01 2.885551173509036005e+00
1.201833976269354176e-01 2.529541476236616404e+00
1.212239465236008007e-01 2.190050505470289011e+00
1.222644954202661838e-01 2.326604841349173114e+00
1.233050443169315669e-01 2.762446765868752152e+00
1.243455932135969499e-01 3.571452370426470679e+00
1.253861421102623330e-01 4.550328256140424799e+00
1.264266910069277161e-01 5.611526182434126042e+00
1.274672399035930992e-01 8.241566335083355455e+00
1.285077888002584823e-01 1.367560192872392122e+01
1.295483376969238654e-01 2.579772352107900701e+01
1.305888865935892484e-01 4.084672456152031828e+01
1.316294354902546315e-01 4.345207289112381943e+01
1.326699843869200146e-01 3.164775740570030393e+01
1.337105332835853977e-01 1.951230311315261901e+01
1.347510821802507808e-01 1.332015537934064753e+01
1.357916310769161639e-01 1.037559797913142035e+01
1.368321799735815469e-01 9.491011543176597343e+00
1.378727288702469300e-01 8.848633965541296220e+00
1.389132777669123131e-01 8.174719501968880309e+00
1.399538266635776962e-01 7.913003009729223436e+00
1.409943755602430793e-01 8.444574000615880038e+00
1.420349244569084624e-01 8.794725762702789496e+00
1.430754733535738454e-01 8.486462402681787864e+00
1.441160222502392285e-01 8.650913394478351393e+00
1.451565711469046116e-01 9.613226218982589444e+00
1.461971200435699947e-01 9.733319216280136743e+00
1.472376689402353778e-01 1.026323058844155867e+01
1.482782178369007609e-01 1.187916609508770449e+01
1.493187667335661439e-01 1.490063644078321659e+01
1.503593156302315270e-01 2.160671219172915869e+01
1.513998645268969101e-01 3.582943356177268157e+01
1.524404134235622932e-01 5.726926493807294349e+01
1.534809623202276763e-01 7.669055052535432537e+01
1.545215112168930593e-01 7.371400706270878800e+01
1.555620601135584424e-01 5.220910813218956292e+01
1.566026090102238255e-01 3.294902804939670915e+01
1.576431579068892086e-01 2.315167977214189676e+01
1.586837068035545917e-01 1.992540084231023201e+01
1.597242557002199748e-01 2.046277859646563968e+01
1.607648045968853578e-01 2.003852475660735166e+01
1.618053534935507409e-01 1.548654558075598686e+01
1.628459023902161240e-01 9.597634167064789779e+00
1.638864512868815071e-01 5.204453662620665000e+00
1.649270001835468902e-01 3.414914538140415345e+00
1.659675490802122733e-01 2.771921248091878454e+00
1.670080979768776563e-01 2.357766419881066611e+00
1.680486468735430672e-01 1.847473923683430996e+00
1.690891957702084503e-01 1.688398630770706177e+00
1.701297446668738333e-01 1.672237265091084168e+00
1.711702935635392164e-01 1.474786530056064748e+00
1.722108424602045995e-01 1.181447389673273562e+00
1.732513913568699826e-01 1.347299160566620913e+00
1.742919402535353657e-01 1.111857313628917154e+00
1.753324891502007488e-01 8.806278427705436229e-01
1.763730380468661318e-01 8.054861094825298551e-01
1.774135869435315149e-01 3.692250368572302932e-01
1.784541358401968980e-01 5.672159976471959908e-01
1.794946847368622811e-01 6.664797457786804102e-01
1.805352336335276642e-01 1.127446914889254970e+00
1.815757825301930473e-01 8.704510471028612528e-01
1.826163314268584303e-01 5.628182705561428634e-01
1.836568803235238134e-01 5.307737227921975887e-01
1.846974292201891965e-01 5.537252323385928321e-01
1.857379781168545796e-01 5.889252854511397572e-01
1.867785270135199627e-01 6.311409616689189761e-01
1.878190759101853458e-01 3.003058589710150272e-01
1.888596248068507288e-01 4.881053859469659528e-01
1.899001737035161119e-01 6.389080932878030694e-01
1.909407226001814950e-01 6.478607053803955296e-01
1.919812714968468781e-01 9.393451847614002759e-01
1.930218203935122612e-01 7.583177526810018776e-01
1.940623692901776443e-01 4.729233618338497536e-01
1.951029181868430273e-01 8.278778330556946230e-01
1.961434670835084104e-01 5.666173950027868500e-01
1.971840159801737935e-01 8.823789525631440256e-01
1.982245648768391766e-01 1.131118602749666024e+00
1.992651137735045597e-01 1.107224335709297236e+00
2.003056626701699428e-01 1.174595396694350313e+00
2.013462115668353813e-01 1.408265922705538742e+00
2.023867604635007644e-01 2.040153977308740707e+00
2.034273093601661475e-01 2.465537272549831016e+00
2.044678582568315306e-01 2.951701356695551226e+00
2.055084071534969137e-01 3.292906870343330183e+00
2.065489560501622968e-01 4.000194198441427318e+00
2.075895049468276798e-01 3.442193538622291271e+00
2.086300538434930629e-01 2.921604419078342119e+00
2.096706027401584460e-01 2.389248444639147095e+00
2.107111516368238291e-01 1.724054161663229223e+00
2.117517005334892122e-01 1.286386155038652390e+00
2.127922494301545953e-01 1.280643192216725623e+00
2.138327983268199783e-01 1.425354994864836300e+00
2.148733472234853614e-01 1.415149193842733411e+00
2.159138961201507445e-01 1.297736759762834424e+00
2.169544450168161276e-01 1.199708883703838325e+00
2.179949939134815107e-01 1.290717619659609738e+00
2.190355428101468938e-01 1.255620910605973251e+00
2.200760917068122768e-01 1.359267806565625847e+00
2.211166406034776599e-01 1.461871714971312741e+00
2.221571895001430430e-01 1.693191214143819678e+00
2.231977383968084261e-01 2.053218795924752982e+00
2.242382872934738092e-01 2.365846436628434191e+00
2.252788361901391923e-01 3.289850980728676433e+00
2.263193850868045753e-01 4.061072250387290694e+00
2.273599339834699584e-01 4.467860000052535696e+00
2.284004828801353415e-01 4.171571197794154529e+00
2.294410317768007246e-01 3.331053413883463321e+00
2.304815806734661077e-01 2.955126224679613500e+00
2.315221295701314908e-01 2.442021344138268546e+00
2.325626784667968738e-01 1.809357738360191092e+00
2.336032273634622569e-01 1.639890619310026665e+00
2.346437762601276400e-01 1.797840273718918525e+00
2.356843251567930231e-01 1.945168839117005888e+00
2.367248740534584062e-01 2.215149242262761220e+00
2.377654229501237892e-01 2.563866892497234318e+00
2.388059718467891723e-01 3.082163581689354004e+00
2.398465207434545554e-01 3.595685320412435715e+00
2.408870696401199385e-01 4.101632278429125478e+00
2.419276185367853216e-01 3.593039712834841026e+00
2.429681674334507047e-01 2.524767113689136977e+00
2.440087163301160877e-01 1.932381119472712072e+00
2.450492652267814708e-01 1.187797828481638618e+00
2.460898141234468539e-01 5.367352767569997241e-01
2.471303630201122370e-01 6.163805125716805833e-01
2.481709119167776201e-01 4.865875526917520233e-01
2.492114608134430032e-01 4.868674070636345164e-01
2.502520097101083585e-01 3.573834779286464425e-01
2.512925586067737416e-01 4.544670543920297234e-01
2.523331075034391247e-01 4.904031664920225353e-01
2.533736564001045077e-01 1.581861844841299103e-01
2.544142052967698908e-01 1.137788512008484076e-01
2.554547541934352739e-01 9.426351528979282079e-02
2.564953030901006570e-01 3.495112742744410639e-01
2.575358519867660401e-01 3.858920443407285461e-01
2.585764008834314231e-01 2.489958142404553598e-01
2.596169497800968062e-01 2.325290991840631705e-01
2.606574986767621893e-01 3.684303127567538638e-01
2.616980475734275724e-01 4.310371221193278757e-01
2.627385964700929555e-01 5.473531800457962504e-01
2.637791453667583386e-01 4.505287278824425812e-01
2.648196942634237216e-01 3.750924577373382363e-01
2.658602431600891047e-01 5.179301202561958917e-02
2.669007920567544878e-01 2.014281540363498380e-01
2.679413409534198709e-01 2.893966047364955330e-01
2.689818898500852540e-01 1.493143049811216372e-01
2.700224387467506371e-01 2.408944715669427694e-01
2.710629876434160201e-01 1.474882595484316994e-01
2.721035365400814032e-01 2.373082414816529706e-01
2.731440854367467863e-01 7.993492352751374597e-02
2.741846343334121694e-01 2.308788190062784906e-01
2.752251832300775525e-01 2.294020855090508348e-01
2.762657321267429356e-01 5.366923587435010745e-01
2.773062810234083186e-01 7.533943159565872350e-01
2.783468299200737017e-01 8.732067793354474361e-01
2.793873788167390848e-01 5.705921462442944403e-01
2.804279277134044679e-01 5.012227958915680404e-01
2.814684766100698510e-01 4.320590002261326390e-01
2.825090255067352341e-01 2.239224839651292598e-01
2.835495744034006171e-01 0.000000000000000000e+00
2.845901233000660002e-01 1.722466392734212093e-01
2.856306721967313833e-01 3.377094429408558085e-01
2.866712210933967664e-01 5.286996401968622195e-01
2.877117699900621495e-01 4.554694442327082982e-01
2.887523188867275326e-01 6.543255703548247482e-01
2.897928677833929156e-01 4.617225649591247816e-01
2.908334166800582987e-01 5.161954997176110282e-01
2.918739655767236818e-01 7.021134469122962685e-01
2.929145144733890649e-01 8.174915172643828498e-01
2.939550633700544480e-01 7.024019542794910365e-01
2.949956122667198311e-01 6.256301163976374369e-01
2.960361611633852141e-01 4.328205865690470944e-01
2.970767100600505972e-01 4.685616442165780882e-01
2.981172589567159803e-01 5.695467952146096025e-01
2.991578078533813634e-01 6.971285171992001040e-01
3.001983567500468020e-01 5.824930200412410386e-01
3.012389056467121851e-01 6.671160369022004488e-01
3.022794545433775681e-01 9.631285182009285961e-01
3.033200034400429512e-01 8.952971421359912085e-01
3.043605523367083343e-01 9.995293076673696930e-01
3.054011012333737174e-01 9.798781147989856777e-01
3.064416501300391005e-01 9.794370288286025072e-01
3.074821990267044836e-01 1.018739588451847311e+00
3.085227479233698666e-01 7.591969677435663755e-01
3.095632968200352497e-01 6.199634583253228470e-01
3.106038457167006328e-01 6.047224153197845453e-01
3.116443946133660159e-01 7.759058750616745215e-01
3.126849435100313990e-01 7.999109138062507895e-01
3.137254924066967821e-01 6.121304963032372370e-01
3.147660413033621651e-01 4.492273215481361603e-01
3.158065902000275482e-01 3.182099894957630681e-01
3.168471390966929313e-01 2.794813518427012866e-01
3.178876879933583144e-01 2.092787609714399366e-01
3.189282368900236975e-01 6.438665764325293139e-01
3.199687857866890806e-01 8.508801222422306409e-01
3.210093346833544636e-01 4.830869976105489627e-01
3.220498835800198467e-01 3.799008902485283556e-01
3.230904324766852298e-01 2.827897528374911928e-01
3.241309813733506129e-01 3.350341144964943396e-01
3.251715302700159960e-01 3.863359607190943734e-01
3.262120791666813790e-01 3.682646493092391893e-01
3.272526280633467621e-01 5.875072110453665175e-01
3.282931769600121452e-01 6.066442581943753964e-01
3.293337258566775283e-01 6.060700011877635518e-01
3.303742747533429114e-01 6.097989267104431121e-01
3.314148236500082945e-01 5.773225097050875831e-01
3.324553725466736775e-01 6.266912975134921737e-01
3.334959214433390606e-01 4.838509021136623289e-01
3.345364703400044437e-01 4.857028226953978844e-01
3.355770192366698268e-01 5.225085555388879754e-01
3.366175681333352099e-01 3.479415218624737349e-01
3.376581170300005930e-01 1.843705544293463561e-01
3.386986659266659760e-01 3.258656044765686488e-01
3.397392148233313591e-01 2.537230351800623396e-01
3.407797637199967422e-01 2.256456741702947966e-01
3.418203126166621253e-01 1.157281164590422406e-01
3.428608615133275084e-01 4.083216712300590245e-01
3.439014104099928915e-01 3.077428759557641058e-01
3.449419593066582745e-01 1.473352096721747273e-01
3.459825082033236576e-01 2.201020226215000264e-01
3.470230570999890407e-01 2.965290792558441524e-01
3.480636059966544238e-01 2.699128529937837584e-01
3.491041548933198069e-01 9.121403925723470252e-02
3.501447037899851900e-01 2.777980735094871534e-01
3.511852526866505730e-01 2.684255307913261390e-01
3.522258015833159561e-01 7.166814250938458031e-02
3.532663504799813392e-01 1.589622299140387440e-01
3.543068993766467223e-01 3.169564439422885016e-01
3.553474482733121054e-01 2.317208864072597407e-01
3.563879971699774885e-01 4.030181732183208965e-01
3.574285460666428715e-01 2.912415333142028828e-01
3.584690949633082546e-01 1.892017039797622147e-01
3.595096438599736377e-01 2.478649049569767726e-01
3.605501927566390208e-01 4.110725682276132886e-01
3.615907416533044039e-01 1.545650431404546055e-01
3.626312905499697870e-01 5.672860397299928081e-02
3.636718394466351700e-01 5.390896150706225853e-02
3.647123883433005531e-01 1.753531035995585796e-01
3.657529372399659362e-01 1.411417305173650050e-01
3.667934861366313193e-01 1.670688877073978063e-01
3.678340350332967024e-01 2.453056915105626956e-01
3.688745839299620854e-01 1.017324320398032000e-01
3.699151328266274685e-01 6.965779815167394418e-02
3.709556817232928516e-01 1.291055241027443401e-01
3.719962306199582347e-01 3.287744409384636413e-01
3.730367795166236178e-01 2.949770947165717416e-01
3.740773284132890009e-01 1.174927656651689745e-01
3.751178773099543839e-01 1.081104401365742262e-01
3.761584262066197670e-01 2.155570323586886161e-01
3.771989751032851501e-01 3.458839889780520593e-01
3.782395239999505332e-01 2.838634232959940107e-01
3.792800728966159163e-01 4.519440736209006104e-01
3.803206217932812994e-01 6.120393689877339227e-01
3.813611706899466824e-01 5.597014264038833176e-01
3.824017195866120655e-01 5.126160100232048933e-01
3.834422684832774486e-01 3.507394720950287592e-01
3.844828173799428317e-01 3.088625835902121253e-01
3.855233662766082148e-01 3.186813827145655864e-01
3.865639151732735979e-01 2.752966292337006848e-01
3.876044640699389809e-01 2.541812589064456063e-01
3.886450129666043640e-01 2.905256993718623448e-01
3.896855618632697471e-01 2.846203179569037900e-01
3.907261107599351302e-01 2.696722775603390687e-01
3.917666596566005133e-01 3.470117586037204660e-01
3.928072085532658964e-01 1.459612038607183138e-01
3.938477574499312794e-01 2.542765050704609564e-01
3.948883063465966625e-01 4.101992834026084722e-01
3.959288552432620456e-01 1.633349500729330828e-01
3.969694041399274287e-01 4.817270109126745581e-01
3.980099530365928118e-01 5.739705766818943289e-01
3.990505019332581949e-01 4.782242524969113617e-01
4.000910508299235779e-01 4.328255185431615359e-01
4.011315997265889610e-01 5.613612135926011604e-01
4.021721486232543441e-01 7.215254290104056167e-01
4.032126975199197272e-01 4.991681565162835454e-01
4.042532464165851103e-01 4.333145163449110271e-01
4.052937953132504934e-01 5.189712258036962567e-01
4.063343442099158764e-01 3.037389232540128603e-01
4.073748931065812595e-01 2.183146372193611739e-01
4.084154420032466426e-01 1.587048122530241301e-01
4.094559908999120257e-01 8.035803533690710765e-02
4.104965397965774088e-01 2.653708295217427349e-01
4.115370886932427918e-01 4.154383735596098859e-01
4.125776375899081749e-01 3.380339630954267705e-01
4.136181864865735580e-01 2.795067233991339606e-01
4.146587353832389411e-01 2.619538920186954556e-01
4.156992842799043242e-01 3.004268743531177677e-01
4.167398331765697073e-01 1.458043602302900865e-01
4.177803820732350903e-01 1.559720850062085162e-01
4.188209309699004734e-01 1.933543766543728282e-01
4.198614798665658565e-01 2.564463514293926494e-01
4.209020287632312396e-01 1.787967318082230861e-01
4.219425776598966227e-01 1.777255149273564427e-01
4.229831265565620058e-01 4.906511173175793772e-01
4.240236754532273888e-01 2.102645520651726940e-01
4.250642243498927719e-01 2.101056010094133342e-01
4.261047732465581550e-01 3.772102899776470508e-01
4.271453221432235381e-01 3.601590349287526749e-01
4.281858710398889212e-01 4.563293140187028030e-01
4.292264199365543043e-01 4.255754789064702948e-01
4.302669688332196873e-01 2.227364400393980759e-01
4.313075177298850704e-01 1.066455157705661350e-01
4.323480666265504535e-01 4.156956975148276001e-01
4.333886155232158366e-01 3.644728885043697630e-01
4.344291644198812197e-01 4.460514032130440398e-01
