# q (1/Angstrom), Intensity (arb)
2.029070354705860696e-02 1.006336746607202599e+02
2.133125244372399004e-02 8.323735053253500382e+01
2.237180134038937659e-02 7.234795423316427332e+01
2.341235023705475968e-02 5.944404358858861315e+01
2.445289913372014276e-02 5.199370032115146500e+01
2.549344803038552584e-02 4.840886589615882940e+01
2.653399692705091240e-02 4.281643282143846818e+01
2.757454582371629548e-02 3.789883154179899805e+01
2.861509472038167856e-02 3.320527078799139531e+01
2.965564361704706164e-02 2.849262429832305088e+01
3.069619251371244473e-02 2.538864065228997902e+01
3.173674141037782781e-02 2.418126903798732030e+01
3.277729030704321089e-02 2.283129657096812082e+01
3.381783920370859398e-02 2.145862800865761955e+01
3.485838810037397706e-02 2.036520068233124903e+01
3.589893699703936014e-02 1.917171816253152627e+01
3.693948589370474322e-02 1.798904104870388920e+01
3.798003479037012631e-02 1.724822834190335641e+01
3.902058368703550939e-02 1.626791179935268161e+01
4.006113258370089247e-02 1.522699246816463869e+01
4.110168148036627556e-02 1.592314211734353080e+01
4.214223037703165864e-02 1.487712967682494991e+01
4.318277927369704866e-02 1.441548614371533432e+01
4.422332817036243174e-02 1.489408811972431579e+01
4.526387706702781483e-02 1.411797184972591879e+01
4.630442596369319791e-02 1.370375688384507384e+01
4.734497486035858099e-02 1.384106588893850898e+01
4.838552375702396408e-02 1.333063321675393098e+01
4.942607265368934716e-02 1.361540276283825079e+01
5.046662155035473024e-02 1.425830074455686258e+01
5.150717044702011332e-02 1.395551722787556059e+01
5.254771934368549641e-02 1.408570650210199204e+01
5.358826824035087949e-02 1.397254722885313782e+01
5.462881713701626257e-02 1.441321539942103414e+01
5.566936603368164566e-02 1.508529388263119841e+01
5.670991493034702874e-02 1.521203013151064454e+01
5.775046382701241182e-02 1.520570317719451481e+01
5.879101272367779490e-02 1.639605978975939138e+01
5.983156162034317799e-02 1.724476124845645586e+01
6.087211051700856107e-02 1.825605954436920086e+01
6.191265941367394415e-02 1.903081334945759551e+01
6.295320831033933417e-02 2.048853627127003563e+01
6.399375720700471726e-02 2.237420169183355512e+01
6.503430610367010034e-02 2.414286314286808732e+01
6.607485500033548342e-02 2.614030215895621012e+01
6.711540389700086651e-02 2.881653840914195541e+01
6.815595279366624959e-02 3.120553907271833793e+01
6.919650169033163267e-02 3.365670589299980975e+01
7.023705058699701576e-02 3.713508336965323764e+01
7.127759948366239884e-02 4.006198296107908163e+01
7.231814838032778192e-02 4.499245676465016430e+01
7.335869727699316500e-02 5.392865974231144577e+01
7.439924617365854809e-02 7.129294200198987141e+01
7.543979507032393117e-02 1.135761729439806800e+02
7.648034396698931425e-02 1.974419011765352536e+02
7.752089286365469734e-02 2.977241132403531765e+02
7.856144176032008042e-02 3.897182840866167339e+02
7.960199065698546350e-02 5.625216138644017292e+02
8.064253955365084658e-02 9.226615310388991702e+02
8.168308845031622967e-02 1.247960025237717446e+03
8.272363734698161275e-02 1.097519651590373087e+03
8.376418624364699583e-02 6.732404995398135270e+02
8.480473514031239279e-02 4.071424910128598071e+02
8.584528403697777588e-02 2.996192590871501693e+02
8.688583293364315896e-02 2.434006337662543729e+02
8.792638183030854204e-02 2.039795638077063984e+02
8.896693072697392513e-02 1.735361344670544383e+02
9.000747962363930821e-02 1.527171913598623121e+02
9.104802852030469129e-02 1.393639578952397073e+02
9.208857741697007437e-02 1.369860827444100551e+02
9.312912631363545746e-02 1.467363861856619280e+02
9.416967521030084054e-02 1.491778642418542518e+02
9.521022410696622362e-02 1.206636779925819951e+02
9.625077300363160671e-02 7.438246842438230999e+01
9.729132190029698979e-02 4.066249404191626837e+01
9.833187079696237287e-02 2.456240326462708623e+01
9.937241969362775595e-02 1.675049876293313389e+01
1.004129685902931390e-01 1.236507399572294474e+01
1.014535174869585221e-01 9.437619118046448818e+00
1.024940663836239052e-01 7.334916321556733010e+00
1.035346152802892883e-01 6.022385666012944228e+00
1.045751641769546714e-01 4.851892291125878387e+00
1.056157130736200545e-01 4.274363944598370324e+00
1.066562619702854375e-01 3.721524573303035766e+00
1.076968108669508206e-01 2.931508389497921030e+00
1.087373597636162037e-01 2.629490413496959889e+00
1.097779086602815868e-01 2.638188499883696636e+00
1.108184575569469699e-01 2.037969149377104827e+00
1.118590064536123529e-01 1.880646649993558128e+00
1.128995553502777360e-01 1.660499326469349057e+00
1.139401042469431191e-01 1.884407223334484627e+00
1.149806531436085022e-01 1.843792387571291158e+00
1.160212020402738853e-01 2.016633260498444713e+00
1.170617509369392684e-01 2.197531419808363751e+00
1.181022998336046514e-01 2.210403891320723346e+00
1.191428487302700345e-01 2.130795504368592219e+00
1.201833976269354176e-01 2.334165412375156734e+00
1.212239465236008007e-01 2.123633178654969811e+00
1.222644954202661838e-01 2.451164396348374908e+00
1.233050443169315669e-01 2.905669080901745360e+00
1.243455932135969499e-01 2.982003857247782719e+00
1.253861421102623330e-01 3.616784611584726861e+00
1.264266910069277161e-01 3.965236604480331550e+00
1.274672399035930992e-01 4.001366022620217677e+00
1.285077888002584823e-01 4.271527017468613963e+00
1.295483376969238654e-01 6.286982680087035646e+00
1.305888865935892484e-01 1.008452332990267308e+01
1.316294354902546315e-01 1.781821913677907787e+01
1.326699843869200146e-01 3.035137156505670930e+01
1.337105332835853977e-01 3.735857254565814856e+01
1.347510821802507808e-01 3.103590945663640355e+01
1.357916310769161639e-01 1.974555419711300175e+01
1.368321799735815469e-01 1.240629953369445815e+01
1.378727288702469300e-01 9.487460061115683629e+00
1.389132777669123131e-01 8.374821081815838397e+00
1.399538266635776962e-01 8.467551202010312750e+00
1.409943755602430793e-01 8.036156335865101141e+00
1.420349244569084624e-01 7.871251878781258426e+00
1.430754733535738454e-01 7.934816908384320300e+00
1.441160222502392285e-01 7.823918084869802669e+00
1.451565711469046116e-01 7.887826307748547094e+00
1.461971200435699947e-01 8.240684330107370670e+00
1.472376689402353778e-01 8.137827709308076862e+00
1.482782178369007609e-01 8.155273732314064716e+00
1.493187667335661439e-01 8.762175259559683127e+00
1.503593156302315270e-01 9.233695961053832946e+00
1.513998645268969101e-01 1.130978811376415649e+01
1.524404134235622932e-01 1.544659479515344458e+01
1.534809623202276763e-01 2.313676025431064431e+01
1.545215112168930593e-01 3.786660275427230005e+01
1.555620601135584424e-01 5.858429793796464935e+01
1.566026090102238255e-01 7.142082982159860194e+01
1.576431579068892086e-01 6.302104912999428876e+01
1.586837068035545917e-01 4.168304092579099063e+01
1.597242557002199748e-01 2.656575177321360570e+01
1.607648045968853578e-01 2.066725072932869978e+01
1.618053534935507409e-01 1.962891552183969424e+01
1.628459023902161240e-01 1.995699691024912070e+01
1.638864512868815071e-01 1.858627752119204857e+01
1.649270001835468902e-01 1.441316955564387570e+01
1.659675490802122733e-01 9.157153705580842740e+00
1.670080979768776563e-01 5.705338207724338417e+00
1.680486468735430672e-01 4.079849402199599240e+00
1.690891957702084503e-01 3.241512747283270102e+00
1.701297446668738333e-01 2.700379648713369107e+00
1.711702935635392164e-01 2.566001160072744369e+00
1.722108424602045995e-01 2.281146087064847450e+00
1.732513913568699826e-01 1.955217568922599014e+00
1.742919402535353657e-01 1.734487889260574178e+00
1.753324891502007488e-01 1.210903530778494996e+00
1.763730380468661318e-01 9.632792478804432790e-01
1.774135869435315149e-01 9.876854850858194368e-01
1.784541358401968980e-01 1.327357174414117935e+00
1.794946847368622811e-01 1.678957783281862959e+00
1.805352336335276642e-01 1.288332002519343433e+00
1.815757825301930473e-01 1.054889535402722345e+00
1.826163314268584303e-01 8.855711854300132302e-01
1.836568803235238134e-01 9.914551111699623220e-01
1.846974292201891965e-01 1.077242382277947996e+00
1.857379781168545796e-01 1.274155327224899992e+00
1.867785270135199627e-01 1.349429118909348801e+00
1.878190759101853458e-01 1.170460770420699959e+00
1.888596248068507288e-01 1.073666173589035822e+00
1.899001737035161119e-01 1.051767444896526627e+00
1.909407226001814950e-01 9.020588806633966783e-01
1.919812714968468781e-01 8.457274543247415011e-01
1.930218203935122612e-01 7.508797669058466795e-01
1.940623692901776443e-01 5.848486697150754310e-01
1.951029181868430273e-01 6.107759524169864562e-01
1.961434670835084104e-01 7.268430876594429435e-01
1.971840159801737935e-01 4.359223768772153562e-01
1.982245648768391766e-01 4.753287558866574614e-01
1.992651137735045597e-01 7.417746378097191950e-01
2.003056626701699428e-01 5.469400384445428642e-01
2.013462115668353813e-01 6.218374706305418442e-01
2.023867604635007644e-01 8.689772891545928246e-01
2.034273093601661475e-01 9.920794055365576014e-01
2.044678582568315306e-01 1.397383487729587870e+00
2.055084071534969137e-01 1.822977507639595984e+00
2.065489560501622968e-01 1.754067407548433266e+00
2.075895049468276798e-01 1.994708694092189205e+00
2.086300538434930629e-01 2.365737287653182364e+00
2.096706027401584460e-01 2.603406175726945548e+00
2.107111516368238291e-01 3.136657068049746755e+00
2.117517005334892122e-01 3.269290820240478013e+00
2.127922494301545953e-01 2.606729585193438226e+00
2.138327983268199783e-01 1.997607749084945539e+00
2.148733472234853614e-01 1.521734118024447469e+00
2.159138961201507445e-01 1.270515513755285042e+00
2.169544450168161276e-01 1.077939796458039723e+00
2.179949939134815107e-01 1.217912751838113650e+00
2.190355428101468938e-01 1.215157474018624839e+00
2.200760917068122768e-01 1.055372310986243178e+00
2.211166406034776599e-01 9.055531942903591869e-01
2.221571895001430430e-01 1.191008009520984956e+00
2.231977383968084261e-01 1.156705314485812153e+00
2.242382872934738092e-01 1.009833685210299592e+00
2.252788361901391923e-01 1.392421471336650285e+00
2.263193850868045753e-01 1.638472005157428413e+00
2.273599339834699584e-01 1.809776860132654264e+00
2.284004828801353415e-01 2.363106813988281374e+00
2.294410317768007246e-01 3.052798438626449951e+00
2.304815806734661077e-01 3.713547935930609611e+00
2.315221295701314908e-01 3.942642206757167145e+00
2.325626784667968738e-01 3.970201982714716138e+00
2.336032273634622569e-01 3.200614346805917165e+00
2.346437762601276400e-01 2.389468926948630667e+00
2.356843251567930231e-01 1.925299609638742027e+00
2.367248740534584062e-01 1.812843047042591138e+00
2.377654229501237892e-01 2.035500860421464608e+00
2.388059718467891723e-01 1.902970792943289524e+00
2.398465207434545554e-01 1.326154768756371283e+00
2.408870696401199385e-01 1.782122747096789084e+00
2.419276185367853216e-01 2.325853392947088594e+00
2.429681674334507047e-01 2.651622676880847962e+00
2.440087163301160877e-01 3.212149436408260783e+00
2.450492652267814708e-01 3.638494584594052839e+00
2.460898141234468539e-01 3.658130547894202778e+00
2.471303630201122370e-01 2.966644431506345825e+00
2.481709119167776201e-01 2.098252276121570503e+00
2.492114608134430032e-01 1.528231309709273233e+00
2.502520097101083585e-01 1.308079464658959523e+00
2.512925586067737416e-01 1.139873654908981848e+00
2.523331075034391247e-01 6.525967469674860411e-01
2.533736564001045077e-01 5.132692728284844463e-01
2.544142052967698908e-01 5.754602105600525874e-01
2.554547541934352739e-01 3.409518783322766922e-01
2.564953030901006570e-01 4.162438176317770910e-01
2.575358519867660401e-01 2.350396058529469201e-01
2.585764008834314231e-01 2.201826028624509490e-01
2.596169497800968062e-01 3.133801447620001568e-01
2.606574986767621893e-01 4.849577162298857047e-01
2.616980475734275724e-01 4.876733292437336331e-01
2.627385964700929555e-01 3.905681600513375429e-01
2.637791453667583386e-01 4.433193232354781799e-01
2.648196942634237216e-01 4.711808074799073154e-01
2.658602431600891047e-01 6.450309516284278288e-01
2.669007920567544878e-01 5.205286779052080703e-01
2.679413409534198709e-01 7.465892429564426891e-01
2.689818898500852540e-01 6.233337093614039759e-01
2.700224387467506371e-01 2.610487529710390220e-01
2.710629876434160201e-01 3.583484111316401766e-01
2.721035365400814032e-01 4.555662592347360373e-01
2.731440854367467863e-01 6.440678122445682163e-01
2.741846343334121694e-01 3.603139139360891363e-01
2.752251832300775525e-01 3.622067155157111529e-01
2.762657321267429356e-01 3.879492589682413950e-01
2.773062810234083186e-01 3.035641945749354420e-01
2.783468299200737017e-01 5.294800953843576963e-01
2.793873788167390848e-01 5.387112529381674619e-01
2.804279277134044679e-01 3.393339521966147743e-01
2.814684766100698510e-01 1.830023338439623615e-01
2.825090255067352341e-01 2.152707350457490065e-01
2.835495744034006171e-01 2.513387746087332175e-01
2.845901233000660002e-01 0.000000000000000000e+00
2.856306721967313833e-01 3.556200878487985051e-01
2.866712210933967664e-01 5.676499407036743605e-01
2.877117699900621495e-01 5.595498442234081438e-01
2.887523188867275326e-01 3.741534891584805678e-01
2.897928677833929156e-01 4.887590083946804498e-01
2.908334166800582987e-01 4.728806193151626758e-01
2.918739655767236818e-01 3.025395593175410625e-01
2.929145144733890649e-01 2.771087892550312404e-01
2.939550633700544480e-01 4.748716876647556262e-01
2.949956122667198311e-01 5.938795963884828666e-01
2.960361611633852141e-01 6.765092916483901320e-01
2.970767100600505972e-01 8.016443210431702937e-01
2.981172589567159803e-01 4.537328783507668106e-01
2.991578078533813634e-01 4.214645808889265766e-01
3.001983567500468020e-01 4.214374648359253683e-01
3.012389056467121851e-01 4.922631496148710539e-01
3.022794545433775681e-01 7.236251916143601193e-01
3.033200034400429512e-01 8.151866335154274168e-01
3.043605523367083343e-01 9.528145460821484392e-01
3.054011012333737174e-01 7.793520340792525758e-01
3.064416501300391005e-01 4.919954935033814536e-01
3.074821990267044836e-01 7.348450582688350607e-01
3.085227479233698666e-01 8.937502701067536748e-01
3.095632968200352497e-01 8.906851181453312449e-01
3.106038457167006328e-01 7.980159245347131503e-01
3.116443946133660159e-01 1.141504643435713007e+00
3.126849435100313990e-01 1.225726506535295357e+00
3.137254924066967821e-01 9.462917860357862310e-01
3.147660413033621651e-01 7.620448702024553711e-01
3.158065902000275482e-01 9.058198877737453358e-01
3.168471390966929313e-01 6.873715437403582484e-01
3.178876879933583144e-01 4.022564492959119775e-01
3.189282368900236975e-01 5.837222636248462493e-01
3.199687857866890806e-01 5.322018580292429135e-01
3.210093346833544636e-01 5.312103273483295141e-01
3.220498835800198467e-01 1.939137294664128319e-01
3.230904324766852298e-01 2.033617493906412221e-01
3.241309813733506129e-01 4.437930497792450524e-01
3.251715302700159960e-01 5.069004873834650482e-01
3.262120791666813790e-01 6.393374725433993433e-01
3.272526280633467621e-01 6.240131058265276920e-01
3.282931769600121452e-01 7.814602114569169089e-01
3.293337258566775283e-01 6.162389188753039093e-01
3.303742747533429114e-01 6.256327448511136424e-01
3.314148236500082945e-01 5.925388137965903468e-01
3.324553725466736775e-01 5.314814192810430882e-01
3.334959214433390606e-01 6.129103905790636020e-01
3.345364703400044437e-01 5.049308416478694994e-01
3.355770192366698268e-01 4.931407353220897960e-01
3.366175681333352099e-01 5.490669958173555187e-01
3.376581170300005930e-01 6.774722417741614322e-01
3.386986659266659760e-01 5.323118628730654223e-01
3.397392148233313591e-01 7.106841981819975729e-01
3.407797637199967422e-01 7.647175860414243687e-01
3.418203126166621253e-01 6.307000271051315110e-01
3.428608615133275084e-01 4.239509581776665925e-01
3.439014104099928915e-01 3.513961318662737199e-01
3.449419593066582745e-01 2.728131371461017807e-01
3.459825082033236576e-01 1.759614237711382145e-01
3.470230570999890407e-01 2.424510322673150142e-01
3.480636059966544238e-01 4.881386982052298151e-01
3.491041548933198069e-01 5.912170223580055506e-01
3.501447037899851900e-01 4.728837920145423368e-01
3.511852526866505730e-01 2.905956736393449091e-01
3.522258015833159561e-01 4.017458536367257693e-01
3.532663504799813392e-01 3.461415869657926692e-01
3.543068993766467223e-01 3.656378464653080584e-01
3.553474482733121054e-01 4.512256239707603811e-01
3.563879971699774885e-01 2.416450996792107730e-01
3.574285460666428715e-01 1.017048790971948335e-01
3.584690949633082546e-01 2.490209062391777195e-01
3.595096438599736377e-01 4.319639895357951787e-01
3.605501927566390208e-01 3.212054653770728407e-01
3.615907416533044039e-01 4.849481086668632202e-01
3.626312905499697870e-01 4.602968884976021968e-01
3.636718394466351700e-01 3.864013304080167188e-01
3.647123883433005531e-01 3.017870318800603968e-01
3.657529372399659362e-01 3.497919051295426129e-01
3.667934861366313193e-01 3.011744810560585961e-01
3.678340350332967024e-01 2.283347159586490704e-01
3.688745839299620854e-01 7.948649605663860029e-02
3.699151328266274685e-01 1.588044234100358665e-01
3.709556817232928516e-01 2.241164432104341131e-01
3.719962306199582347e-01 4.499465055119138412e-01
3.730367795166236178e-01 3.086899586979612309e-01
3.740773284132890009e-01 9.541908497562801017e-02
3.751178773099543839e-01 1.919746163983084841e-01
3.761584262066197670e-01 3.058649129146928658e-01
3.771989751032851501e-01 4.957517714063399694e-01
3.782395239999505332e-01 6.586036512464232828e-01
3.792800728966159163e-01 5.168467373831795442e-01
3.803206217932812994e-01 2.987160690687851172e-01
3.813611706899466824e-01 3.052120817642531847e-01
3.824017195866120655e-01 4.721879306040293045e-01
3.834422684832774486e-01 3.047177646302188236e-01
3.844828173799428317e-01 9.778077104894933314e-02
3.855233662766082148e-01 2.265094272906438277e-01
3.865639151732735979e-01 4.288453297200334191e-01
3.876044640699389809e-01 4.031509742215924064e-01
3.886450129666043640e-01 4.195341453690915046e-01
3.896855618632697471e-01 5.827363306288795286e-01
3.907261107599351302e-01 7.976752652118292986e-01
3.917666596566005133e-01 7.405958749636134542e-01
3.928072085532658964e-01 3.897426581151606229e-01
3.938477574499312794e-01 5.275590518723056732e-01
3.948883063465966625e-01 5.529702557284927877e-01
3.959288552432620456e-01 5.415531428580067086e-01
3.969694041399274287e-01 4.979202719452082704e-01
3.980099530365928118e-01 2.730658376227879103e-01
3.990505019332581949e-01 2.538259237465076978e-01
4.000910508299235779e-01 2.998541324227517180e-01
4.011315997265889610e-01 3.249655061231599973e-01
4.021721486232543441e-01 5.240302767635007797e-01
4.032126975199197272e-01 5.115327911117333315e-01
4.042532464165851103e-01 3.343250079110724471e-01
4.052937953132504934e-01 2.476789855429011311e-01
4.063343442099158764e-01 2.109795263820188893e-01
4.073748931065812595e-01 2.933046712878315532e-01
4.084154420032466426e-01 3.318676672506484238e-01
4.094559908999120257e-01 3.553467102573222292e-01
4.104965397965774088e-01 3.446296258502030696e-01
4.115370886932427918e-01 4.588100067354119460e-01
4.125776375899081749e-01 4.892158916530711110e-01
4.136181864865735580e-01 4.805098885098466610e-01
4.146587353832389411e-01 4.836811843158734803e-01
4.156992842799043242e-01 3.575672127930822342e-01
4.167398331765697073e-01 3.327654307228087305e-01
4.177803820732350903e-01 2.841771541522817301e-01
4.188209309699004734e-01 4.314305192058860428e-01
4.198614798665658565e-01 4.151362332494805685e-01
4.209020287632312396e-01 1.764890142548551921e-01
4.219425776598966227e-01 3.143263109991174531e-01
4.229831265565620058e-01 2.734187732411328398e-01
4.240236754532273888e-01 2.324082966091154390e-01
4.250642243498927719e-01 3.099761854085869572e-01
4.261047732465581550e-01 2.698539332079725739e-01
4.271453221432235381e-01 1.456862338886928399e-01
4.281858710398889212e-01 4.544998522675349761e-01
4.292264199365543043e-01 2.847790335376068072e-01
4.302669688332196873e-01 7.296737007720821566e-02
4.313075177298850704e-01 1.824759574311691779e-01
4.323480666265504535e-01 2.332814417877706603e-01
4.333886155232158366e-01 3.192317990585209486e-01
4.344291644198812197e-01 4.942465723856379611e-01
