# q (1/Angstrom), Intensity (arb)
2.029070354705860696e-02 1.048341924879009639e+02
2.133125244372399004e-02 8.724567764959780902e+01
2.237180134038937659e-02 7.201332207104675831e+01
2.341235023705475968e-02 6.289381127288393714e+01
2.445289913372014276e-02 5.405590720169058727e+01
2.549344803038552584e-02 4.671348442328874739e+01
2.653399692705091240e-02 4.262210937716909598e+01
2.757454582371629548e-02 3.854081992757902242e+01
2.861509472038167856e-02 3.585310765572698699e+01
2.965564361704706164e-02 3.352626060760782423e+01
3.069619251371244473e-02 2.992730367519820334e+01
3.173674141037782781e-02 2.558310055912234304e+01
3.277729030704321089e-02 2.416084957558150847e+01
3.381783920370859398e-02 2.292608302878750948e+01
3.485838810037397706e-02 2.089420519774920137e+01
3.589893699703936014e-02 1.935469306720261784e+01
3.693948589370474322e-02 1.909092325252106548e+01
3.798003479037012631e-02 1.768404546731552784e+01
3.902058368703550939e-02 1.683034723947968558e+01
4.006113258370089247e-02 1.699823216358438316e+01
4.110168148036627556e-02 1.672082063642114491e+01
4.214223037703165864e-02 1.449053244997868717e+01
4.318277927369704866e-02 1.488497355635389141e+01
4.422332817036243174e-02 1.555059801566193300e+01
4.526387706702781483e-02 1.516394080772953856e+01
4.630442596369319791e-02 1.558223607831491364e+01
4.734497486035858099e-02 1.506553063948026505e+01
4.838552375702396408e-02 1.496311094889253468e+01
4.942607265368934716e-02 1.587857081107460289e+01
5.046662155035473024e-02 1.588606284511070044e+01
5.150717044702011332e-02 1.491354877758652719e+01
5.254771934368549641e-02 1.518148869993865446e+01
5.358826824035087949e-02 1.602300198449693625e+01
5.462881713701626257e-02 1.670577831824326154e+01
5.566936603368164566e-02 1.644437270432807452e+01
5.670991493034702874e-02 1.691167823932457992e+01
5.775046382701241182e-02 1.733465927697404396e+01
5.879101272367779490e-02 1.812394950837055774e+01
5.983156162034317799e-02 1.949828739271730882e+01
6.087211051700856107e-02 2.039836322642128863e+01
6.191265941367394415e-02 2.192202413699167352e+01
6.295320831033933417e-02 2.356927102040757660e+01
6.399375720700471726e-02 2.459313909167412504e+01
6.503430610367010034e-02 2.764512626267282513e+01
6.607485500033548342e-02 3.097447637088242089e+01
6.711540389700086651e-02 3.329462454307111585e+01
6.815595279366624959e-02 3.621954939304877996e+01
6.919650169033163267e-02 3.973413725672132557e+01
7.023705058699701576e-02 4.313245444817457752e+01
7.127759948366239884e-02 4.821515105574506066e+01
7.231814838032778192e-02 5.795661254142008545e+01
7.335869727699316500e-02 7.754868604079834427e+01
7.439924617365854809e-02 1.257545354808133311e+02
7.543979507032393117e-02 2.191663514571939686e+02
7.648034396698931425e-02 3.254343833204277985e+02
7.752089286365469734e-02 4.289819972997768787e+02
7.856144176032008042e-02 6.341880068610546459e+02
7.960199065698546350e-02 1.030997590668416933e+03
8.064253955365084658e-02 1.315477371589887525e+03
8.168308845031622967e-02 1.076308257422007046e+03
8.272363734698161275e-02 6.343125035988095988e+02
8.376418624364699583e-02 3.943090059188087935e+02
8.480473514031239279e-02 2.958372819700263108e+02
8.584528403697777588e-02 2.413046524109994095e+02
8.688583293364315896e-02 2.021932298065298994e+02
8.792638183030854204e-02 1.727188315806218100e+02
8.896693072697392513e-02 1.515242789673024504e+02
9.000747962363930821e-02 1.400492735320575548e+02
9.104802852030469129e-02 1.420097756143705396e+02
9.208857741697007437e-02 1.522750170329874777e+02
9.312912631363545746e-02 1.450412291875676942e+02
9.416967521030084054e-02 1.058466900703941747e+02
9.521022410696622362e-02 6.051788832297948773e+01
9.625077300363160671e-02 3.344174722291366919e+01
9.729132190029698979e-02 2.082771659559636390e+01
9.833187079696237287e-02 1.401082950949285078e+01
9.937241969362775595e-02 1.103298703611081777e+01
1.004129685902931390e-01 8.194351889000301981e+00
1.014535174869585221e-01 5.548815011063744862e+00
1.024940663836239052e-01 5.456922403066407412e+00
1.035346152802892883e-01 4.896652691613915920e+00
1.045751641769546714e-01 3.518730522039881237e+00
1.056157130736200545e-01 2.960746577462032292e+00
1.066562619702854375e-01 2.736170716706872952e+00
1.076968108669508206e-01 2.513280505236188844e+00
1.087373597636162037e-01 2.546047054568205681e+00
1.097779086602815868e-01 2.547772462113925940e+00
1.108184575569469699e-01 2.236074716482470137e+00
1.118590064536123529e-01 2.026194130213397671e+00
1.128995553502777360e-01 2.292291577491354815e+00
1.139401042469431191e-01 2.100808764758831160e+00
1.149806531436085022e-01 2.097795071104222586e+00
1.160212020402738853e-01 2.367714150114593963e+00
1.170617509369392684e-01 2.355654984483422254e+00
1.181022998336046514e-01 2.344014940538407643e+00
1.191428487302700345e-01 2.748985894252534479e+00
1.201833976269354176e-01 2.630806148473887163e+00
1.212239465236008007e-01 2.384244966124327902e+00
1.222644954202661838e-01 2.891714087817732093e+00
1.233050443169315669e-01 3.538563996698165681e+00
1.243455932135969499e-01 3.812868380088026754e+00
1.253861421102623330e-01 4.560374667457743669e+00
1.264266910069277161e-01 5.116846316619316326e+00
1.274672399035930992e-01 6.732949235540566235e+00
1.285077888002584823e-01 1.092849010458772341e+01
1.295483376969238654e-01 1.938748246239943995e+01
1.305888865935892484e-01 3.312013673459878760e+01
1.316294354902546315e-01 4.302614577120200323e+01
1.326699843869200146e-01 3.703593137012748571e+01
1.337105332835853977e-01 2.376873658307938086e+01
1.347510821802507808e-01 1.463849425291620321e+01
1.357916310769161639e-01 1.085812107780753166e+01
1.368321799735815469e-01 9.809377091802176096e+00
1.378727288702469300e-01 8.971038525090079929e+00
1.389132777669123131e-01 8.916646252766085468e+00
1.399538266635776962e-01 8.616633293666524196e+00
1.409943755602430793e-01 8.331900212110241455e+00
1.420349244569084624e-01 8.653914816248722275e+00
1.430754733535738454e-01 8.587213865359871079e+00
1.441160222502392285e-01 8.706060258924935624e+00
1.451565711469046116e-01 8.958865344880386772e+00
1.461971200435699947e-01 9.231892987470196488e+00
1.472376689402353778e-01 9.555154827602599710e+00
1.482782178369007609e-01 1.051024413502523203e+01
1.493187667335661439e-01 1.275252812932078683e+01
1.503593156302315270e-01 1.716016101986917874e+01
1.513998645268969101e-01 2.691835063198654154e+01
1.524404134235622932e-01 4.483239445095648534e+01
1.534809623202276763e-01 6.675645696275955743e+01
1.545215112168930593e-01 7.668463566344429694e+01
1.555620601135584424e-01 6.263383563604190840e+01
1.566026090102238255e-01 4.027373665137096026e+01
1.576431579068892086e-01 2.649430457200799083e+01
1.586837068035545917e-01 2.076593512775058059e+01
1.597242557002199748e-01 2.016159265714033921e+01
1.607648045968853578e-01 2.043519346166890926e+01
1.618053534935507409e-01 1.817156316694638463e+01
1.628459023902161240e-01 1.233203188696032271e+01
1.638864512868815071e-01 7.934144818561591705e+00
1.649270001835468902e-01 5.313715844855430248e+00
1.659675490802122733e-01 3.953325295302214215e+00
1.670080979768776563e-01 3.134990705827235047e+00
1.680486468735430672e-01 2.425990413418034564e+00
1.690891957702084503e-01 2.154264014220764523e+00
1.701297446668738333e-01 2.147231703588012408e+00
1.711702935635392164e-01 2.072593601198633451e+00
1.722108424602045995e-01 1.846185669885173297e+00
1.732513913568699826e-01 1.658686387066016010e+00
1.742919402535353657e-01 1.514455385301793910e+00
1.753324891502007488e-01 1.285048708876210810e+00
1.763730380468661318e-01 1.590410108295120750e+00
1.774135869435315149e-01 9.982864476610728843e-01
1.784541358401968980e-01 1.164948388666257273e+00
1.794946847368622811e-01 9.026137537378815523e-01
1.805352336335276642e-01 6.604420148957785841e-01
1.815757825301930473e-01 7.318688288390404750e-01
1.826163314268584303e-01 5.400141303368641843e-01
1.836568803235238134e-01 7.071560282524487207e-01
1.846974292201891965e-01 1.017558088569426644e+00
1.857379781168545796e-01 1.118795699265582755e+00
1.867785270135199627e-01 1.330330409897289456e+00
1.878190759101853458e-01 1.135369104249409844e+00
1.888596248068507288e-01 7.379453201604952994e-01
1.899001737035161119e-01 7.048285517999097749e-01
1.909407226001814950e-01 4.072395527173000573e-01
1.919812714968468781e-01 2.893724583568832998e-01
1.930218203935122612e-01 6.411686507638130195e-01
1.940623692901776443e-01 7.631935437064925054e-01
1.951029181868430273e-01 5.939091044341786585e-01
1.961434670835084104e-01 7.963906057831735552e-01
1.971840159801737935e-01 1.180739281531401730e+00
1.982245648768391766e-01 1.229731459630251322e+00
1.992651137735045597e-01 1.290287494317990280e+00
2.003056626701699428e-01 1.545437869860315061e+00
2.013462115668353813e-01 1.903045421408346982e+00
2.023867604635007644e-01 2.058689345046435193e+00
2.034273093601661475e-01 2.420476112435967053e+00
2.044678582568315306e-01 2.687921386825042447e+00
2.055084071534969137e-01 2.714368164253599502e+00
2.065489560501622968e-01 2.956146402390814387e+00
2.075895049468276798e-01 3.438529056315164922e+00
2.086300538434930629e-01 3.606016718742026228e+00
2.096706027401584460e-01 3.047403584585637759e+00
2.107111516368238291e-01 2.264212973246916505e+00
2.117517005334892122e-01 1.777956673002186960e+00
2.127922494301545953e-01 1.594786491975305864e+00
2.138327983268199783e-01 1.290862550348268911e+00
2.148733472234853614e-01 1.202052607120499772e+00
2.159138961201507445e-01 1.055089291577861133e+00
2.169544450168161276e-01 8.580246418075816450e-01
2.179949939134815107e-01 1.185879780901011316e+00
2.190355428101468938e-01 1.265392306230154418e+00
2.200760917068122768e-01 1.466150246904607712e+00
2.211166406034776599e-01 1.502066007806831749e+00
2.221571895001430430e-01 1.447114958477520474e+00
2.231977383968084261e-01 1.710578323875107998e+00
2.242382872934738092e-01 2.242419286656915034e+00
2.252788361901391923e-01 2.995666090343949151e+00
2.263193850868045753e-01 3.941049421572305533e+00
2.273599339834699584e-01 4.727013824868265601e+00
2.284004828801353415e-01 4.472166637742155615e+00
2.294410317768007246e-01 4.039206939792467921e+00
2.304815806734661077e-01 3.110708865467515238e+00
2.315221295701314908e-01 2.462719414192289236e+00
2.325626784667968738e-01 2.260783647252285533e+00
2.336032273634622569e-01 2.049056248551980985e+00
2.346437762601276400e-01 1.884736204082230415e+00
2.356843251567930231e-01 1.641890061304490445e+00
2.367248740534584062e-01 1.830642848790024146e+00
2.377654229501237892e-01 2.302296985002588059e+00
2.388059718467891723e-01 2.718341817091154411e+00
2.398465207434545554e-01 3.176951606858079202e+00
2.408870696401199385e-01 3.957211638456232805e+00
2.419276185367853216e-01 4.313197213256486862e+00
2.429681674334507047e-01 3.876082438350273662e+00
2.440087163301160877e-01 2.909863585889468141e+00
2.450492652267814708e-01 2.096135421069721616e+00
2.460898141234468539e-01 1.558743232034924375e+00
2.471303630201122370e-01 8.901795148687696724e-01
2.481709119167776201e-01 9.757314902768676745e-01
2.492114608134430032e-01 8.845800077643346526e-01
2.502520097101083585e-01 7.738380899120258505e-01
2.512925586067737416e-01 9.146173777123891568e-01
2.523331075034391247e-01 7.449326448427910918e-01
2.533736564001045077e-01 6.443758066666802620e-01
2.544142052967698908e-01 5.139469675072376731e-01
2.554547541934352739e-01 5.834540936630432384e-01
2.564953030901006570e-01 6.983831282808203866e-01
2.575358519867660401e-01 5.407844369085559322e-01
2.585764008834314231e-01 5.599819175649365377e-01
2.596169497800968062e-01 5.709812525556472451e-01
2.606574986767621893e-01 6.096637181351063361e-01
2.616980475734275724e-01 6.711783393746735271e-01
2.627385964700929555e-01 7.766197022625540569e-01
2.637791453667583386e-01 2.697874776418700549e-01
2.648196942634237216e-01 4.164125168111603159e-01
2.658602431600891047e-01 4.580018753544656818e-01
2.669007920567544878e-01 6.265300901306609660e-01
2.679413409534198709e-01 7.571458931756573918e-01
2.689818898500852540e-01 6.745333731959775037e-01
2.700224387467506371e-01 5.493936158665420066e-01
2.710629876434160201e-01 4.134954816403428879e-01
2.721035365400814032e-01 3.052048217816896170e-01
2.731440854367467863e-01 3.197098282350481213e-01
2.741846343334121694e-01 3.750272469464448477e-01
2.752251832300775525e-01 2.733715557975884280e-01
2.762657321267429356e-01 4.162975491514337989e-01
2.773062810234083186e-01 3.044594397858624291e-01
2.783468299200737017e-01 2.778018915870816841e-01
2.793873788167390848e-01 3.897950574045871974e-01
2.804279277134044679e-01 6.410063875511795572e-01
2.814684766100698510e-01 4.948601677665465104e-01
2.825090255067352341e-01 3.685067743746230917e-01
2.835495744034006171e-01 1.782237426678463521e-01
2.845901233000660002e-01 1.219932050919645405e-01
2.856306721967313833e-01 2.533903794346024085e-01
2.866712210933967664e-01 1.872996578135968093e-01
2.877117699900621495e-01 3.617041292909526362e-01
2.887523188867275326e-01 2.751127839501172900e-01
2.897928677833929156e-01 2.699854908466328141e-01
2.908334166800582987e-01 4.154823835548313582e-01
2.918739655767236818e-01 5.680704529607680797e-01
2.929145144733890649e-01 5.470202288562830972e-01
2.939550633700544480e-01 7.270004407572230321e-01
2.949956122667198311e-01 8.031654881454350914e-01
2.960361611633852141e-01 7.416929039224839926e-01
2.970767100600505972e-01 7.350526674402608762e-01
2.981172589567159803e-01 8.418208749079525433e-01
2.991578078533813634e-01 8.230411021154750983e-01
3.001983567500468020e-01 6.687500686857390519e-01
3.012389056467121851e-01 8.757401744024804202e-01
3.022794545433775681e-01 8.156165880036958526e-01
3.033200034400429512e-01 8.733622922063872807e-01
3.043605523367083343e-01 1.209467519260172708e+00
3.054011012333737174e-01 1.314398145752637248e+00
3.064416501300391005e-01 1.327160791949438590e+00
3.074821990267044836e-01 1.232466533155491817e+00
3.085227479233698666e-01 1.213244156274861041e+00
3.095632968200352497e-01 1.070531844398988852e+00
3.106038457167006328e-01 8.904680534390543301e-01
3.116443946133660159e-01 7.596866219534632592e-01
3.126849435100313990e-01 6.315751885874441030e-01
3.137254924066967821e-01 3.718450955796974711e-01
3.147660413033621651e-01 3.861676797042932208e-01
3.158065902000275482e-01 4.948040293325917105e-01
3.168471390966929313e-01 5.093621908861898362e-01
3.178876879933583144e-01 5.242393105624927330e-01
3.189282368900236975e-01 5.914126356666926654e-01
3.199687857866890806e-01 6.798199506519360114e-01
3.210093346833544636e-01 4.556906977035701800e-01
3.220498835800198467e-01 5.537368957757635712e-01
3.230904324766852298e-01 6.646875168158601355e-01
3.241309813733506129e-01 5.350162470762782618e-01
3.251715302700159960e-01 4.155761644793649623e-01
3.262120791666813790e-01 4.957117843569385229e-01
3.272526280633467621e-01 3.889763925391953592e-01
3.282931769600121452e-01 4.382433537765031417e-01
3.293337258566775283e-01 6.496169339712132285e-01
3.303742747533429114e-01 8.462874491633129992e-01
3.314148236500082945e-01 9.911378384806504016e-01
3.324553725466736775e-01 8.453157689138528497e-01
3.334959214433390606e-01 8.691280660157225668e-01
3.345364703400044437e-01 5.728831653620751752e-01
3.355770192366698268e-01 4.298684863355397567e-01
3.366175681333352099e-01 6.105990123740205888e-01
3.376581170300005930e-01 4.434799118383487837e-01
3.386986659266659760e-01 3.199077281605511303e-01
3.397392148233313591e-01 2.276652579615010552e-01
3.407797637199967422e-01 2.836357559508613235e-01
3.418203126166621253e-01 6.635394623436994266e-01
3.428608615133275084e-01 4.297738798756647327e-01
3.439014104099928915e-01 2.459172363054058508e-01
3.449419593066582745e-01 3.717193598026327095e-01
3.459825082033236576e-01 3.373417158024771823e-01
3.470230570999890407e-01 3.628177332233981645e-01
3.480636059966544238e-01 5.803703703902449718e-01
3.491041548933198069e-01 4.591468751765432899e-01
3.501447037899851900e-01 2.102034796138916306e-01
3.511852526866505730e-01 2.272769350227648033e-01
3.522258015833159561e-01 1.729692477034987519e-01
3.532663504799813392e-01 4.809510301151220801e-02
3.543068993766467223e-01 2.911902814142166562e-01
3.553474482733121054e-01 2.718260687696343325e-01
3.563879971699774885e-01 1.246981491257521668e-01
3.574285460666428715e-01 1.287954614277531107e-01
3.584690949633082546e-01 3.930098539515576306e-01
3.595096438599736377e-01 4.021069597914390670e-01
3.605501927566390208e-01 3.228141649407660907e-01
3.615907416533044039e-01 3.872388318178821009e-01
3.626312905499697870e-01 2.610333518722747215e-01
3.636718394466351700e-01 3.506299952439739798e-01
3.647123883433005531e-01 3.002661950906109212e-01
3.657529372399659362e-01 3.650216609689422853e-01
3.667934861366313193e-01 4.277508314141726942e-01
3.678340350332967024e-01 2.915028577775409246e-01
3.688745839299620854e-01 2.527122894107591833e-01
3.699151328266274685e-01 1.774577850299259296e-01
3.709556817232928516e-01 1.820867560577390520e-01
3.719962306199582347e-01 1.884205964850949044e-01
3.730367795166236178e-01 3.650490532542995936e-01
3.740773284132890009e-01 3.490142463597578626e-01
3.751178773099543839e-01 0.000000000000000000e+00
3.761584262066197670e-01 2.741072948221656702e-02
3.771989751032851501e-01 2.850937222606262367e-01
3.782395239999505332e-01 5.570970995084039146e-01
3.792800728966159163e-01 4.269996694168050055e-01
3.803206217932812994e-01 4.350168199412109971e-01
3.813611706899466824e-01 4.166464222173118515e-01
3.824017195866120655e-01 5.047828638760805120e-01
3.834422684832774486e-01 5.579092283318409784e-01
3.844828173799428317e-01 6.279851230044641852e-01
3.855233662766082148e-01 7.242498982171063915e-01
3.865639151732735979e-01 7.330136154293604989e-01
3.876044640699389809e-01 4.445002403873807850e-01
3.886450129666043640e-01 4.194881340900842304e-01
3.896855618632697471e-01 6.272670733848713098e-01
3.907261107599351302e-01 5.988275401522038521e-01
3.917666596566005133e-01 5.438362074708251725e-01
3.928072085532658964e-01 5.084500304837220597e-01
3.938477574499312794e-01 2.538957814455784501e-01
3.948883063465966625e-01 3.922594950118742929e-01
3.959288552432620456e-01 1.714313217440519566e-01
3.969694041399274287e-01 1.300878486932255385e-01
3.980099530365928118e-01 5.149182494555830658e-01
3.990505019332581949e-01 5.953282315885282117e-01
4.000910508299235779e-01 3.965579595093267073e-01
4.011315997265889610e-01 3.410589429284840435e-01
4.021721486232543441e-01 5.797060224153192109e-01
4.032126975199197272e-01 6.355131378239278206e-01
4.042532464165851103e-01 8.389658069922738548e-01
4.052937953132504934e-01 7.272778508499406769e-01
4.063343442099158764e-01 6.474960528987168118e-01
4.073748931065812595e-01 6.165518724675891349e-01
4.084154420032466426e-01 6.450911063962507797e-01
4.094559908999120257e-01 4.986704654022062755e-01
4.104965397965774088e-01 4.298538969972085511e-01
4.115370886932427918e-01 4.455042278371124098e-01
4.125776375899081749e-01 4.245676774403115417e-01
4.136181864865735580e-01 3.520041178716191155e-01
4.146587353832389411e-01 3.746220807041780176e-01
4.156992842799043242e-01 3.212816749030018570e-01
4.167398331765697073e-01 4.035456275451139163e-01
4.177803820732350903e-01 4.813832663588897276e-01
4.188209309699004734e-01 3.816600917888628430e-01
4.198614798665658565e-01 4.719634419660394542e-01
4.209020287632312396e-01 4.835881425093440100e-01
4.219425776598966227e-01 4.306714984065358465e-01
4.229831265565620058e-01 4.993263835635168846e-01
4.240236754532273888e-01 4.401255428975332507e-01
4.250642243498927719e-01 4.104314957120465124e-01
4.261047732465581550e-01 4.469776947916912491e-01
4.271453221432235381e-01 5.375055313105150390e-01
4.281858710398889212e-01 5.071162950790331081e-01
4.292264199365543043e-01 4.551440383206681872e-01
4.302669688332196873e-01 3.664177045515906173e-01
4.313075177298850704e-01 4.221282075708252535e-01
4.323480666265504535e-01 4.895858335513771920e-01
4.333886155232158366e-01 2.926292787156903330e-01
4.344291644198812197e-01 3.340197662672501622e-01
