# q (1/Angstrom), Intensity (arb)
2.029070354705860696e-02 1.101773718069699726e+02
2.133125244372399004e-02 9.112237365394042854e+01
2.237180134038937659e-02 7.304240273044919718e+01
2.341235023705475968e-02 6.292708100781788971e+01
2.445289913372014276e-02 5.582357643544440862e+01
2.549344803038552584e-02 5.014006073497537841e+01
2.653399692705091240e-02 4.410015019935669045e+01
2.757454582371629548e-02 3.850883340158843282e+01
2.861509472038167856e-02 3.509400688756959141e+01
2.965564361704706164e-02 3.244675567971401620e+01
3.069619251371244473e-02 3.026537158450892662e+01
3.173674141037782781e-02 2.734761125710642204e+01
3.277729030704321089e-02 2.567020114223718963e+01
3.381783920370859398e-02 2.377972449078978201e+01
3.485838810037397706e-02 2.205743407529055844e+01
3.589893699703936014e-02 2.028628377038410235e+01
3.693948589370474322e-02 1.913625649372259119e+01
3.798003479037012631e-02 1.793723863498744464e+01
3.902058368703550939e-02 1.814370553759235349e+01
4.006113258370089247e-02 1.801423138302088489e+01
4.110168148036627556e-02 1.745925817038095573e+01
4.214223037703165864e-02 1.645507801185514296e+01
4.318277927369704866e-02 1.702635990175893710e+01
4.422332817036243174e-02 1.628683501946807866e+01
4.526387706702781483e-02 1.598132751783787597e+01
4.630442596369319791e-02 1.620327076552010226e+01
4.734497486035858099e-02 1.553772072022051276e+01
4.838552375702396408e-02 1.489775337434952007e+01
4.942607265368934716e-02 1.469786964568335463e+01
5.046662155035473024e-02 1.520236009190657711e+01
5.150717044702011332e-02 1.538837616463306546e+01
5.254771934368549641e-02 1.502136925315407012e+01
5.358826824035087949e-02 1.523986283911204254e+01
5.462881713701626257e-02 1.619601564876604272e+01
5.566936603368164566e-02 1.586005608268368405e+01
5.670991493034702874e-02 1.625367379367653342e+01
5.775046382701241182e-02 1.707013005346265544e+01
5.879101272367779490e-02 1.772946204331060471e+01
5.983156162034317799e-02 1.863980881792668498e+01
6.087211051700856107e-02 2.014106469429596302e+01
6.191265941367394415e-02 2.239155946221264060e+01
6.295320831033933417e-02 2.429616981062518732e+01
6.399375720700471726e-02 2.641991601146841617e+01
6.503430610367010034e-02 2.907499633568860986e+01
6.607485500033548342e-02 3.148985819406013320e+01
6.711540389700086651e-02 3.343800052556144209e+01
6.815595279366624959e-02 3.744409695480374012e+01
6.919650169033163267e-02 4.068207486156448027e+01
7.023705058699701576e-02 4.462031781396336783e+01
7.127759948366239884e-02 5.039242923140064079e+01
7.231814838032778192e-02 6.073842859653990445e+01
7.335869727699316500e-02 8.548494637291349818e+01
7.439924617365854809e-02 1.441264879295678725e+02
7.543979507032393117e-02 2.436177744981264368e+02
7.648034396698931425e-02 3.429120415184544299e+02
7.752089286365469734e-02 4.554612921887003267e+02
7.856144176032008042e-02 7.061192366659365689e+02
7.960199065698546350e-02 1.114965885614695480e+03
8.064253955365084658e-02 1.267451894911318277e+03
8.168308845031622967e-02 9.188299861659866110e+02
8.272363734698161275e-02 5.270859285893229753e+02
8.376418624364699583e-02 3.460824212478761979e+02
8.480473514031239279e-02 2.677277848747730786e+02
8.584528403697777588e-02 2.188829546481449313e+02
8.688583293364315896e-02 1.840514954210147778e+02
8.792638183030854204e-02 1.581243125827329834e+02
8.896693072697392513e-02 1.394834885267914615e+02
9.000747962363930821e-02 1.309622813497242078e+02
9.104802852030469129e-02 1.368150130983538588e+02
9.208857741697007437e-02 1.453004288254207665e+02
9.312912631363545746e-02 1.280348161519647192e+02
9.416967521030084054e-02 8.447907579463856109e+01
9.521022410696622362e-02 4.641596701285947546e+01
9.625077300363160671e-02 2.615400204910909565e+01
9.729132190029698979e-02 1.692804800093232842e+01
9.833187079696237287e-02 1.165267057141520723e+01
9.937241969362775595e-02 8.607713666717422996e+00
1.004129685902931390e-01 6.755818587269210695e+00
1.014535174869585221e-01 5.534271228688446342e+00
1.024940663836239052e-01 4.912436634889772336e+00
1.035346152802892883e-01 3.883962975510272031e+00
1.045751641769546714e-01 3.541905308183785905e+00
1.056157130736200545e-01 2.620631889055253794e+00
1.066562619702854375e-01 2.033947413482422917e+00
1.076968108669508206e-01 1.944867880383853276e+00
1.087373597636162037e-01 1.614958497590691877e+00
1.097779086602815868e-01 1.192889650802548829e+00
1.108184575569469699e-01 1.514010170359881613e+00
1.118590064536123529e-01 1.538736468545721436e+00
1.128995553502777360e-01 1.470558548801356835e+00
1.139401042469431191e-01 1.843419298101267145e+00
1.149806531436085022e-01 1.961313929208003515e+00
1.160212020402738853e-01 1.793125823081581416e+00
1.170617509369392684e-01 1.737498300314115340e+00
1.181022998336046514e-01 2.344291796897664426e+00
1.191428487302700345e-01 2.796235858689883003e+00
1.201833976269354176e-01 2.680206694317320171e+00
1.212239465236008007e-01 2.353214687979729547e+00
1.222644954202661838e-01 2.872632461386025682e+00
1.233050443169315669e-01 3.457910434391180843e+00
1.243455932135969499e-01 4.330251518624905316e+00
1.253861421102623330e-01 5.033766054614105201e+00
1.264266910069277161e-01 6.364410109218034961e+00
1.274672399035930992e-01 8.554431464401773155e+00
1.285077888002584823e-01 1.428297070639767696e+01
1.295483376969238654e-01 2.571448551584343534e+01
1.305888865935892484e-01 4.062647101474784961e+01
1.316294354902546315e-01 4.331672297667827820e+01
1.326699843869200146e-01 3.164075909013038768e+01
1.337105332835853977e-01 1.970950996507227160e+01
1.347510821802507808e-01 1.338550540418921742e+01
1.357916310769161639e-01 1.070844556429639027e+01
1.368321799735815469e-01 9.470638597825285387e+00
1.378727288702469300e-01 8.788582732424231381e+00
1.389132777669123131e-01 9.128771011849664774e+00
1.399538266635776962e-01 8.860319309812979327e+00
1.409943755602430793e-01 8.102956015681314739e+00
1.420349244569084624e-01 7.893635992391331513e+00
1.430754733535738454e-01 7.920079418008860728e+00
1.441160222502392285e-01 7.877069258783478745e+00
1.451565711469046116e-01 8.559547295234267494e+00
1.461971200435699947e-01 8.654826382769755355e+00
1.472376689402353778e-01 9.474348343639100278e+00
1.482782178369007609e-01 1.152910399922153317e+01
1.493187667335661439e-01 1.468093272735759314e+01
1.503593156302315270e-01 2.112710258293915189e+01
1.513998645268969101e-01 3.505234037964131488e+01
1.524404134235622932e-01 5.610292952856392645e+01
1.534809623202276763e-01 7.389351402717767314e+01
1.545215112168930593e-01 7.065732497522390076e+01
1.555620601135584424e-01 4.929916791425659994e+01
1.566026090102238255e-01 3.056319250752711270e+01
1.576431579068892086e-01 2.222871119009352014e+01
1.586837068035545917e-01 1.940024238473485241e+01
1.597242557002199748e-01 1.919815032363539586e+01
1.607648045968853578e-01 1.884913016440074784e+01
1.618053534935507409e-01 1.508024222171097506e+01
1.628459023902161240e-01 9.482201612934701984e+00
1.638864512868815071e-01 5.533786751354327293e+00
1.649270001835468902e-01 3.632281562653496110e+00
1.659675490802122733e-01 2.844770477764825500e+00
1.670080979768776563e-01 2.434037306991662319e+00
1.680486468735430672e-01 2.341592313780040513e+00
1.690891957702084503e-01 1.626260291245976930e+00
1.701297446668738333e-01 1.208516158717898747e+00
1.711702935635392164e-01 1.010836436323280907e+00
1.722108424602045995e-01 6.095722109475545381e-01
1.732513913568699826e-01 6.478767085148646743e-01
1.742919402535353657e-01 9.996955050569482637e-01
1.753324891502007488e-01 1.215517385738309031e+00
1.763730380468661318e-01 8.964758594217130394e-01
1.774135869435315149e-01 1.110500547999372145e+00
1.784541358401968980e-01 8.589476923043974921e-01
1.794946847368622811e-01 6.018281430308363156e-01
1.805352336335276642e-01 1.093424111464749160e+00
1.815757825301930473e-01 7.536896424331871458e-01
1.826163314268584303e-01 4.187897447226589520e-01
1.836568803235238134e-01 5.653188003053770672e-01
1.846974292201891965e-01 8.478740231269554783e-01
1.857379781168545796e-01 6.835648772518112537e-01
1.867785270135199627e-01 3.866471555976502827e-01
1.878190759101853458e-01 2.374802865077541014e-01
1.888596248068507288e-01 5.188472134801216384e-01
1.899001737035161119e-01 5.078379255656528812e-01
1.909407226001814950e-01 2.669077289965144928e-01
1.919812714968468781e-01 6.735255576022183277e-01
1.930218203935122612e-01 8.921138504756243037e-01
1.940623692901776443e-01 6.963733137267169582e-01
1.951029181868430273e-01 6.798445003516633278e-01
1.961434670835084104e-01 7.408722708261237244e-01
1.971840159801737935e-01 4.336688690775858390e-01
1.982245648768391766e-01 6.909737352518519060e-01
1.992651137735045597e-01 7.899886042361714544e-01
2.003056626701699428e-01 1.160097139929135324e+00
2.013462115668353813e-01 1.820581194885576792e+00
2.023867604635007644e-01 2.332403027882357094e+00
2.034273093601661475e-01 2.667361235601070746e+00
2.044678582568315306e-01 2.732474770825426447e+00
2.055084071534969137e-01 3.223118957006725793e+00
2.065489560501622968e-01 4.052980541944513959e+00
2.075895049468276798e-01 4.259409144860661911e+00
2.086300538434930629e-01 3.478744074745208081e+00
2.096706027401584460e-01 2.148024493898560650e+00
2.107111516368238291e-01 1.896196456743744818e+00
2.117517005334892122e-01 1.758027322413930449e+00
2.127922494301545953e-01 1.417312409048399502e+00
2.138327983268199783e-01 1.116865883726646302e+00
2.148733472234853614e-01 1.148299133845142705e+00
2.159138961201507445e-01 1.352147800804992528e+00
2.169544450168161276e-01 1.189498964124915403e+00
2.179949939134815107e-01 1.173153253571683763e+00
2.190355428101468938e-01 1.258875406773469763e+00
2.200760917068122768e-01 1.283000475171803600e+00
2.211166406034776599e-01 1.436133963661852420e+00
2.221571895001430430e-01 1.819445543935223952e+00
2.231977383968084261e-01 2.206535310096001012e+00
2.242382872934738092e-01 2.563935209266958282e+00
2.252788361901391923e-01 3.319357966269791405e+00
2.263193850868045753e-01 4.369630452953050082e+00
2.273599339834699584e-01 4.820881940920283881e+00
2.284004828801353415e-01 4.405685934973128326e+00
2.294410317768007246e-01 3.386787808536102062e+00
2.304815806734661077e-01 2.693330918061235479e+00
2.315221295701314908e-01 1.887603051454838976e+00
2.325626784667968738e-01 1.830380455958568575e+00
2.336032273634622569e-01 1.765099057725915799e+00
2.346437762601276400e-01 1.850901348147008463e+00
2.356843251567930231e-01 2.006262640750282600e+00
2.367248740534584062e-01 1.864316603055012678e+00
2.377654229501237892e-01 2.154708873982382755e+00
2.388059718467891723e-01 2.992637500094147640e+00
2.398465207434545554e-01 3.857737367240545723e+00
2.408870696401199385e-01 3.999791446135077422e+00
2.419276185367853216e-01 3.456295032167588488e+00
2.429681674334507047e-01 2.510985914962500232e+00
2.440087163301160877e-01 1.708871412158654124e+00
2.450492652267814708e-01 1.088615223440726254e+00
2.460898141234468539e-01 7.572870906421869108e-01
2.471303630201122370e-01 9.682102337278628568e-01
2.481709119167776201e-01 5.791902786894205235e-01
2.492114608134430032e-01 4.584083986726135151e-01
2.502520097101083585e-01 4.336497260939502496e-01
2.512925586067737416e-01 3.354338711268169959e-01
2.523331075034391247e-01 3.026215117918447106e-01
2.533736564001045077e-01 4.180416144657002064e-01
2.544142052967698908e-01 4.215376501778749230e-01
2.554547541934352739e-01 2.865690297479375204e-01
2.564953030901006570e-01 3.467592270786816755e-01
2.575358519867660401e-01 3.176837379159707098e-01
2.585764008834314231e-01 4.537676058997597295e-01
2.596169497800968062e-01 4.820243390458145427e-01
2.606574986767621893e-01 8.291114590320098898e-01
2.616980475734275724e-01 7.673634852109962878e-01
2.627385964700929555e-01 5.233597029587215843e-01
2.637791453667583386e-01 4.761343639382644710e-01
2.648196942634237216e-01 5.367560478955795134e-01
2.658602431600891047e-01 3.350053590059900444e-01
2.669007920567544878e-01 1.238264955493910691e-01
2.679413409534198709e-01 2.039065675634610386e-01
2.689818898500852540e-01 2.041565577803403642e-01
2.700224387467506371e-01 2.649943988877758727e-01
2.710629876434160201e-01 3.351972566825551780e-01
2.721035365400814032e-01 1.358775441993671507e-01
2.731440854367467863e-01 1.107920344094992515e-01
2.741846343334121694e-01 4.224798460397458655e-01
2.752251832300775525e-01 3.433080158843928587e-01
2.762657321267429356e-01 4.579342555522316616e-01
2.773062810234083186e-01 4.811193301474112616e-01
2.783468299200737017e-01 2.540114068312000484e-01
2.793873788167390848e-01 1.956542221806287785e-01
2.804279277134044679e-01 4.667116579822874201e-01
2.814684766100698510e-01 4.320807931586969630e-01
2.825090255067352341e-01 3.562117733352927473e-01
2.835495744034006171e-01 2.129168016886922032e-01
2.845901233000660002e-01 4.194804170159791568e-01
2.856306721967313833e-01 5.202251769552432847e-01
2.866712210933967664e-01 5.707921152591737268e-01
2.877117699900621495e-01 5.560692105621072301e-01
2.887523188867275326e-01 8.752509827776080442e-01
2.897928677833929156e-01 7.201280755996357641e-01
2.908334166800582987e-01 6.452772412743534858e-01
2.918739655767236818e-01 6.406456938476630114e-01
2.929145144733890649e-01 5.193345539883154061e-01
2.939550633700544480e-01 7.638261875194842787e-01
2.949956122667198311e-01 5.629040453817353296e-01
2.960361611633852141e-01 4.664640148525975860e-01
2.970767100600505972e-01 4.875609027700100739e-01
2.981172589567159803e-01 6.133588625983037446e-01
2.991578078533813634e-01 6.897116540899794757e-01
3.001983567500468020e-01 7.552472844530626617e-01
3.012389056467121851e-01 7.712188954984888767e-01
3.022794545433775681e-01 9.362922839846667955e-01
3.033200034400429512e-01 1.050824437477725581e+00
3.043605523367083343e-01 1.186076114699847750e+00
3.054011012333737174e-01 1.074220854124401825e+00
3.064416501300391005e-01 8.412509006672834744e-01
3.074821990267044836e-01 1.026444856038406073e+00
3.085227479233698666e-01 1.052261474509293748e+00
3.095632968200352497e-01 9.600607903474482896e-01
3.106038457167006328e-01 8.233400928907492755e-01
3.116443946133660159e-01 7.557079047904728952e-01
3.126849435100313990e-01 3.307566971774882347e-01
3.137254924066967821e-01 3.535794286593478830e-01
3.147660413033621651e-01 6.251690688496225334e-01
3.158065902000275482e-01 5.220483840657657026e-01
3.168471390966929313e-01 5.243814997070757045e-01
3.178876879933583144e-01 5.659827043494338739e-01
3.189282368900236975e-01 5.772475293722756362e-01
3.199687857866890806e-01 6.007113999267090776e-01
3.210093346833544636e-01 3.394080866113782236e-01
3.220498835800198467e-01 5.185312868665050701e-01
3.230904324766852298e-01 4.664569099358786275e-01
3.241309813733506129e-01 3.524144352979519113e-01
3.251715302700159960e-01 3.705782164568880432e-01
3.262120791666813790e-01 4.636646655129439409e-01
3.272526280633467621e-01 3.826504986070631276e-01
3.282931769600121452e-01 4.670434338192812618e-01
3.293337258566775283e-01 2.664929332173002763e-01
3.303742747533429114e-01 4.763937905054369537e-01
3.314148236500082945e-01 5.565330171928124514e-01
3.324553725466736775e-01 7.602165513110179518e-01
3.334959214433390606e-01 5.564531102400209761e-01
3.345364703400044437e-01 3.200023611055655692e-01
3.355770192366698268e-01 3.010831441081478488e-01
3.366175681333352099e-01 3.472067321592930966e-01
3.376581170300005930e-01 1.548277377764293306e-01
3.386986659266659760e-01 1.353893266222030434e-01
3.397392148233313591e-01 2.504433143494573244e-01
3.407797637199967422e-01 3.474203135544335908e-01
3.418203126166621253e-01 2.317154967019128264e-01
3.428608615133275084e-01 2.025000374210463860e-01
3.439014104099928915e-01 1.279499350534720747e-01
3.449419593066582745e-01 3.979142295456448153e-01
3.459825082033236576e-01 5.000400232638924081e-01
3.470230570999890407e-01 1.688032100605489916e-01
3.480636059966544238e-01 4.190538746966261385e-01
3.491041548933198069e-01 3.708984867974471911e-01
3.501447037899851900e-01 2.071467804693867265e-01
3.511852526866505730e-01 7.908364321448146939e-03
3.522258015833159561e-01 3.106071163575876426e-01
3.532663504799813392e-01 4.967924870430131534e-01
3.543068993766467223e-01 5.104548754462037152e-01
3.553474482733121054e-01 2.977065853036258147e-01
3.563879971699774885e-01 2.922376918584426164e-01
3.574285460666428715e-01 4.092080393288739515e-01
3.584690949633082546e-01 5.301221193943703724e-01
3.595096438599736377e-01 3.034239737720341168e-01
3.605501927566390208e-01 0.000000000000000000e+00
3.615907416533044039e-01 3.441148773421431883e-02
3.626312905499697870e-01 9.258263638195884937e-02
3.636718394466351700e-01 1.235009269175648683e-01
3.647123883433005531e-01 2.532511394091727652e-01
3.657529372399659362e-01 3.359141736809938550e-01
3.667934861366313193e-01 4.344886510709926597e-01
3.678340350332967024e-01 2.349027786608814949e-01
3.688745839299620854e-01 2.640375576038245242e-01
3.699151328266274685e-01 4.079746902422485277e-01
3.709556817232928516e-01 5.959445827419891373e-01
3.719962306199582347e-01 5.628306804356739690e-01
3.730367795166236178e-01 3.491437162506088043e-01
3.740773284132890009e-01 3.056564247231641218e-01
3.751178773099543839e-01 3.757395255860984662e-01
3.761584262066197670e-01 4.448413949865646089e-01
3.771989751032851501e-01 6.400930451925930242e-01
3.782395239999505332e-01 5.755504432877849297e-01
3.792800728966159163e-01 8.052687222702097358e-01
3.803206217932812994e-01 8.141134596667640722e-01
3.813611706899466824e-01 7.369817100048230429e-01
3.824017195866120655e-01 7.871740065070156334e-01
3.834422684832774486e-01 4.643902292370363227e-01
3.844828173799428317e-01 4.382557417462642491e-01
3.855233662766082148e-01 5.715212878012536635e-01
3.865639151732735979e-01 7.027145494372319945e-01
3.876044640699389809e-01 4.648702451264874469e-01
3.886450129666043640e-01 2.247693428779449221e-01
3.896855618632697471e-01 2.951803930673797538e-01
3.907261107599351302e-01 4.193664516516655283e-01
3.917666596566005133e-01 4.861769915420772747e-01
3.928072085532658964e-01 4.231234059701129979e-01
3.938477574499312794e-01 4.960618086733639132e-01
3.948883063465966625e-01 4.792433543092897708e-01
3.959288552432620456e-01 6.918273635565981294e-01
3.969694041399274287e-01 5.972301594438000905e-01
3.980099530365928118e-01 5.817270105773815203e-01
3.990505019332581949e-01 6.190127422837079507e-01
4.000910508299235779e-01 4.558415384542655602e-01
4.011315997265889610e-01 4.769809966464535478e-01
4.021721486232543441e-01 4.158335788565814539e-01
4.032126975199197272e-01 4.858464402015805206e-01
4.042532464165851103e-01 4.850045341764221973e-01
4.052937953132504934e-01 3.752097503758911046e-01
4.063343442099158764e-01 4.095832755594202013e-01
4.073748931065812595e-01 5.564784537575668821e-01
4.084154420032466426e-01 6.359469415279868088e-01
4.094559908999120257e-01 4.582577249126522645e-01
4.104965397965774088e-01 2.256775417119314397e-01
4.115370886932427918e-01 4.610390618810598085e-01
4.125776375899081749e-01 4.272322526537060128e-01
4.136181864865735580e-01 4.873856733075037084e-01
4.146587353832389411e-01 4.305024958066887564e-01
4.156992842799043242e-01 3.650162317038727622e-01
4.167398331765697073e-01 2.843969268707517983e-01
4.177803820732350903e-01 2.636533725550229690e-01
4.188209309699004734e-01 3.420101482390549563e-01
4.198614798665658565e-01 4.360666717543431048e-01
4.209020287632312396e-01 3.932743885747811419e-01
4.219425776598966227e-01 5.125783888495547558e-01
4.229831265565620058e-01 4.991733457116964701e-01
4.240236754532273888e-01 4.311620335070820431e-01
4.250642243498927719e-01 2.745239456266581612e-01
4.261047732465581550e-01 3.860476272080894944e-01
4.271453221432235381e-01 5.000303066824614007e-01
4.281858710398889212e-01 3.293957713385182728e-01
4.292264199365543043e-01 4.090162780601431791e-01
4.302669688332196873e-01 3.152567441031948192e-01
4.313075177298850704e-01 2.202315176680365028e-01
4.323480666265504535e-01 2.421713783228796046e-01
4.333886155232158366e-01 2.606657302966368661e-01
4.344291644198812197e-01 2.331840148145083447e-01
