# q (1/Angstrom), Intensity (arb)
2.029070354705860696e-02 1.057606323380794606e+02
2.133125244372399004e-02 8.423643938889421179e+01
2.237180134038937659e-02 7.215671134103271811e+01
2.341235023705475968e-02 6.327400914911220298e+01
2.445289913372014276e-02 5.324968328169501319e+01
2.549344803038552584e-02 4.764144347845856942e+01
2.653399692705091240e-02 4.138744538833545050e+01
2.757454582371629548e-02 3.672909497374284626e+01
2.861509472038167856e-02 3.336624295129881546e+01
2.965564361704706164e-02 3.137482603234613521e+01
3.069619251371244473e-02 2.969429892416252414e+01
3.173674141037782781e-02 2.578571505523912322e+01
3.277729030704321089e-02 2.360888473327609915e+01
3.381783920370859398e-02 2.285717248326319861e+01
3.485838810037397706e-02 2.137424453125667867e+01
3.589893699703936014e-02 2.058852786876308016e+01
3.693948589370474322e-02 1.859840532195792662e+01
3.798003479037012631e-02 1.674775796024152186e+01
3.902058368703550939e-02 1.683015455790688719e+01
4.006113258370089247e-02 1.674988943120691687e+01
4.110168148036627556e-02 1.638939804492768815e+01
4.214223037703165864e-02 1.498339418259698164e+01
4.318277927369704866e-02 1.472684000724835585e+01
4.422332817036243174e-02 1.423322107066370279e+01
4.526387706702781483e-02 1.406115410867847970e+01
4.630442596369319791e-02 1.345763860294923830e+01
4.734497486035858099e-02 1.483008514740882333e+01
4.838552375702396408e-02 1.467795745565209131e+01
4.942607265368934716e-02 1.451613785166508563e+01
5.046662155035473024e-02 1.426766527134641649e+01
5.150717044702011332e-02 1.493625847648554128e+01
5.254771934368549641e-02 1.482843825034788665e+01
5.358826824035087949e-02 1.499756014539577365e+01
5.462881713701626257e-02 1.510673596581310818e+01
5.566936603368164566e-02 1.538640983426947173e+01
5.670991493034702874e-02 1.635253905553970100e+01
5.775046382701241182e-02 1.690613937054435212e+01
5.879101272367779490e-02 1.731843334903343390e+01
5.983156162034317799e-02 1.829921448669661999e+01
6.087211051700856107e-02 1.960550603208019993e+01
6.191265941367394415e-02 2.060391634483444534e+01
6.295320831033933417e-02 2.144782935545934066e+01
6.399375720700471726e-02 2.295708465257148134e+01
6.503430610367010034e-02 2.523749909910760891e+01
6.607485500033548342e-02 2.759396661595533118e+01
6.711540389700086651e-02 2.981209310153877823e+01
6.815595279366624959e-02 3.181170677539521563e+01
6.919650169033163267e-02 3.535768739791112836e+01
7.023705058699701576e-02 3.802340829892042251e+01
7.127759948366239884e-02 4.249023939399118888e+01
7.231814838032778192e-02 4.922915707557351794e+01
7.335869727699316500e-02 5.975060970340478406e+01
7.439924617365854809e-02 8.291956902101117066e+01
7.543979507032393117e-02 1.395952700319976429e+02
7.648034396698931425e-02 2.358057657942778746e+02
7.752089286365469734e-02 3.352320423001697236e+02
7.856144176032008042e-02 4.406288333639309940e+02
7.960199065698546350e-02 6.749159063398439002e+02
8.064253955365084658e-02 1.082194815074987446e+03
8.168308845031622967e-02 1.282778768655401791e+03
8.272363734698161275e-02 9.717689179915051909e+02
8.376418624364699583e-02 5.667103351216043166e+02
8.480473514031239279e-02 3.667163838458844793e+02
8.584528403697777588e-02 2.803375163729945712e+02
8.688583293364315896e-02 2.301162221520870617e+02
8.792638183030854204e-02 1.945739819046540617e+02
8.896693072697392513e-02 1.681932828050294120e+02
9.000747962363930821e-02 1.480783679395210868e+02
9.104802852030469129e-02 1.390642720251606761e+02
9.208857741697007437e-02 1.414617415679074952e+02
9.312912631363545746e-02 1.518759524995496690e+02
9.416967521030084054e-02 1.447424261892611810e+02
9.521022410696622362e-02 1.051134639743587513e+02
9.625077300363160671e-02 5.953438324130758730e+01
9.729132190029698979e-02 3.254519045600422800e+01
9.833187079696237287e-02 2.050024948209755138e+01
9.937241969362775595e-02 1.462090813055424832e+01
1.004129685902931390e-01 1.163793458963115768e+01
1.014535174869585221e-01 9.209947715954747594e+00
1.024940663836239052e-01 7.281532772255076225e+00
1.035346152802892883e-01 6.078065649163377770e+00
1.045751641769546714e-01 5.168917602141782197e+00
1.056157130736200545e-01 4.388476397903794179e+00
1.066562619702854375e-01 3.624028332327576152e+00
1.076968108669508206e-01 3.360174102639987836e+00
1.087373597636162037e-01 3.055708297508942906e+00
1.097779086602815868e-01 2.803328992365663908e+00
1.108184575569469699e-01 2.699118515384839156e+00
1.118590064536123529e-01 2.423250863531144716e+00
1.128995553502777360e-01 2.593393792900485550e+00
1.139401042469431191e-01 2.310789386427003933e+00
1.149806531436085022e-01 2.123133452626206008e+00
1.160212020402738853e-01 2.006579670725585629e+00
1.170617509369392684e-01 1.976712026414645607e+00
1.181022998336046514e-01 1.964007690287637331e+00
1.191428487302700345e-01 1.838340408909587609e+00
1.201833976269354176e-01 2.446392115509468113e+00
1.212239465236008007e-01 2.559732264413227654e+00
1.222644954202661838e-01 2.763431570725167319e+00
1.233050443169315669e-01 3.284280044405640808e+00
1.243455932135969499e-01 3.213796167473581988e+00
1.253861421102623330e-01 3.697970546936694802e+00
1.264266910069277161e-01 3.718969959302661721e+00
1.274672399035930992e-01 4.624479292904631222e+00
1.285077888002584823e-01 6.168308830678917332e+00
1.295483376969238654e-01 8.797240472998872463e+00
1.305888865935892484e-01 1.450363038763375556e+01
1.316294354902546315e-01 2.580798982664296659e+01
1.326699843869200146e-01 3.720578586232912244e+01
1.337105332835853977e-01 3.635218762818611538e+01
1.347510821802507808e-01 2.532979410510072427e+01
1.357916310769161639e-01 1.615455118940440116e+01
1.368321799735815469e-01 1.109908065746429884e+01
1.378727288702469300e-01 9.312387210901611923e+00
1.389132777669123131e-01 8.735998963902218861e+00
1.399538266635776962e-01 8.021198673198867368e+00
1.409943755602430793e-01 8.103497852994031803e+00
1.420349244569084624e-01 8.355136711546542472e+00
1.430754733535738454e-01 8.122724268741627895e+00
1.441160222502392285e-01 7.967838558482604583e+00
1.451565711469046116e-01 7.924590615847485253e+00
1.461971200435699947e-01 8.124726965995712646e+00
1.472376689402353778e-01 8.222417327985333202e+00
1.482782178369007609e-01 8.706193142523225958e+00
1.493187667335661439e-01 9.528592739091202191e+00
1.503593156302315270e-01 1.091535924749828723e+01
1.513998645268969101e-01 1.390584137370643703e+01
1.524404134235622932e-01 1.989777341160118596e+01
1.534809623202276763e-01 3.173367499457494034e+01
1.545215112168930593e-01 5.187425281251287146e+01
1.555620601135584424e-01 7.121891751910689550e+01
1.566026090102238255e-01 7.066458675213831953e+01
1.576431579068892086e-01 5.036960057601360319e+01
1.586837068035545917e-01 3.143956952029502361e+01
1.597242557002199748e-01 2.235840307186725795e+01
1.607648045968853578e-01 1.957667330772917325e+01
1.618053534935507409e-01 1.956211870491340221e+01
1.628459023902161240e-01 1.971711076106619487e+01
1.638864512868815071e-01 1.636979341543437982e+01
1.649270001835468902e-01 1.084800471667737654e+01
1.659675490802122733e-01 6.588890476740797197e+00
1.670080979768776563e-01 4.473119489857658948e+00
1.680486468735430672e-01 3.234352410624268259e+00
1.690891957702084503e-01 2.725388887732272281e+00
1.701297446668738333e-01 2.478368718227642375e+00
1.711702935635392164e-01 2.186292470590231574e+00
1.722108424602045995e-01 1.903413736346792007e+00
1.732513913568699826e-01 2.019582610406040146e+00
1.742919402535353657e-01 1.607178116165677295e+00
1.753324891502007488e-01 1.122691611015611102e+00
1.763730380468661318e-01 1.276813836751010456e+00
1.774135869435315149e-01 1.198210188853995106e+00
1.784541358401968980e-01 1.314597715489512098e+00
1.794946847368622811e-01 1.144523571359410852e+00
1.805352336335276642e-01 1.256030820199207199e+00
1.815757825301930473e-01 1.229787839559342899e+00
1.826163314268584303e-01 1.364029924671740446e+00
1.836568803235238134e-01 1.616156427771564097e+00
1.846974292201891965e-01 1.310592713932148712e+00
1.857379781168545796e-01 9.844125453126508773e-01
1.867785270135199627e-01 8.404728643766290475e-01
1.878190759101853458e-01 8.899537426350114799e-01
1.888596248068507288e-01 1.193403975558041452e+00
1.899001737035161119e-01 1.190422232553032700e+00
1.909407226001814950e-01 7.277378829490075418e-01
1.919812714968468781e-01 7.714062208506575757e-01
1.930218203935122612e-01 9.138793686661585980e-01
1.940623692901776443e-01 8.628217735611798389e-01
1.951029181868430273e-01 8.399907386734106751e-01
1.961434670835084104e-01 9.135329737671469275e-01
1.971840159801737935e-01 1.042622574874947361e+00
1.982245648768391766e-01 1.156224013211399892e+00
1.992651137735045597e-01 8.694547336998077469e-01
2.003056626701699428e-01 9.009893799063846132e-01
2.013462115668353813e-01 1.057037677940524389e+00
2.023867604635007644e-01 1.001513860059564109e+00
2.034273093601661475e-01 1.181565016753470587e+00
2.044678582568315306e-01 1.913881493129707678e+00
2.055084071534969137e-01 2.184520748580158767e+00
2.065489560501622968e-01 1.983778236087420765e+00
2.075895049468276798e-01 2.077141621151923800e+00
2.086300538434930629e-01 2.777275068412340175e+00
2.096706027401584460e-01 3.501509106526906834e+00
2.107111516368238291e-01 3.362831615151637976e+00
2.117517005334892122e-01 2.686317986246152145e+00
2.127922494301545953e-01 2.070878315454688590e+00
2.138327983268199783e-01 1.539098850359696513e+00
2.148733472234853614e-01 1.382138806798977271e+00
2.159138961201507445e-01 1.481321389572830327e+00
2.169544450168161276e-01 1.229575817354476186e+00
2.179949939134815107e-01 1.115586880220234889e+00
2.190355428101468938e-01 1.225526747601893618e+00
2.200760917068122768e-01 1.095357447257647721e+00
2.211166406034776599e-01 1.075162901627511047e+00
2.221571895001430430e-01 1.172599928998707242e+00
2.231977383968084261e-01 1.364337423315021169e+00
2.242382872934738092e-01 1.627207415839830418e+00
2.252788361901391923e-01 1.461393397157412011e+00
2.263193850868045753e-01 1.529788468191298989e+00
2.273599339834699584e-01 2.317946500235262164e+00
2.284004828801353415e-01 3.189721869576821689e+00
2.294410317768007246e-01 4.113112095646410893e+00
2.304815806734661077e-01 4.417836625988908139e+00
2.315221295701314908e-01 4.318212348393224431e+00
2.325626784667968738e-01 3.703752263266586908e+00
2.336032273634622569e-01 2.798179042573043063e+00
2.346437762601276400e-01 2.296408197810883678e+00
2.356843251567930231e-01 2.401672279039608782e+00
2.367248740534584062e-01 2.099080998076079396e+00
2.377654229501237892e-01 1.962687159900490030e+00
2.388059718467891723e-01 2.367822628689260966e+00
2.398465207434545554e-01 2.271923788764304675e+00
2.408870696401199385e-01 2.440245163914799065e+00
2.419276185367853216e-01 2.842799143895959446e+00
2.429681674334507047e-01 3.365852232180600367e+00
2.440087163301160877e-01 4.043076272427811091e+00
2.450492652267814708e-01 3.958587982523653181e+00
2.460898141234468539e-01 2.975341029302878582e+00
2.471303630201122370e-01 2.100146507152835795e+00
2.481709119167776201e-01 1.514386861272427609e+00
2.492114608134430032e-01 1.113863329809674951e+00
2.502520097101083585e-01 1.003999982459628626e+00
2.512925586067737416e-01 7.538948780973875330e-01
2.523331075034391247e-01 7.677909986410824672e-01
2.533736564001045077e-01 7.946936899047685188e-01
2.544142052967698908e-01 7.101128440168835709e-01
2.554547541934352739e-01 7.868886998988031678e-01
2.564953030901006570e-01 7.711206760589881526e-01
2.575358519867660401e-01 5.084861011174481860e-01
2.585764008834314231e-01 5.454862657839072426e-01
2.596169497800968062e-01 6.121444502530266618e-01
2.606574986767621893e-01 5.235311380903944212e-01
2.616980475734275724e-01 6.178064078224920763e-01
2.627385964700929555e-01 7.050483114702359444e-01
2.637791453667583386e-01 6.121406357614809224e-01
2.648196942634237216e-01 7.653119532572745243e-01
2.658602431600891047e-01 8.036299994025526416e-01
2.669007920567544878e-01 7.970211466937549005e-01
2.679413409534198709e-01 7.642552408043989942e-01
2.689818898500852540e-01 6.328499932017024321e-01
2.700224387467506371e-01 5.284227268363714813e-01
2.710629876434160201e-01 5.455873101743016207e-01
2.721035365400814032e-01 5.135132638141826078e-01
2.731440854367467863e-01 2.430313130160364210e-01
2.741846343334121694e-01 1.825804710814225018e-01
2.752251832300775525e-01 3.480625804309482874e-01
2.762657321267429356e-01 3.221656138858186580e-01
2.773062810234083186e-01 4.843030281012339344e-01
2.783468299200737017e-01 6.540371374069131605e-01
2.793873788167390848e-01 4.972331747688336634e-01
2.804279277134044679e-01 3.661062999325608303e-01
2.814684766100698510e-01 2.482119058378842169e-01
2.825090255067352341e-01 3.588809192423703109e-01
2.835495744034006171e-01 5.188287470483281538e-01
2.845901233000660002e-01 5.832802960004670467e-01
2.856306721967313833e-01 6.848000340704913924e-01
2.866712210933967664e-01 6.127930546488364882e-01
2.877117699900621495e-01 5.213856678210504469e-01
2.887523188867275326e-01 3.569232191664752918e-01
2.897928677833929156e-01 3.626368117990210749e-01
2.908334166800582987e-01 4.586925126181959911e-01
2.918739655767236818e-01 6.651779500735059969e-01
2.929145144733890649e-01 6.233490385355153762e-01
2.939550633700544480e-01 6.229403170293750236e-01
2.949956122667198311e-01 4.282755839224208216e-01
2.960361611633852141e-01 6.915702186127710149e-01
2.970767100600505972e-01 7.352015185646081363e-01
2.981172589567159803e-01 7.752461063420987841e-01
2.991578078533813634e-01 9.077633611471505048e-01
3.001983567500468020e-01 5.613049094338684597e-01
3.012389056467121851e-01 6.075672421849915850e-01
3.022794545433775681e-01 8.323051670508299082e-01
3.033200034400429512e-01 5.727100760664214363e-01
3.043605523367083343e-01 8.072721406149661050e-01
3.054011012333737174e-01 8.813712673884062099e-01
3.064416501300391005e-01 9.201105097355863904e-01
3.074821990267044836e-01 1.082876893701090637e+00
3.085227479233698666e-01 1.277448428893556809e+00
3.095632968200352497e-01 1.081411816896995504e+00
3.106038457167006328e-01 1.000761095284239843e+00
3.116443946133660159e-01 1.068737072936261967e+00
3.126849435100313990e-01 9.878924197693095266e-01
3.137254924066967821e-01 9.920295497408169183e-01
3.147660413033621651e-01 7.466923511274679015e-01
3.158065902000275482e-01 5.787967465928929300e-01
3.168471390966929313e-01 5.408355044270116707e-01
3.178876879933583144e-01 4.052283692039324592e-01
3.189282368900236975e-01 5.018974834444911437e-01
3.199687857866890806e-01 5.584887051547013925e-01
3.210093346833544636e-01 3.676836102104026338e-01
3.220498835800198467e-01 5.402159615388164582e-01
3.230904324766852298e-01 5.747605796277746038e-01
3.241309813733506129e-01 6.002505557478521325e-01
3.251715302700159960e-01 5.641896843842708620e-01
3.262120791666813790e-01 6.590524501226759924e-01
3.272526280633467621e-01 6.593037616055461569e-01
3.282931769600121452e-01 6.539045787721491365e-01
3.293337258566775283e-01 5.362131565133658739e-01
3.303742747533429114e-01 6.929892086589468647e-01
3.314148236500082945e-01 7.537590696300071613e-01
3.324553725466736775e-01 5.385969795211167366e-01
3.334959214433390606e-01 6.810153437578563285e-01
3.345364703400044437e-01 9.710226700148716361e-01
3.355770192366698268e-01 8.462345544762044369e-01
3.366175681333352099e-01 6.202381009767563569e-01
3.376581170300005930e-01 7.035808867592905358e-01
3.386986659266659760e-01 5.660106227568491022e-01
3.397392148233313591e-01 5.762260514869801398e-01
3.407797637199967422e-01 8.078614597795166219e-01
3.418203126166621253e-01 7.689110696019341162e-01
3.428608615133275084e-01 6.914696881099295922e-01
3.439014104099928915e-01 4.532339401820522085e-01
3.449419593066582745e-01 2.972117907521436564e-01
3.459825082033236576e-01 2.720753914711870891e-01
3.470230570999890407e-01 4.664349381126591254e-01
3.480636059966544238e-01 3.696309302665952146e-01
3.491041548933198069e-01 3.489967154300295249e-01
3.501447037899851900e-01 4.333495473738189219e-01
3.511852526866505730e-01 4.542332412773966155e-01
3.522258015833159561e-01 6.685171654107584516e-01
3.532663504799813392e-01 5.088460455154013573e-01
3.543068993766467223e-01 5.013859824551722966e-01
3.553474482733121054e-01 6.209569949581528192e-01
3.563879971699774885e-01 5.726472253278558355e-01
3.574285460666428715e-01 5.674323177216287206e-01
3.584690949633082546e-01 4.830235002403959754e-01
3.595096438599736377e-01 3.277454129955934548e-01
3.605501927566390208e-01 2.665073034092273474e-01
3.615907416533044039e-01 2.623146037402186437e-01
3.626312905499697870e-01 4.266249082488222655e-01
3.636718394466351700e-01 4.465006254436580946e-01
3.647123883433005531e-01 5.381329767940457032e-01
3.657529372399659362e-01 5.526874301244220078e-01
3.667934861366313193e-01 4.113657715036538320e-01
3.678340350332967024e-01 4.360462222321181969e-01
3.688745839299620854e-01 4.537043520443901912e-01
3.699151328266274685e-01 4.322119479256869568e-01
3.709556817232928516e-01 3.092657660444544376e-01
3.719962306199582347e-01 5.218680255384562372e-01
3.730367795166236178e-01 2.291123276405819809e-01
3.740773284132890009e-01 2.203617799188570814e-01
3.751178773099543839e-01 2.634845775695531245e-01
3.761584262066197670e-01 2.708168488326592183e-01
3.771989751032851501e-01 3.474351038039387163e-01
3.782395239999505332e-01 3.975627406836572675e-01
3.792800728966159163e-01 5.256973187612636877e-01
3.803206217932812994e-01 4.866316141678836971e-01
3.813611706899466824e-01 6.326624823703959066e-01
3.824017195866120655e-01 7.588027767371343657e-01
3.834422684832774486e-01 5.285729065988711284e-01
3.844828173799428317e-01 4.487597893336499055e-01
3.855233662766082148e-01 4.675630766023068929e-01
3.865639151732735979e-01 4.670902917840180635e-01
3.876044640699389809e-01 5.814542636262700626e-01
3.886450129666043640e-01 6.567962448023223487e-01
3.896855618632697471e-01 5.930909250591653858e-01
3.907261107599351302e-01 4.998512926786133903e-01
3.917666596566005133e-01 5.795332829878354630e-01
3.928072085532658964e-01 5.541864961298870185e-01
3.938477574499312794e-01 5.763364961516508345e-01
3.948883063465966625e-01 6.618261515343455414e-01
3.959288552432620456e-01 4.820140103570942358e-01
3.969694041399274287e-01 5.586173927639528358e-01
3.980099530365928118e-01 4.011205011331995252e-01
3.990505019332581949e-01 3.678528899104520633e-01
4.000910508299235779e-01 5.138308515787848307e-01
4.011315997265889610e-01 5.820572874998077850e-01
4.021721486232543441e-01 5.551394570621965840e-01
4.032126975199197272e-01 7.292239124572930109e-01
4.042532464165851103e-01 7.967786931873881429e-01
4.052937953132504934e-01 7.205539598843309079e-01
4.063343442099158764e-01 7.095143280076960934e-01
4.073748931065812595e-01 5.231326315414861483e-01
4.084154420032466426e-01 6.529129056602940295e-01
4.094559908999120257e-01 6.549182064222236477e-01
4.104965397965774088e-01 7.756942493285947648e-01
4.115370886932427918e-01 5.923800570345356675e-01
4.125776375899081749e-01 6.122129993052531916e-01
4.136181864865735580e-01 6.435456935129053591e-01
4.146587353832389411e-01 5.792930542177607833e-01
4.156992842799043242e-01 5.297947388092545395e-01
4.167398331765697073e-01 6.644634772661319744e-01
4.177803820732350903e-01 5.318793530677474735e-01
4.188209309699004734e-01 5.718111087970747519e-01
4.198614798665658565e-01 6.590835298865478364e-01
4.209020287632312396e-01 6.009939330728784057e-01
4.219425776598966227e-01 4.418319637466119332e-01
4.229831265565620058e-01 4.194538998680528152e-01
4.240236754532273888e-01 4.363163869333845923e-01
4.250642243498927719e-01 4.463943367568035114e-01
4.261047732465581550e-01 5.008336434721307739e-01
4.271453221432235381e-01 5.699128398019013275e-01
4.281858710398889212e-01 4.719930516080275140e-01
4.292264199365543043e-01 4.104722538769465245e-01
4.302669688332196873e-01 4.168809111687714619e-01
4.313075177298850704e-01 3.464754630011199765e-01
4.323480666265504535e-01 4.600255673047435323e-01
4.333886155232158366e-01 5.921085134361270264e-01
4.344291644198812197e-01 5.871130410700864388e-01
