# q (1/angstrom), Intensity (arb)
5.442561321563801468e-04 1.903943288721064775e+00
1.632768266578491423e-03 2.073560767754287326e+00
2.721280401000602915e-03 1.354846130725929854e+00
3.809792535422714191e-03 1.120562592341975972e+00
4.898304669844825467e-03 1.265724878158971833e+00
5.986816804266936742e-03 1.791872780754044214e+00
7.075328938689048018e-03 1.520000712675305010e+00
8.163841073111159294e-03 1.523344830884596490e+00
9.252353207533271437e-03 1.636643366562621438e+00
1.034086534195538185e-02 1.633662783073111413e+00
1.142937747637749399e-02 1.973344033489269123e+00
1.251788961079960440e-02 2.132690958884039034e+00
1.360640174522171481e-02 2.149295067826360039e+00
1.469491387964382695e-02 2.346509272777238309e+00
1.578342601406593909e-02 2.829595245369555201e+00
1.687193814848804777e-02 8.297972584347483860e+00
1.796045028291015991e-02 2.811496847172304570e+01
1.904896241733227205e-02 4.670679782985101980e+01
2.013747455175438072e-02 6.201457874668099635e+01
2.122598668617649287e-02 7.464866667407403611e+01
2.231449882059860501e-02 8.293368770561710335e+01
2.340301095502071715e-02 8.880065146472422555e+01
2.449152308944282930e-02 8.885753644142556595e+01
2.558003522386494144e-02 8.641710828693301494e+01
2.666854735828705011e-02 8.392708276150841584e+01
2.775705949270916573e-02 8.060574965214402710e+01
2.884557162713127440e-02 7.581845101629407679e+01
2.993408376155338307e-02 7.065880754404508934e+01
3.102259589597549869e-02 6.624095840850569061e+01
3.211110803039760736e-02 5.974967963621772782e+01
3.319962016481971950e-02 5.501271305546234913e+01
3.428813229924183165e-02 5.078884980377990388e+01
3.537664443366394379e-02 4.683616837484301954e+01
3.646515656808604899e-02 4.152678992098260125e+01
3.755366870250816808e-02 3.818224179422387010e+01
3.864218083693027328e-02 3.547009375595870750e+01
3.973069297135238542e-02 3.296139007192746107e+01
4.081920510577449757e-02 3.178189036619088625e+01
4.190771724019660971e-02 2.973092641946907477e+01
4.299622937461872185e-02 2.774851322388200003e+01
4.408474150904083400e-02 2.621890382964196675e+01
4.517325364346294614e-02 2.447166972198748880e+01
4.626176577788505134e-02 2.316263810437527582e+01
4.735027791230717042e-02 2.223971641377152153e+01
4.843879004672927563e-02 2.219592746879867207e+01
4.952730218115138777e-02 2.140932526856231277e+01
5.061581431557350685e-02 2.043079393158269141e+01
5.170432644999561900e-02 2.032392736594788119e+01
5.279283858441772420e-02 1.930928923563022437e+01
5.388135071883984328e-02 1.931341881201048238e+01
5.496986285326195543e-02 1.885775638421124611e+01
5.605837498768406063e-02 1.784298398758097903e+01
5.714688712210617277e-02 1.788286370108264478e+01
5.823539925652829186e-02 1.786303005948196798e+01
5.932391139095039012e-02 1.733503383172445567e+01
6.041242352537250920e-02 1.703232572003933143e+01
6.150093565979462135e-02 1.670268198809892368e+01
6.258944779421672655e-02 1.646741348622283141e+01
6.367795992863883869e-02 1.605511653541763195e+01
6.476647206306095084e-02 1.596779975943022301e+01
6.585498419748306298e-02 1.626513383926272027e+01
6.694349633190517512e-02 1.651038092400246882e+01
6.803200846632728727e-02 1.729511323042129334e+01
6.912052060074939941e-02 1.794328669743478599e+01
7.020903273517151155e-02 1.900937504670396549e+01
7.129754486959362370e-02 1.998618329639194613e+01
7.238605700401572196e-02 2.083313395371715870e+01
7.347456913843784798e-02 2.228904425803658640e+01
7.456308127285996012e-02 2.351826865089606855e+01
7.565159340728205839e-02 2.471518314517307502e+01
7.674010554170418441e-02 2.590135195444451455e+01
7.782861767612629655e-02 2.694742953666725782e+01
7.891712981054839482e-02 2.638664070408032103e+01
8.000564194497050696e-02 2.741852047164439199e+01
8.109415407939263298e-02 2.750476554912557958e+01
8.218266621381473125e-02 2.714466508103923559e+01
8.327117834823684339e-02 2.626007875697925442e+01
8.435969048265895553e-02 2.419044600054314387e+01
8.544820261708106768e-02 2.283262196684420431e+01
8.653671475150317982e-02 2.081378120465919324e+01
8.762522688592529196e-02 1.859823735543162826e+01
8.871373902034740411e-02 1.718854469742350943e+01
8.980225115476951625e-02 1.521326766115402052e+01
9.089076328919162839e-02 1.353797733457072994e+01
9.197927542361372666e-02 1.209177459282391176e+01
9.306778755803585268e-02 1.020525581118149105e+01
9.415629969245796482e-02 9.034366597489071893e+00
9.524481182688006309e-02 8.010396418028950194e+00
9.633332396130217523e-02 6.895976934755122301e+00
9.742183609572430125e-02 6.165455356620970662e+00
9.851034823014639952e-02 5.383946084914773778e+00
9.959886036456851166e-02 4.933176638738702380e+00
1.006873724989906238e-01 4.445183875069298907e+00
1.017758846334127498e-01 3.855620817364028952e+00
1.028643967678348620e-01 3.683423657463670509e+00
1.039529089022569464e-01 3.363515028693823794e+00
1.050414210366790724e-01 2.957499946916584577e+00
1.061299331711011845e-01 2.752099467894648654e+00
1.072184453055232967e-01 2.686606194733558439e+00
1.083069574399454088e-01 2.411539247250695794e+00
1.093954695743675209e-01 1.816693847273411322e+00
1.104839817087896192e-01 2.102697532232097544e+00
1.115724938432117314e-01 2.288180215599995293e+00
1.126610059776338435e-01 2.233130029125396376e+00
1.137495181120559695e-01 2.188823932044792642e+00
1.148380302464780817e-01 1.733396292593495147e+00
1.159265423809001938e-01 1.684274095885260891e+00
1.170150545153222921e-01 1.492525614449574434e+00
1.181035666497444042e-01 1.424094130491004861e+00
1.191920787841665164e-01 1.506263695412714654e+00
1.202805909185886285e-01 1.468924729311899213e+00
1.213691030530107406e-01 1.661251219434628723e+00
1.224576151874328667e-01 1.471760467752469381e+00
1.235461273218549511e-01 1.649457220900451659e+00
1.246346394562770632e-01 1.764261191761955061e+00
1.257231515906991892e-01 1.529609762884467372e+00
1.268116637251212875e-01 1.558831151313007979e+00
1.279001758595434135e-01 1.578642754374605772e+00
1.289886879939655395e-01 1.624296136147794556e+00
1.300772001283876100e-01 1.534678511659988587e+00
1.311657122628097361e-01 1.452332566934108726e+00
1.322542243972318621e-01 1.633722058949146572e+00
1.333427365316539603e-01 1.596562594462460183e+00
1.344312486660760864e-01 1.378115862593643826e+00
1.355197608004981846e-01 1.398257076851377789e+00
1.366082729349202829e-01 1.740717383208686186e+00
1.376967850693424089e-01 1.491631131699723056e+00
1.387852972037645072e-01 1.533444813087651681e+00
1.398738093381866332e-01 1.590004729170805930e+00
1.409623214726087592e-01 1.354446907493525032e+00
1.420508336070308575e-01 1.448903244077452968e+00
1.431393457414529835e-01 1.436717099611149351e+00
1.442278578758750818e-01 1.327035094965081541e+00
1.453163700102971800e-01 1.271971596049853659e+00
1.464048821447193061e-01 1.475070277080645198e+00
1.474933942791414043e-01 1.415985250020577624e+00
1.485819064135635303e-01 1.166076269941381582e+00
1.496704185479856564e-01 1.360476083086314958e+00
1.507589306824077546e-01 1.312665331353036535e+00
1.518474428168298529e-01 1.132325861522897270e+00
1.529359549512519789e-01 1.122620572818899376e+00
1.540244670856740772e-01 1.068867746679355690e+00
1.551129792200962032e-01 1.195158719174019168e+00
1.562014913545183292e-01 1.155493157052603692e+00
1.572900034889403997e-01 1.271038559342899887e+00
1.583785156233625258e-01 1.221438842550430337e+00
1.594670277577846518e-01 1.229422042922093894e+00
1.605555398922067500e-01 1.172112517330756276e+00
1.616440520266288761e-01 1.120615298198318399e+00
1.627325641610509743e-01 9.316778524415614271e-01
1.638210762954730726e-01 8.501519884224588708e-01
1.649095884298951986e-01 9.185373111870749341e-01
1.659981005643172969e-01 1.096255253246447126e+00
1.670866126987394229e-01 7.607483882219181481e-01
1.681751248331615489e-01 6.885073712737099783e-01
1.692636369675836472e-01 8.643887211082894595e-01
1.703521491020057455e-01 9.006316449943341240e-01
1.714406612364278715e-01 8.255553049511341612e-01
1.725291733708499697e-01 7.423092793361885100e-01
1.736176855052720958e-01 8.677167886900463145e-01
1.747061976396941940e-01 9.556881168556277117e-01
1.757947097741163200e-01 6.720412110926758942e-01
1.768832219085384183e-01 4.884838516172109735e-01
1.779717340429605166e-01 7.025949458159566063e-01
1.790602461773826426e-01 6.403348820783723028e-01
1.801487583118047686e-01 8.896305657667369360e-01
1.812372704462268669e-01 9.023167339114035457e-01
1.823257825806489929e-01 7.762155016109204553e-01
1.834142947150710912e-01 7.195667246306740594e-01
1.845028068494931894e-01 7.262587981014050342e-01
1.855913189839153155e-01 7.762652760375718941e-01
1.866798311183374137e-01 5.922721675139470676e-01
1.877683432527595397e-01 5.895696474944482901e-01
1.888568553871816658e-01 6.244837236202780417e-01
1.899453675216037363e-01 6.939873595590348998e-01
1.910338796560258623e-01 5.353446826187724383e-01
1.921223917904479883e-01 5.764912876921517437e-01
1.932109039248700866e-01 5.690889222723765073e-01
1.942994160592922126e-01 4.483682167960125753e-01
1.953879281937143109e-01 5.337565972458691022e-01
1.964764403281364091e-01 6.322196254420457961e-01
1.975649524625585352e-01 7.074139436409119241e-01
1.986534645969806334e-01 3.749830071565956047e-01
1.997419767314027594e-01 3.199576228709872794e-01
2.008304888658248855e-01 5.637986946986721648e-01
2.019190010002469560e-01 6.159440531556299447e-01
2.030075131346691097e-01 6.859589540306902933e-01
2.040960252690912080e-01 5.010681517381474492e-01
2.051845374035133340e-01 6.678224895005868689e-01
2.062730495379354323e-01 6.626960653202402796e-01
2.073615616723575306e-01 4.779336500349611327e-01
2.084500738067796566e-01 4.356703428999253447e-01
2.095385859412017548e-01 4.398823515781931093e-01
2.106270980756238809e-01 5.422970808356364358e-01
2.117156102100459791e-01 5.113704295350878226e-01
2.128041223444681052e-01 5.315989715104922908e-01
2.138926344788902034e-01 3.065132736518183521e-01
2.149811466133123017e-01 4.409045113854048736e-01
2.160696587477344277e-01 3.489900584363638814e-01
2.171581708821565260e-01 4.887115526909227015e-01
2.182466830165786797e-01 6.843240045446723485e-01
2.193351951510007503e-01 5.895696561486047926e-01
2.204237072854228485e-01 4.858634052855475005e-01
2.215122194198450023e-01 4.422896416709072298e-01
2.226007315542670728e-01 3.951957728402852865e-01
2.236892436886892266e-01 3.795373864300302102e-01
2.247777558231113249e-01 4.892345984585340091e-01
2.258662679575334509e-01 4.863085393241739496e-01
2.269547800919555491e-01 3.655469244963089892e-01
2.280432922263776474e-01 3.633424602615420440e-01
2.291318043607997734e-01 4.197906099412787029e-01
2.302203164952218717e-01 4.092127842691439810e-01
2.313088286296439977e-01 3.853575996231750622e-01
2.323973407640660960e-01 4.587587195569788889e-01
2.334858528984881942e-01 4.822621624815948138e-01
2.345743650329103203e-01 4.636554898267775116e-01
2.356628771673324185e-01 4.612825839063052769e-01
2.367513893017545445e-01 4.829496819777805428e-01
2.378399014361766428e-01 4.296745499599108342e-01
2.389284135705987966e-01 4.134218693664504229e-01
2.400169257050208671e-01 5.091161794352743186e-01
2.411054378394429654e-01 4.483434735843268015e-01
2.421939499738651191e-01 3.250579297936102563e-01
2.432824621082871897e-01 3.702099175225264105e-01
2.443709742427093434e-01 4.330719596399941196e-01
2.454594863771314417e-01 4.788650622966716952e-01
2.465479985115535122e-01 6.144006090562719180e-01
2.476365106459756660e-01 4.912050724040692984e-01
2.487250227803977642e-01 4.144082418310919280e-01
2.498135349148198903e-01 5.518888023619226146e-01
2.509020470492419608e-01 4.117919147358559684e-01
2.519905591836641423e-01 3.819351071423238153e-01
2.530790713180862128e-01 4.853252193588986074e-01
2.541675834525082833e-01 6.068243770974568463e-01
2.552560955869304649e-01 4.982776628325460422e-01
2.563446077213525354e-01 4.802743619794931362e-01
2.574331198557746614e-01 5.465213478191035534e-01
2.585216319901967874e-01 4.796473557813669686e-01
2.596101441246188579e-01 4.525993134361705472e-01
2.606986562590409839e-01 4.637495219760801035e-01
2.617871683934631100e-01 4.460884526180386445e-01
2.628756805278852360e-01 5.355775370142907832e-01
2.639641926623073065e-01 4.875560007362480519e-01
2.650527047967294325e-01 4.441759498196464762e-01
2.661412169311515585e-01 5.158245167736073000e-01
2.672297290655736290e-01 4.893676495534489135e-01
2.683182411999957551e-01 4.432788692825759824e-01
2.694067533344178811e-01 4.775546544406541472e-01
2.704952654688400071e-01 4.857148072119024107e-01
2.715837776032620776e-01 4.635435648311148071e-01
2.726722897376842036e-01 5.605396658890224870e-01
2.737608018721063297e-01 6.201634936945072951e-01
2.748493140065284002e-01 5.755062181776278152e-01
2.759378261409505817e-01 4.041712782103843438e-01
2.770263382753726522e-01 5.166373664730663506e-01
2.781148504097947782e-01 6.145877604757412627e-01
2.792033625442169043e-01 5.748737624323627671e-01
2.802918746786389748e-01 4.377543165055541863e-01
2.813803868130611008e-01 4.055885397963656658e-01
2.824688989474832268e-01 4.684839906100322082e-01
2.835574110819053528e-01 4.751121450696746962e-01
2.846459232163274233e-01 4.430015604257455664e-01
2.857344353507495494e-01 3.078874859406024456e-01
2.868229474851716754e-01 4.601960013369961189e-01
2.879114596195937459e-01 3.580458803354780173e-01
2.889999717540158719e-01 3.451831287503122070e-01
2.900884838884379979e-01 4.011204585107588372e-01
2.911769960228601239e-01 4.131127569894559315e-01
2.922655081572821945e-01 4.487324976135198540e-01
2.933540202917043205e-01 4.301690426583224536e-01
2.944425324261264465e-01 4.740122497522936129e-01
2.955310445605485170e-01 5.546741000342017003e-01
2.966195566949706985e-01 3.606689163946583676e-01
2.977080688293927691e-01 4.007661721640971564e-01
2.987965809638148951e-01 3.877879863234525715e-01
2.998850930982370211e-01 5.101585254747842413e-01
3.009736052326590916e-01 5.127781073232107190e-01
3.020621173670812176e-01 4.368345596625005101e-01
3.031506295015033436e-01 3.424237894372730295e-01
3.042391416359254697e-01 3.502668811945870431e-01
3.053276537703475402e-01 4.085882643158775807e-01
3.064161659047696662e-01 5.243401786037402701e-01
3.075046780391917922e-01 5.194884831147650317e-01
3.085931901736138627e-01 5.415130081907850723e-01
3.096817023080360443e-01 4.783701311822898816e-01
3.107702144424581148e-01 5.197818630420023567e-01
3.118587265768802408e-01 3.743776016263211659e-01
3.129472387113023668e-01 2.802404194231300494e-01
3.140357508457244373e-01 4.981963001031424199e-01
3.151242629801465633e-01 5.353347245318502701e-01
3.162127751145686894e-01 4.024919031548517268e-01
3.173012872489908154e-01 3.402303082933588740e-01
3.183897993834128859e-01 3.787966474360118241e-01
3.194783115178350119e-01 4.447133084458503305e-01
3.205668236522571379e-01 2.839788566553718141e-01
3.216553357866792084e-01 3.310744985245133165e-01
3.227438479211013345e-01 3.770105510237637958e-01
3.238323600555234605e-01 2.995203707618649958e-01
3.249208721899455865e-01 2.937369746423339478e-01
3.260093843243676570e-01 3.974522432956586471e-01
3.270978964587897830e-01 3.356679392659440708e-01
3.281864085932119091e-01 3.984765923283379863e-01
3.292749207276339796e-01 3.634423747982609143e-01
3.303634328620561611e-01 4.883758699830931249e-01
3.314519449964782316e-01 3.734230487844207858e-01
3.325404571309003021e-01 4.507366684389122469e-01
3.336289692653224837e-01 4.344944297628003937e-01
3.347174813997445542e-01 3.009690943348548586e-01
3.358059935341666802e-01 4.672624541306849011e-01
3.368945056685888062e-01 5.059275761083288359e-01
3.379830178030109322e-01 4.682782907691525054e-01
3.390715299374330027e-01 5.780965639630881725e-01
3.401600420718551288e-01 3.826143113316948785e-01
3.412485542062772548e-01 3.727600686796073148e-01
3.423370663406993253e-01 2.811675737330538993e-01
3.434255784751214513e-01 2.744427315131989786e-01
3.445140906095435773e-01 3.248082141446921867e-01
3.456026027439656478e-01 3.654754037635346009e-01
3.466911148783877739e-01 3.954733028389583183e-01
3.477796270128098999e-01 4.034566149998948248e-01
3.488681391472320259e-01 3.407990667806597429e-01
3.499566512816540964e-01 3.363863160455853318e-01
3.510451634160762779e-01 3.174326058583734067e-01
3.521336755504983484e-01 2.539938718137442208e-01
3.532221876849204190e-01 2.769166973596259851e-01
3.543106998193426005e-01 2.117174100422705152e-01
3.553992119537646710e-01 3.363219813910909295e-01
3.564877240881867970e-01 4.509900804577089417e-01
3.575762362226089230e-01 3.559845726119714726e-01
3.586647483570310491e-01 2.719951116334122787e-01
3.597532604914531196e-01 1.899312633991456778e-01
3.608417726258752456e-01 3.253247911064853781e-01
3.619302847602973716e-01 4.222737737274364633e-01
3.630187968947194421e-01 4.227331964731924074e-01
3.641073090291415681e-01 5.231812030781792799e-01
3.651958211635636942e-01 4.479417654163651008e-01
3.662843332979857647e-01 3.330147207315157232e-01
3.673728454324078907e-01 2.766964389856596540e-01
3.684613575668300167e-01 3.408971736454144974e-01
3.695498697012521427e-01 2.676522206215707911e-01
3.706383818356742132e-01 2.496398947659237422e-01
3.717268939700963948e-01 4.415181824200491434e-01
3.728154061045184653e-01 2.999677549497423712e-01
3.739039182389405358e-01 3.913360584395508823e-01
3.749924303733627173e-01 5.160055671987393566e-01
3.760809425077847878e-01 4.463778806895248863e-01
3.771694546422069139e-01 3.031547375344061379e-01
3.782579667766290399e-01 3.838083937505949450e-01
3.793464789110511104e-01 2.985582733016514112e-01
3.804349910454732364e-01 4.484330407900909421e-01
3.815235031798953624e-01 5.073818768769982057e-01
3.826120153143174885e-01 4.541371606493527224e-01
3.837005274487395590e-01 4.865798395904832319e-01
3.847890395831616850e-01 4.627819334135754303e-01
3.858775517175838110e-01 4.822698861538743387e-01
3.869660638520058815e-01 3.939800421564996213e-01
3.880545759864280075e-01 4.174206773681579108e-01
3.891430881208501336e-01 4.636210866394510077e-01
3.902316002552722596e-01 5.008112388655732161e-01
3.913201123896943301e-01 3.769166038382678607e-01
3.924086245241164561e-01 3.802661295472997693e-01
3.934971366585385821e-01 2.996459059462779351e-01
3.945856487929606526e-01 2.755747738051432805e-01
3.956741609273828342e-01 3.465951895385082082e-01
3.967626730618049047e-01 3.491075772810354749e-01
3.978511851962270307e-01 4.453785025508913975e-01
3.989396973306491567e-01 4.192608850034176271e-01
4.000282094650711717e-01 4.809242062232481629e-01
4.011167215994933533e-01 5.499282929167659262e-01
4.022052337339154793e-01 4.748016107505801386e-01
4.032937458683375498e-01 3.784491031807739603e-01
4.043822580027597313e-01 4.537494854120307508e-01
4.054707701371818018e-01 3.464760598210574472e-01
4.065592822716039278e-01 3.019871638603675024e-01
4.076477944060259984e-01 3.208233566555556138e-01
4.087363065404481244e-01 3.225964094229709644e-01
4.098248186748703059e-01 4.236388257458969520e-01
4.109133308092923764e-01 4.113181434522772406e-01
4.120018429437144469e-01 3.983072712092354806e-01
4.130903550781365730e-01 3.693852840792590797e-01
4.141788672125586435e-01 3.266351409512253667e-01
4.152673793469808250e-01 4.369450741616685008e-01
4.163558914814029510e-01 6.522469828312438267e-01
4.174444036158250215e-01 6.677355796113015884e-01
4.185329157502470920e-01 3.979629887319209303e-01
4.196214278846692181e-01 4.681146745596045378e-01
4.207099400190913996e-01 3.889013201659192731e-01
4.217984521535134701e-01 2.965531558884055841e-01
4.228869642879355961e-01 4.342888897259076231e-01
4.239754764223576666e-01 4.772494436627976455e-01
4.250639885567798482e-01 3.791904474752030296e-01
4.261525006912019187e-01 3.637771371941536103e-01
4.272410128256240447e-01 5.489860552401282234e-01
4.283295249600461152e-01 6.112529173856611209e-01
4.294180370944682412e-01 4.125077892794966061e-01
4.305065492288904228e-01 4.739998003362426715e-01
4.315950613633124933e-01 4.887975894452214476e-01
4.326835734977345638e-01 4.254538277776092059e-01
4.337720856321566898e-01 3.889581105628572288e-01
