# q (1/Angstrom), Intensity (arb)
3.063590265382597211e-02 1.398294597951113474e+02
3.167440782643154290e-02 1.382932816510150644e+02
3.271291299903710675e-02 1.373600032875444299e+02
3.375141817164267755e-02 1.357205887439808123e+02
3.478992334424824834e-02 1.343873613401356124e+02
3.582842851685381913e-02 1.327607392620698477e+02
3.686693368945938992e-02 1.319615191185016556e+02
3.790543886206496071e-02 1.298356825295315957e+02
3.894394403467052457e-02 1.283007437414005096e+02
3.998244920727608842e-02 1.268449430811975986e+02
4.102095437988165921e-02 1.261126654912390563e+02
4.205945955248723001e-02 1.245351714997615460e+02
4.309796472509280080e-02 1.223306397106643288e+02
4.413646989769837159e-02 1.203358714349730860e+02
4.517497507030393544e-02 1.188390894121798738e+02
4.621348024290949930e-02 1.172545831022275422e+02
4.725198541551507009e-02 1.154761939695161033e+02
4.829049058812064088e-02 1.136922764989194690e+02
4.932899576072621167e-02 1.118007121793107217e+02
5.036750093333178246e-02 1.102381678622168693e+02
5.140600610593734632e-02 1.085737806306945004e+02
5.244451127854291711e-02 1.064643559974541915e+02
5.348301645114848096e-02 1.045323261123254781e+02
5.452152162375405869e-02 1.030738686685729419e+02
5.556002679635962255e-02 1.012701729506259625e+02
5.659853196896519334e-02 9.906694180970123398e+01
5.763703714157075719e-02 9.727138471380212081e+01
5.867554231417632105e-02 9.515312999230036439e+01
5.971404748678189878e-02 9.323049960945493808e+01
6.075255265938746263e-02 9.124179005729068592e+01
6.179105783199304036e-02 8.940790856978811973e+01
6.282956300459860421e-02 8.721463998308738041e+01
6.386806817720418195e-02 8.543688646710570822e+01
6.490657334980974580e-02 8.401096438942762745e+01
6.594507852241530965e-02 8.218643601954110522e+01
6.698358369502087351e-02 8.074395844033206515e+01
6.802208886762643736e-02 7.895223038134686533e+01
6.906059404023201509e-02 7.703075816859718827e+01
7.009909921283757894e-02 7.499202964574141106e+01
7.113760438544315667e-02 7.313864947316753273e+01
7.217610955804872053e-02 7.116969738732498740e+01
7.321461473065429826e-02 6.961554303097631191e+01
7.425311990325986211e-02 6.798872749314418229e+01
7.529162507586543984e-02 6.605526773638565885e+01
7.633013024847100370e-02 6.455468227145014737e+01
7.736863542107656755e-02 6.274227512523221151e+01
7.840714059368214528e-02 6.133217289687161156e+01
7.944564576628770913e-02 5.970557194733866879e+01
8.048415093889327299e-02 5.789982353685453376e+01
8.152265611149883684e-02 5.590476559718528193e+01
8.256116128410441457e-02 5.455730750499009218e+01
8.359966645670997842e-02 5.333971475429584075e+01
8.463817162931554228e-02 5.214975468474143838e+01
8.567667680192112001e-02 5.038744110065735526e+01
8.671518197452668386e-02 4.905515280651846410e+01
8.775368714713226159e-02 4.796841129715197383e+01
8.879219231973782545e-02 4.661029112843564803e+01
8.983069749234340318e-02 4.542572161463374414e+01
9.086920266494896703e-02 4.434808958819444769e+01
9.190770783755453088e-02 4.307269862234863922e+01
9.294621301016009474e-02 4.165594697542059777e+01
9.398471818276565859e-02 4.041272388566196128e+01
9.502322335537123632e-02 3.928273281001573025e+01
9.606172852797680017e-02 3.789522162655095627e+01
9.710023370058237790e-02 3.637693909848684370e+01
9.813873887318794176e-02 3.511490681479621401e+01
9.917724404579351949e-02 3.389981590651852628e+01
1.002157492183990695e-01 3.235304111455499765e+01
1.012542543910046472e-01 3.094198279527543960e+01
1.022927595636101972e-01 2.978166813176776273e+01
1.033312647362157749e-01 2.843733782127941723e+01
1.043697699088213526e-01 2.689753064035256358e+01
1.054082750814269165e-01 2.605179952882397387e+01
1.064467802540324803e-01 2.532326248453761508e+01
1.074852854266380442e-01 2.416948093947789999e+01
1.085237905992436219e-01 2.306299627875761260e+01
1.095622957718491719e-01 2.191108422528873234e+01
1.106008009444547496e-01 2.085089388862928672e+01
1.116393061170603274e-01 2.003320094355279224e+01
1.126778112896659051e-01 1.900531768755922357e+01
1.137163164622714551e-01 1.799449772155087146e+01
1.147548216348770328e-01 1.737076004948793084e+01
1.157933268074826105e-01 1.641483963252243328e+01
1.168318319800881605e-01 1.578660794196948913e+01
1.178703371526937382e-01 1.505602746601772068e+01
1.189088423252993021e-01 1.442754224977413102e+01
1.199473474979048798e-01 1.370721889992654496e+01
1.209858526705104298e-01 1.312668009024968896e+01
1.220243578431160075e-01 1.233928725457225895e+01
1.230628630157215853e-01 1.170722098039492209e+01
1.241013681883271630e-01 1.106655533603700903e+01
1.251398733609327130e-01 1.054555199464871862e+01
1.261783785335382768e-01 1.008746028452512178e+01
1.272168837061438684e-01 9.504570932370505432e+00
1.282553888787494045e-01 9.068673581148981810e+00
1.292938940513549961e-01 8.506592891322508621e+00
1.303323992239605600e-01 8.184126428293428290e+00
1.313709043965661516e-01 7.920054787579442035e+00
1.324094095691716877e-01 7.515570037550464377e+00
1.334479147417772793e-01 7.046605248471980332e+00
1.344864199143828432e-01 6.468866662517836374e+00
1.355249250869884070e-01 6.130533605046807111e+00
1.365634302595939709e-01 5.727668939667552195e+00
1.376019354321995347e-01 5.416776085630040427e+00
1.386404406048051263e-01 5.248925392773003296e+00
1.396789457774106624e-01 5.061890858019726380e+00
1.407174509500162540e-01 4.728325896818574847e+00
1.417559561226218179e-01 4.303210049412292904e+00
1.427944612952273817e-01 4.136048522662044036e+00
1.438329664678329456e-01 3.824310342665416584e+00
1.448714716404385372e-01 3.645393327169092146e+00
1.459099768130441011e-01 3.428275186054587920e+00
1.469484819856496649e-01 3.162976003527578683e+00
1.479869871582552288e-01 3.018363028609591936e+00
1.490254923308607926e-01 2.763451776339206134e+00
1.500639975034663842e-01 2.688266774854962904e+00
1.511025026760719481e-01 2.601084141377107528e+00
1.521410078486775119e-01 2.481588823718272607e+00
1.531795130212830758e-01 2.326431545390729383e+00
1.542180181938886396e-01 2.194654510084095733e+00
1.552565233664942035e-01 2.137425632847381962e+00
1.562950285390997951e-01 1.978507766214463004e+00
1.573335337117053589e-01 1.834819133340783281e+00
1.583720388843109228e-01 1.808882723124721537e+00
1.594105440569164867e-01 1.745555222414541419e+00
1.604490492295220783e-01 1.625142293878880650e+00
1.614875544021276144e-01 1.535385775955244725e+00
1.625260595747332060e-01 1.401528747365862415e+00
1.635645647473387698e-01 1.340560365799198905e+00
1.646030699199443337e-01 1.284027371365031200e+00
1.656415750925498975e-01 1.251937501065537361e+00
1.666800802651554614e-01 1.228536907297794301e+00
1.677185854377610530e-01 1.198878815707828949e+00
1.687570906103665891e-01 1.110738414905540594e+00
1.697955957829721807e-01 1.137228962278150846e+00
1.708341009555777446e-01 1.197222905010459471e+00
1.718726061281833362e-01 1.254562808822264230e+00
1.729111113007888723e-01 1.190145194465763723e+00
1.739496164733944639e-01 1.066818943237805684e+00
1.749881216460000277e-01 9.472270540630560731e-01
1.760266268186055916e-01 1.119694392237381209e+00
1.770651319912111554e-01 1.088613717464479436e+00
1.781036371638167193e-01 9.823885121440945056e-01
1.791421423364223109e-01 1.001582646186246706e+00
1.801806475090278470e-01 1.007977484814080782e+00
1.812191526816334386e-01 1.056691873351134348e+00
1.822576578542390024e-01 9.430631285038373335e-01
1.832961630268445663e-01 9.065420073575225501e-01
1.843346681994501302e-01 9.430242418641654467e-01
1.853731733720557218e-01 9.065377603312292365e-01
1.864116785446612856e-01 9.183867320359802022e-01
1.874501837172668495e-01 1.008619833652289799e+00
1.884886888898724133e-01 9.924716564753488512e-01
1.895271940624779772e-01 1.053708077835256773e+00
1.905656992350835688e-01 9.552400294844503037e-01
1.916042044076891049e-01 9.418315909137753295e-01
1.926427095802946965e-01 9.645454663207182477e-01
1.936812147529002603e-01 8.769297215698763637e-01
1.947197199255058242e-01 9.068186248707199582e-01
1.957582250981113881e-01 9.691237104650838319e-01
1.967967302707169797e-01 9.431964021130347930e-01
1.978352354433225435e-01 9.619090475296800946e-01
1.988737406159281074e-01 1.088673210432801852e+00
1.999122457885336712e-01 1.050477274860025290e+00
2.009507509611392351e-01 1.002699341580882475e+00
2.019892561337448267e-01 9.576717215095236213e-01
2.030277613063503905e-01 9.981761813020071372e-01
2.040662664789559266e-01 1.048475189067492153e+00
2.051047716515614905e-01 9.778963456086593453e-01
2.061432768241670821e-01 9.080015663878349130e-01
2.071817819967726459e-01 9.852590530910916300e-01
2.082202871693782376e-01 9.775407801412008268e-01
2.092587923419838014e-01 9.321026470535365149e-01
2.102972975145893653e-01 1.016717790112394937e+00
2.113358026871949014e-01 9.951775269438130067e-01
2.123743078598004930e-01 9.538273386031477230e-01
2.134128130324060568e-01 8.778303389580983662e-01
2.144513182050116207e-01 9.094675168693804324e-01
2.154898233776172123e-01 9.454107535923483852e-01
2.165283285502227761e-01 9.601003234227931671e-01
2.175668337228283677e-01 9.908815465621572116e-01
2.186053388954338761e-01 9.576539363667038174e-01
2.196438440680394677e-01 9.496569608450791122e-01
2.206823492406450316e-01 9.433610066654409820e-01
2.217208544132506232e-01 8.683391264899853468e-01
2.227593595858561870e-01 8.177051783935667117e-01
2.237978647584617509e-01 8.783553373206167691e-01
2.248363699310673425e-01 8.645360749853736593e-01
2.258748751036728786e-01 9.097553191988403398e-01
2.269133802762784424e-01 8.875763889609480373e-01
2.279518854488840063e-01 8.743167761551688955e-01
2.289903906214895979e-01 9.029802707156946440e-01
2.300288957940951617e-01 9.311636359256745266e-01
2.310674009667007534e-01 9.128018944589015859e-01
2.321059061393063172e-01 8.588746283421784256e-01
2.331444113119118533e-01 7.029554158357314009e-01
2.341829164845174172e-01 7.587541061852860480e-01
2.352214216571230088e-01 7.274903056111696742e-01
2.362599268297285726e-01 8.164676202610934297e-01
2.372984320023341365e-01 8.644376303438363607e-01
2.383369371749397281e-01 6.920138966026314620e-01
2.393754423475452919e-01 6.340461749405150726e-01
2.404139475201508835e-01 6.710080488408003418e-01
2.414524526927563919e-01 6.906694391045569148e-01
2.424909578653619835e-01 7.147144204515214483e-01
2.435294630379675473e-01 7.067279762754239414e-01
2.445679682105731390e-01 6.446824522749956543e-01
2.456064733831787028e-01 6.695944060289669153e-01
2.466449785557842667e-01 6.586909820605555410e-01
2.476834837283898583e-01 6.737563325420481419e-01
2.487219889009953944e-01 7.092405896725537673e-01
2.497604940736009582e-01 6.418666373670269820e-01
2.507989992462065221e-01 6.129980504936689556e-01
2.518375044188120859e-01 6.291262600617493206e-01
2.528760095914177053e-01 6.952061440408385806e-01
2.539145147640232691e-01 6.676672782932477901e-01
2.549530199366288330e-01 6.040049111673866378e-01
2.559915251092343413e-01 5.120885933315193483e-01
2.570300302818399607e-01 4.929869990892221665e-01
2.580685354544455246e-01 5.062496029488521287e-01
2.591070406270510884e-01 5.383654144834828514e-01
2.601455457996566523e-01 5.511192437566911906e-01
2.611840509722622161e-01 6.009168329915510753e-01
2.622225561448678355e-01 5.619751768439478212e-01
2.632610613174733438e-01 4.942423615649573776e-01
2.642995664900789077e-01 4.353951911718176859e-01
2.653380716626844715e-01 4.243086408803513621e-01
2.663765768352900909e-01 4.993090990722599543e-01
2.674150820078956547e-01 4.275875652580083397e-01
2.684535871805012186e-01 4.022894159693954919e-01
2.694920923531067825e-01 3.826471141850902313e-01
2.705305975257123463e-01 4.169037055291049398e-01
2.715691026983179102e-01 4.730444199442942477e-01
2.726076078709234740e-01 3.867938585433812193e-01
2.736461130435290379e-01 3.247032911617608875e-01
2.746846182161346017e-01 2.546698979502259874e-01
2.757231233887402211e-01 2.587601105471648566e-01
2.767616285613457849e-01 3.698330111955598909e-01
2.778001337339512933e-01 3.652833257048868632e-01
2.788386389065568571e-01 4.270921264170368659e-01
2.798771440791624765e-01 3.778206705314879343e-01
2.809156492517680404e-01 3.886199648768382531e-01
2.819541544243736042e-01 3.989913700057101664e-01
2.829926595969791681e-01 3.643983318656331960e-01
2.840311647695847319e-01 3.276839077309965376e-01
2.850696699421902958e-01 3.262725176693201945e-01
2.861081751147958596e-01 3.713421996553591953e-01
2.871466802874014235e-01 3.348058457816414091e-01
2.881851854600069873e-01 2.578391822389782817e-01
2.892236906326126067e-01 2.258944722957778595e-01
2.902621958052181705e-01 3.445058199837767177e-01
2.913007009778237344e-01 3.266316927581414120e-01
2.923392061504292427e-01 3.166334116845170854e-01
2.933777113230348621e-01 2.892996393592639492e-01
2.944162164956404260e-01 3.225342248168807657e-01
2.954547216682459898e-01 2.868630856686458230e-01
2.964932268408515537e-01 2.195593060143217201e-01
2.975317320134571175e-01 3.118314977358664919e-01
2.985702371860627369e-01 3.406855880171733020e-01
2.996087423586683007e-01 3.163487211990272385e-01
3.006472475312738091e-01 3.331335017598213710e-01
3.016857527038794284e-01 3.259652098179479651e-01
3.027242578764849923e-01 3.098395333025258935e-01
3.037627630490905561e-01 3.028702083441068282e-01
3.048012682216961200e-01 3.270998148614978618e-01
3.058397733943016839e-01 2.557770516919823933e-01
3.068782785669073032e-01 2.631764343649081184e-01
3.079167837395128116e-01 2.199003054726063056e-01
3.089552889121183754e-01 1.967644261370402603e-01
3.099937940847239393e-01 2.531391274907974775e-01
3.110322992573295586e-01 3.286155696815562521e-01
3.120708044299351225e-01 2.967207364558781535e-01
3.131093096025406863e-01 2.990034308235998139e-01
3.141478147751462502e-01 2.025158921904228748e-01
3.151863199477518140e-01 2.204808191513443205e-01
3.162248251203573779e-01 2.844016181023079071e-01
3.172633302929629417e-01 2.828433827969121239e-01
3.183018354655685056e-01 2.745271840984244704e-01
3.193403406381740695e-01 2.593055996911601824e-01
3.203788458107796888e-01 2.398363532889788985e-01
3.214173509833852527e-01 2.170941577265317335e-01
3.224558561559907610e-01 2.439734870445029458e-01
3.234943613285963249e-01 3.011594865282027911e-01
3.245328665012019442e-01 3.284812511395571732e-01
3.255713716738075081e-01 3.478473624108637807e-01
3.266098768464130719e-01 3.025039315099284920e-01
3.276483820190186358e-01 3.240940631495838886e-01
3.286868871916241996e-01 2.360056372750420906e-01
3.297253923642297635e-01 2.367683206865649481e-01
3.307638975368353274e-01 2.549466160015327887e-01
3.318024027094408912e-01 2.785930491796086983e-01
3.328409078820464551e-01 2.671823261224908208e-01
3.338794130546520744e-01 2.974119591995219025e-01
3.349179182272576383e-01 3.334515153397887843e-01
3.359564233998632021e-01 3.096782676081168972e-01
3.369949285724687105e-01 2.506168210244545946e-01
3.380334337450743298e-01 2.908029807085910079e-01
3.390719389176798937e-01 2.751670037166995542e-01
3.401104440902854575e-01 2.768834688332617588e-01
3.411489492628910214e-01 2.476240956584945252e-01
3.421874544354965852e-01 2.798096300193861907e-01
3.432259596081022046e-01 3.185683439364268565e-01
3.442644647807077130e-01 3.048757497873353373e-01
3.453029699533132768e-01 2.152924664325581716e-01
3.463414751259188407e-01 2.337841843001626785e-01
3.473799802985244600e-01 2.792228885616196976e-01
3.484184854711300239e-01 2.280934198124953127e-01
3.494569906437355877e-01 2.292991589443893474e-01
3.504954958163411516e-01 2.614451286947883091e-01
3.515340009889467154e-01 2.720884701334504996e-01
3.525725061615522793e-01 1.759164148979586173e-01
3.536110113341578431e-01 2.025098448140205676e-01
3.546495165067634070e-01 2.457401978021671596e-01
3.556880216793689709e-01 2.760457488412022542e-01
3.567265268519745902e-01 2.886350211394308474e-01
3.577650320245801541e-01 2.614978113702157714e-01
3.588035371971856624e-01 1.884825395423987970e-01
3.598420423697912263e-01 1.830959229506952113e-01
3.608805475423968456e-01 2.354121814434968485e-01
3.619190527150024095e-01 2.568214610959564936e-01
3.629575578876079733e-01 2.448055298739681973e-01
3.639960630602135372e-01 2.190519871761722470e-01
3.650345682328191010e-01 2.220110422998047284e-01
3.660730734054246649e-01 1.965025173389207680e-01
3.671115785780302287e-01 1.821397077946151910e-01
3.681500837506357926e-01 1.560840725076069191e-01
3.691885889232413565e-01 1.566535396745187825e-01
3.702270940958469758e-01 1.779103680580007563e-01
3.712655992684525397e-01 1.993862081931538910e-01
3.723041044410581035e-01 2.372353544210135112e-01
3.733426096136636674e-01 2.752982422337311164e-01
3.743811147862692312e-01 2.255521087547620596e-01
3.754196199588747951e-01 1.655730641888197852e-01
3.764581251314803589e-01 1.672094910278971724e-01
3.774966303040859228e-01 1.405830810479962167e-01
3.785351354766914866e-01 1.787914257916298766e-01
3.795736406492971060e-01 2.408086074774686836e-01
3.806121458219026699e-01 2.931504852598507682e-01
3.816506509945081782e-01 2.517311830581121512e-01
3.826891561671137421e-01 2.310118024729312936e-01
3.837276613397193614e-01 2.591305045053218237e-01
3.847661665123249253e-01 2.345115882531594309e-01
3.858046716849304891e-01 1.696088993191757766e-01
3.868431768575360530e-01 1.667971793705653738e-01
3.878816820301416168e-01 2.012820591186041952e-01
3.889201872027471807e-01 1.943046787795097430e-01
3.899586923753527445e-01 1.636599020441664720e-01
3.909971975479583084e-01 1.464298027748256459e-01
3.920357027205638722e-01 1.443617392709626301e-01
3.930742078931694916e-01 2.113884904555298760e-01
3.941127130657750555e-01 2.162772571824902457e-01
3.951512182383806193e-01 1.483505864901033533e-01
3.961897234109861277e-01 1.226779992112909667e-01
3.972282285835917470e-01 1.361164261781802054e-01
3.982667337561973109e-01 1.356068779808019542e-01
3.993052389288028747e-01 1.574833331932907754e-01
4.003437441014084941e-01 1.819526717323363130e-01
4.013822492740140579e-01 1.708434624507795263e-01
4.024207544466196218e-01 1.715802279697200561e-01
4.034592596192252412e-01 2.171609382331141092e-01
4.044977647918308050e-01 2.096531137641441944e-01
4.055362699644363689e-01 1.315730834617276912e-01
4.065747751370419327e-01 1.845281585001430358e-01
4.076132803096474411e-01 2.576764377645517357e-01
4.086517854822530049e-01 2.454526595132584532e-01
4.096902906548585688e-01 2.149655894670416956e-01
4.107287958274641326e-01 2.619831452186005549e-01
4.117673010000697520e-01 2.325368319236353898e-01
4.128058061726753158e-01 2.226079510069425282e-01
4.138443113452808797e-01 2.207893498890989292e-01
4.148828165178864436e-01 1.907913379562664602e-01
4.159213216904920074e-01 1.751855971780003074e-01
4.169598268630976268e-01 1.990901763736765417e-01
4.179983320357031906e-01 1.996357132357609032e-01
4.190368372083087545e-01 2.260939765144378555e-01
4.200753423809143183e-01 2.052018582737922259e-01
4.211138475535198822e-01 1.752009277246671104e-01
4.221523527261253905e-01 1.672748557531456015e-01
4.231908578987309544e-01 1.775439661662652213e-01
4.242293630713365182e-01 1.794229118133934264e-01
4.252678682439421376e-01 1.780870151056213047e-01
4.263063734165477014e-01 1.884370576321643398e-01
4.273448785891532653e-01 1.846961074675128600e-01
4.283833837617588292e-01 1.465062848655307448e-01
4.294218889343643930e-01 1.670545275010617559e-01
4.304603941069700124e-01 1.421393343503929430e-01
4.314988992795755762e-01 1.727124260717545212e-01
4.325374044521811401e-01 2.080777821710633191e-01
4.335759096247867039e-01 1.712680879980084114e-01
4.346144147973922678e-01 1.793237288574651700e-01
4.356529199699978872e-01 1.835047931621858197e-01
4.366914251426033400e-01 2.405944693332777717e-01
4.377299303152089038e-01 2.249915699710172134e-01
4.387684354878145232e-01 1.649156962050000175e-01
4.398069406604200871e-01 2.014897126139238992e-01
4.408454458330256509e-01 1.866142887681334628e-01
4.418839510056312148e-01 1.841235389880004902e-01
4.429224561782367786e-01 1.744932245158885564e-01
4.439609613508423980e-01 1.505534404198236587e-01
