# q (1/Angstrom), Intensity (arb)
3.063590265382597211e-02 1.103958379341238754e+02
3.167440782643154290e-02 1.099826705212472007e+02
3.271291299903710675e-02 1.098519481528872035e+02
3.375141817164267755e-02 1.090906324140736672e+02
3.478992334424824834e-02 1.073389580788761748e+02
3.582842851685381913e-02 1.066159501824906499e+02
3.686693368945938992e-02 1.053164510979071906e+02
3.790543886206496071e-02 1.042524939202249925e+02
3.894394403467052457e-02 1.033730608894248348e+02
3.998244920727608842e-02 1.024974734977259061e+02
4.102095437988165921e-02 1.010401060669428261e+02
4.205945955248723001e-02 9.954535708704726460e+01
4.309796472509280080e-02 9.771049293306685968e+01
4.413646989769837159e-02 9.664291648874836937e+01
4.517497507030393544e-02 9.585111266978717026e+01
4.621348024290949930e-02 9.477982453375062732e+01
4.725198541551507009e-02 9.411755901426082005e+01
4.829049058812064088e-02 9.338635641148577804e+01
4.932899576072621167e-02 9.232878480924730979e+01
5.036750093333178246e-02 9.091395563296347859e+01
5.140600610593734632e-02 8.949550694248826233e+01
5.244451127854291711e-02 8.861675012393195061e+01
5.348301645114848096e-02 8.770078827225708551e+01
5.452152162375405869e-02 8.611227225226031123e+01
5.556002679635962255e-02 8.513807669685787971e+01
5.659853196896519334e-02 8.371534993205403907e+01
5.763703714157075719e-02 8.197968558344041412e+01
5.867554231417632105e-02 8.096131118202265498e+01
5.971404748678189878e-02 7.977119332654547179e+01
6.075255265938746263e-02 7.776515912191058533e+01
6.179105783199304036e-02 7.656361615629970174e+01
6.282956300459860421e-02 7.513048146529864368e+01
6.386806817720418195e-02 7.382196816560836794e+01
6.490657334980974580e-02 7.250414515599722165e+01
6.594507852241530965e-02 7.084526221138474966e+01
6.698358369502087351e-02 6.971451810532300897e+01
6.802208886762643736e-02 6.889348051853497168e+01
6.906059404023201509e-02 6.810893879858315358e+01
7.009909921283757894e-02 6.657951599935643117e+01
7.113760438544315667e-02 6.528256546834998630e+01
7.217610955804872053e-02 6.375429946814515603e+01
7.321461473065429826e-02 6.261238562756477677e+01
7.425311990325986211e-02 6.128571764656047094e+01
7.529162507586543984e-02 5.993823848986544078e+01
7.633013024847100370e-02 5.839043358166777153e+01
7.736863542107656755e-02 5.733182975750408161e+01
7.840714059368214528e-02 5.628999654926440854e+01
7.944564576628770913e-02 5.541645896116482106e+01
8.048415093889327299e-02 5.446170022923624288e+01
8.152265611149883684e-02 5.323323446382855906e+01
8.256116128410441457e-02 5.215890879324102514e+01
8.359966645670997842e-02 5.091128576232321734e+01
8.463817162931554228e-02 4.944015025574397271e+01
8.567667680192112001e-02 4.853682119455203292e+01
8.671518197452668386e-02 4.759837409710844724e+01
8.775368714713226159e-02 4.668660727427646862e+01
8.879219231973782545e-02 4.591829471414764186e+01
8.983069749234340318e-02 4.556370033386595253e+01
9.086920266494896703e-02 4.515927771885746722e+01
9.190770783755453088e-02 4.511729857939541688e+01
9.294621301016009474e-02 4.572484593487407523e+01
9.398471818276565859e-02 4.612483973139589466e+01
9.502322335537123632e-02 4.647075728933491234e+01
9.606172852797680017e-02 4.663096469422842461e+01
9.710023370058237790e-02 4.701578696848815753e+01
9.813873887318794176e-02 4.642587854729020336e+01
9.917724404579351949e-02 4.594548075875677284e+01
1.002157492183990695e-01 4.513456062745639485e+01
1.012542543910046472e-01 4.373894039950829438e+01
1.022927595636101972e-01 4.229791594741409710e+01
1.033312647362157749e-01 4.103935612551003942e+01
1.043697699088213526e-01 3.971579352334004653e+01
1.054082750814269165e-01 3.787689156300110227e+01
1.064467802540324803e-01 3.602349996979337021e+01
1.074852854266380442e-01 3.401564833071924454e+01
1.085237905992436219e-01 3.205107836410269329e+01
1.095622957718491719e-01 3.061754766812078188e+01
1.106008009444547496e-01 2.894831710158431193e+01
1.116393061170603274e-01 2.703505428201905048e+01
1.126778112896659051e-01 2.540375346180727334e+01
1.137163164622714551e-01 2.400674726668653491e+01
1.147548216348770328e-01 2.271087168027856507e+01
1.157933268074826105e-01 2.157738469158293171e+01
1.168318319800881605e-01 2.044986847608681302e+01
1.178703371526937382e-01 1.926522296409762447e+01
1.189088423252993021e-01 1.841779391031541024e+01
1.199473474979048798e-01 1.751105407590608465e+01
1.209858526705104298e-01 1.636832715872799326e+01
1.220243578431160075e-01 1.553387858643688801e+01
1.230628630157215853e-01 1.480668514737091357e+01
1.241013681883271630e-01 1.403931968066234148e+01
1.251398733609327130e-01 1.321307626931800172e+01
1.261783785335382768e-01 1.248352109604842397e+01
1.272168837061438684e-01 1.201288062716266580e+01
1.282553888787494045e-01 1.131316720001807496e+01
1.292938940513549961e-01 1.070655675344278279e+01
1.303323992239605600e-01 1.028973590662566195e+01
1.313709043965661516e-01 9.816080007801964769e+00
1.324094095691716877e-01 9.318541561081481461e+00
1.334479147417772793e-01 8.660068939485025652e+00
1.344864199143828432e-01 8.005004190428767430e+00
1.355249250869884070e-01 7.627654150269311373e+00
1.365634302595939709e-01 7.257896839454254234e+00
1.376019354321995347e-01 6.928420093338832686e+00
1.386404406048051263e-01 6.518086659384504600e+00
1.396789457774106624e-01 6.117941561044013099e+00
1.407174509500162540e-01 5.784807406903521354e+00
1.417559561226218179e-01 5.498613705454083345e+00
1.427944612952273817e-01 5.169904389763615882e+00
1.438329664678329456e-01 4.765124783719819845e+00
1.448714716404385372e-01 4.428836108425219464e+00
1.459099768130441011e-01 4.267845813893174522e+00
1.469484819856496649e-01 4.044103721384967542e+00
1.479869871582552288e-01 3.829903462485315657e+00
1.490254923308607926e-01 3.748670870371533681e+00
1.500639975034663842e-01 3.507949323935200425e+00
1.511025026760719481e-01 3.203219883716784011e+00
1.521410078486775119e-01 2.904320683900206035e+00
1.531795130212830758e-01 2.662760540288285682e+00
1.542180181938886396e-01 2.586705085363409040e+00
1.552565233664942035e-01 2.489425438576020611e+00
1.562950285390997951e-01 2.274710704929933769e+00
1.573335337117053589e-01 2.194628841709103995e+00
1.583720388843109228e-01 2.016774093840989934e+00
1.594105440569164867e-01 1.911909510271517121e+00
1.604490492295220783e-01 1.766918718787568565e+00
1.614875544021276144e-01 1.609847398590073198e+00
1.625260595747332060e-01 1.499143201820636762e+00
1.635645647473387698e-01 1.468444521752054754e+00
1.646030699199443337e-01 1.406277137970739943e+00
1.656415750925498975e-01 1.296038812837551291e+00
1.666800802651554614e-01 1.191282206043535297e+00
1.677185854377610530e-01 1.137439008088701797e+00
1.687570906103665891e-01 1.163567454725583872e+00
1.697955957829721807e-01 1.146865529775670467e+00
1.708341009555777446e-01 1.131407180399211398e+00
1.718726061281833362e-01 1.014645954852820608e+00
1.729111113007888723e-01 9.206501299216824918e-01
1.739496164733944639e-01 9.348276467499623266e-01
1.749881216460000277e-01 8.408918031869454524e-01
1.760266268186055916e-01 8.234971482546562527e-01
1.770651319912111554e-01 8.587524951986047483e-01
1.781036371638167193e-01 8.354503559247064004e-01
1.791421423364223109e-01 7.632282740958977740e-01
1.801806475090278470e-01 7.826405809395247104e-01
1.812191526816334386e-01 7.084489766632060537e-01
1.822576578542390024e-01 6.725897357663122023e-01
1.832961630268445663e-01 5.664045381669211565e-01
1.843346681994501302e-01 6.679271495528169567e-01
1.853731733720557218e-01 6.683021033441463032e-01
1.864116785446612856e-01 6.912920910897817350e-01
1.874501837172668495e-01 8.201901501641408743e-01
1.884886888898724133e-01 8.711025546192416869e-01
1.895271940624779772e-01 8.852798472993761436e-01
1.905656992350835688e-01 8.618893068856259276e-01
1.916042044076891049e-01 8.353584033289109811e-01
1.926427095802946965e-01 8.397000928893660898e-01
1.936812147529002603e-01 8.294723620230115557e-01
1.947197199255058242e-01 8.795089608442658857e-01
1.957582250981113881e-01 9.258476798050452317e-01
1.967967302707169797e-01 8.713340623113197125e-01
1.978352354433225435e-01 7.856698521293239423e-01
1.988737406159281074e-01 8.544999400404442724e-01
1.999122457885336712e-01 8.808128864941338065e-01
2.009507509611392351e-01 9.684875865660167449e-01
2.019892561337448267e-01 8.718463342769737778e-01
2.030277613063503905e-01 1.024896064145437435e+00
2.040662664789559266e-01 1.077717981318652818e+00
2.051047716515614905e-01 9.555064754323510101e-01
2.061432768241670821e-01 9.708834660785399251e-01
2.071817819967726459e-01 9.781380214653658811e-01
2.082202871693782376e-01 9.535092322293330369e-01
2.092587923419838014e-01 1.043688181359666345e+00
2.102972975145893653e-01 9.966960445012027492e-01
2.113358026871949014e-01 9.420307860790337884e-01
2.123743078598004930e-01 1.006633007955507253e+00
2.134128130324060568e-01 1.011520994247160132e+00
2.144513182050116207e-01 9.390684694118718312e-01
2.154898233776172123e-01 8.900583479707471213e-01
2.165283285502227761e-01 9.364834175118943449e-01
2.175668337228283677e-01 1.028363583171632456e+00
2.186053388954338761e-01 9.611920465337639996e-01
2.196438440680394677e-01 1.062386036935425437e+00
2.206823492406450316e-01 1.097970436496471081e+00
2.217208544132506232e-01 1.051813094453112996e+00
2.227593595858561870e-01 9.920211178949323028e-01
2.237978647584617509e-01 9.919159481487014318e-01
2.248363699310673425e-01 9.962914395721966798e-01
2.258748751036728786e-01 8.984919847058350229e-01
2.269133802762784424e-01 9.000856157797016976e-01
2.279518854488840063e-01 9.158124785556829295e-01
2.289903906214895979e-01 9.932565868946063858e-01
2.300288957940951617e-01 9.396084811963483219e-01
2.310674009667007534e-01 8.322733901360024333e-01
2.321059061393063172e-01 8.556147366293558321e-01
2.331444113119118533e-01 9.207255540775847180e-01
2.341829164845174172e-01 9.361073840728835194e-01
2.352214216571230088e-01 8.944574536254528141e-01
2.362599268297285726e-01 9.415593027966231432e-01
2.372984320023341365e-01 8.534696400454500065e-01
2.383369371749397281e-01 9.136459714918885311e-01
2.393754423475452919e-01 9.053131572071109190e-01
2.404139475201508835e-01 8.527491216036970911e-01
2.414524526927563919e-01 8.570139677005030876e-01
2.424909578653619835e-01 8.005447728441232869e-01
2.435294630379675473e-01 8.429672415130404772e-01
2.445679682105731390e-01 8.439772367764177829e-01
2.456064733831787028e-01 7.669263266075994068e-01
2.466449785557842667e-01 8.198419827250091885e-01
2.476834837283898583e-01 7.995604883215641223e-01
2.487219889009953944e-01 7.576786405818261017e-01
2.497604940736009582e-01 7.614650361732238082e-01
2.507989992462065221e-01 7.677476102243758760e-01
2.518375044188120859e-01 6.798779854079022300e-01
2.528760095914177053e-01 6.832584783152171326e-01
2.539145147640232691e-01 6.239155335696793259e-01
2.549530199366288330e-01 6.621076258167661877e-01
2.559915251092343413e-01 7.715558280491023879e-01
2.570300302818399607e-01 7.055561219210133572e-01
2.580685354544455246e-01 6.115243897959494745e-01
2.591070406270510884e-01 5.207626593318082087e-01
2.601455457996566523e-01 5.068385700354163248e-01
2.611840509722622161e-01 5.890623103568621843e-01
2.622225561448678355e-01 4.825233882396489093e-01
2.632610613174733438e-01 4.687457272038777489e-01
2.642995664900789077e-01 5.315060512053229047e-01
2.653380716626844715e-01 5.943578031583029997e-01
2.663765768352900909e-01 5.946016059104763940e-01
2.674150820078956547e-01 5.560390728704689423e-01
2.684535871805012186e-01 5.477858515554245855e-01
2.694920923531067825e-01 4.833862934394836941e-01
2.705305975257123463e-01 4.965579160611461873e-01
2.715691026983179102e-01 4.777751216007146695e-01
2.726076078709234740e-01 4.730961249453393691e-01
2.736461130435290379e-01 4.934194232658377643e-01
2.746846182161346017e-01 4.246906900615172731e-01
2.757231233887402211e-01 4.457029408696833173e-01
2.767616285613457849e-01 4.387578946211085906e-01
2.778001337339512933e-01 4.545643772678999994e-01
2.788386389065568571e-01 4.453632321756124668e-01
2.798771440791624765e-01 4.258516431917165335e-01
2.809156492517680404e-01 4.031087269568303100e-01
2.819541544243736042e-01 3.735412538333164889e-01
2.829926595969791681e-01 3.182942132390209622e-01
2.840311647695847319e-01 3.425499678795667080e-01
2.850696699421902958e-01 2.814651688007039354e-01
2.861081751147958596e-01 3.229800660446571214e-01
2.871466802874014235e-01 3.342973576377161748e-01
2.881851854600069873e-01 2.071625461905881593e-01
2.892236906326126067e-01 1.860104064200349683e-01
2.902621958052181705e-01 2.293943267300946331e-01
2.913007009778237344e-01 2.610864282249494295e-01
2.923392061504292427e-01 2.614879847078235287e-01
2.933777113230348621e-01 2.869393393919530411e-01
2.944162164956404260e-01 2.922182573092122482e-01
2.954547216682459898e-01 3.038932697282774598e-01
2.964932268408515537e-01 3.047166155289708911e-01
2.975317320134571175e-01 2.238406259776049012e-01
2.985702371860627369e-01 2.214007367599499787e-01
2.996087423586683007e-01 2.097775767546714576e-01
3.006472475312738091e-01 2.187161262559982333e-01
3.016857527038794284e-01 2.396817200802807690e-01
3.027242578764849923e-01 1.905604468627224435e-01
3.037627630490905561e-01 1.900231399020988476e-01
3.048012682216961200e-01 2.517191875760076414e-01
3.058397733943016839e-01 2.557339903351874000e-01
3.068782785669073032e-01 2.086387726782383822e-01
3.079167837395128116e-01 1.998769291521895752e-01
3.089552889121183754e-01 1.845897204370636757e-01
3.099937940847239393e-01 1.805118476230163083e-01
3.110322992573295586e-01 1.706326379499181201e-01
3.120708044299351225e-01 1.703856453653891379e-01
3.131093096025406863e-01 1.282967614083148078e-01
3.141478147751462502e-01 1.571331478733526410e-01
3.151863199477518140e-01 2.069393611543475231e-01
3.162248251203573779e-01 2.055882189622977307e-01
3.172633302929629417e-01 1.675547403748822717e-01
3.183018354655685056e-01 1.860982463686902122e-01
3.193403406381740695e-01 2.061086208704985268e-01
3.203788458107796888e-01 1.914627104043020722e-01
3.214173509833852527e-01 1.555677906100072505e-01
3.224558561559907610e-01 1.937705151188815478e-01
3.234943613285963249e-01 2.341366633776402750e-01
3.245328665012019442e-01 2.496843149739369494e-01
3.255713716738075081e-01 1.696677560681294494e-01
3.266098768464130719e-01 1.275343577249508087e-01
3.276483820190186358e-01 1.179235858646521251e-01
3.286868871916241996e-01 1.440484713931731164e-01
3.297253923642297635e-01 2.292921363131732448e-01
3.307638975368353274e-01 2.203488974837775061e-01
3.318024027094408912e-01 1.858358441641030367e-01
3.328409078820464551e-01 2.206859016196247580e-01
3.338794130546520744e-01 2.337711742393153713e-01
3.349179182272576383e-01 2.390226288910817232e-01
3.359564233998632021e-01 2.132041753557238906e-01
3.369949285724687105e-01 2.841083003242701466e-01
3.380334337450743298e-01 2.883019582725410146e-01
3.390719389176798937e-01 2.316515485911310179e-01
3.401104440902854575e-01 2.148823341064236558e-01
3.411489492628910214e-01 2.459944687798945040e-01
3.421874544354965852e-01 2.783055442837962801e-01
3.432259596081022046e-01 2.970809057529386621e-01
3.442644647807077130e-01 2.701676072150434038e-01
3.453029699533132768e-01 1.953158266605683480e-01
3.463414751259188407e-01 2.156479498981518361e-01
3.473799802985244600e-01 2.824986932503286141e-01
3.484184854711300239e-01 2.591965406143366124e-01
3.494569906437355877e-01 2.598581490998981280e-01
3.504954958163411516e-01 2.684744643833951727e-01
3.515340009889467154e-01 1.880344820252588534e-01
3.525725061615522793e-01 1.965401753750484204e-01
3.536110113341578431e-01 2.442752401583909716e-01
3.546495165067634070e-01 2.009055667442538606e-01
3.556880216793689709e-01 2.136112060388981604e-01
3.567265268519745902e-01 1.699523350320397697e-01
3.577650320245801541e-01 2.052565957980618805e-01
3.588035371971856624e-01 2.182658476687073801e-01
3.598420423697912263e-01 2.385005107206907837e-01
3.608805475423968456e-01 2.948658691584178371e-01
3.619190527150024095e-01 2.407033668395577308e-01
3.629575578876079733e-01 1.487556413138264588e-01
3.639960630602135372e-01 2.065617458331416856e-01
3.650345682328191010e-01 2.532943461175065636e-01
3.660730734054246649e-01 2.161527627167849630e-01
3.671115785780302287e-01 2.379819964915768082e-01
3.681500837506357926e-01 1.820046692438630487e-01
3.691885889232413565e-01 2.320604035345681382e-01
3.702270940958469758e-01 2.215598586300657757e-01
3.712655992684525397e-01 2.489175719269987042e-01
3.723041044410581035e-01 2.026999039172245887e-01
3.733426096136636674e-01 1.341394602279919468e-01
3.743811147862692312e-01 1.470101052599446234e-01
3.754196199588747951e-01 2.071137720271494231e-01
3.764581251314803589e-01 1.592453018750958904e-01
3.774966303040859228e-01 1.936484565470983910e-01
3.785351354766914866e-01 2.016604818271368060e-01
3.795736406492971060e-01 1.702089336524785779e-01
3.806121458219026699e-01 1.654698249474293448e-01
3.816506509945081782e-01 1.613382760599861854e-01
3.826891561671137421e-01 1.626130747082150663e-01
3.837276613397193614e-01 1.491098176587719593e-01
3.847661665123249253e-01 1.482576674578233167e-01
3.858046716849304891e-01 1.789457487511683098e-01
3.868431768575360530e-01 1.709324507061076304e-01
3.878816820301416168e-01 1.769452318268385227e-01
3.889201872027471807e-01 1.473589368412895340e-01
3.899586923753527445e-01 1.415830144204335284e-01
3.909971975479583084e-01 1.422250232343742482e-01
3.920357027205638722e-01 1.539770028330345042e-01
3.930742078931694916e-01 1.462862473127231056e-01
3.941127130657750555e-01 1.962972069197483904e-01
3.951512182383806193e-01 2.097951921123417662e-01
3.961897234109861277e-01 1.509866744560710572e-01
3.972282285835917470e-01 2.224386868435637155e-01
3.982667337561973109e-01 1.954616556497335011e-01
3.993052389288028747e-01 2.927406252136783849e-01
4.003437441014084941e-01 1.855695597821345189e-01
4.013822492740140579e-01 1.147902460180603157e-01
4.024207544466196218e-01 1.581009927017902328e-01
4.034592596192252412e-01 1.328401004919008699e-01
4.044977647918308050e-01 1.279129464532324789e-01
4.055362699644363689e-01 1.706910706329587413e-01
4.065747751370419327e-01 1.796502584513426370e-01
4.076132803096474411e-01 1.497487183287553592e-01
4.086517854822530049e-01 7.956013694416697035e-02
4.096902906548585688e-01 1.041538385434357394e-01
4.107287958274641326e-01 1.205833975099714905e-01
4.117673010000697520e-01 1.802212810270482635e-01
4.128058061726753158e-01 1.829568559496514979e-01
4.138443113452808797e-01 1.493644302691983228e-01
4.148828165178864436e-01 1.555900900851661106e-01
4.159213216904920074e-01 2.017774767363107458e-01
4.169598268630976268e-01 1.575327378781210541e-01
4.179983320357031906e-01 1.293480203957138031e-01
4.190368372083087545e-01 1.535861314679465295e-01
4.200753423809143183e-01 1.744266358665846894e-01
4.211138475535198822e-01 1.485252255689282208e-01
4.221523527261253905e-01 1.112146302442091894e-01
4.231908578987309544e-01 1.318573149999870964e-01
4.242293630713365182e-01 1.556084194833253775e-01
4.252678682439421376e-01 1.590741191839697422e-01
4.263063734165477014e-01 2.115908817727536473e-01
4.273448785891532653e-01 1.917758384731627075e-01
4.283833837617588292e-01 1.296618868502328326e-01
4.294218889343643930e-01 1.593032427673541918e-01
4.304603941069700124e-01 1.645059426618367127e-01
4.314988992795755762e-01 1.795035194675982382e-01
4.325374044521811401e-01 1.720845510246711285e-01
4.335759096247867039e-01 1.619350496187870192e-01
4.346144147973922678e-01 1.698464159619739178e-01
4.356529199699978872e-01 1.382637471713650257e-01
4.366914251426033400e-01 1.684130855941319282e-01
4.377299303152089038e-01 1.292599393973077326e-01
4.387684354878145232e-01 1.131235830261410058e-01
4.398069406604200871e-01 1.831249340249243573e-01
4.408454458330256509e-01 1.541947962156591245e-01
4.418839510056312148e-01 1.550203043859852414e-01
4.429224561782367786e-01 1.223400363670847923e-01
4.439609613508423980e-01 8.797388901862746025e-02
