# q (1/Angstrom), Intensity (arb)
3.063590265382597211e-02 8.077129486801045744e+01
3.167440782643154290e-02 7.977316884603247615e+01
3.271291299903710675e-02 7.929190112644307931e+01
3.375141817164267755e-02 7.934951733628153647e+01
3.478992334424824834e-02 7.871198654304453157e+01
3.582842851685381913e-02 7.846154308194417126e+01
3.686693368945938992e-02 7.817176898968946830e+01
3.790543886206496071e-02 7.777945570502882333e+01
3.894394403467052457e-02 7.736540878422506751e+01
3.998244920727608842e-02 7.662710271883889845e+01
4.102095437988165921e-02 7.635162575071036883e+01
4.205945955248723001e-02 7.553706695588935816e+01
4.309796472509280080e-02 7.490477698237458526e+01
4.413646989769837159e-02 7.441489897024607103e+01
4.517497507030393544e-02 7.373580392151276897e+01
4.621348024290949930e-02 7.316343177505498829e+01
4.725198541551507009e-02 7.240764356998748497e+01
4.829049058812064088e-02 7.220373248674007982e+01
4.932899576072621167e-02 7.130068882880853209e+01
5.036750093333178246e-02 7.033165441462071499e+01
5.140600610593734632e-02 6.940265025737834037e+01
5.244451127854291711e-02 6.880456027644571293e+01
5.348301645114848096e-02 6.840667490745022405e+01
5.452152162375405869e-02 6.817692289397993477e+01
5.556002679635962255e-02 6.758013579708797636e+01
5.659853196896519334e-02 6.673560981824280702e+01
5.763703714157075719e-02 6.555484707846643744e+01
5.867554231417632105e-02 6.466764964301563623e+01
5.971404748678189878e-02 6.374046444723339988e+01
6.075255265938746263e-02 6.309719892688691090e+01
6.179105783199304036e-02 6.268505539570618623e+01
6.282956300459860421e-02 6.196049431954405406e+01
6.386806817720418195e-02 6.102080016448131516e+01
6.490657334980974580e-02 6.020115369213446854e+01
6.594507852241530965e-02 5.910224322982113421e+01
6.698358369502087351e-02 5.859839345078704298e+01
6.802208886762643736e-02 5.803756123665971955e+01
6.906059404023201509e-02 5.725812030930359242e+01
7.009909921283757894e-02 5.616013214546115506e+01
7.113760438544315667e-02 5.530683785051140688e+01
7.217610955804872053e-02 5.464942614351973305e+01
7.321461473065429826e-02 5.394305482053249534e+01
7.425311990325986211e-02 5.294730365263559690e+01
7.529162507586543984e-02 5.241474409942718893e+01
7.633013024847100370e-02 5.150867911659223353e+01
7.736863542107656755e-02 5.051509796294895693e+01
7.840714059368214528e-02 4.972132788780672286e+01
7.944564576628770913e-02 4.915977441775622481e+01
8.048415093889327299e-02 4.831223673388915074e+01
8.152265611149883684e-02 4.713376921025928823e+01
8.256116128410441457e-02 4.651229736493426969e+01
8.359966645670997842e-02 4.566048525320001517e+01
8.463817162931554228e-02 4.492759577388787307e+01
8.567667680192112001e-02 4.435526301959578177e+01
8.671518197452668386e-02 4.375311864311952093e+01
8.775368714713226159e-02 4.309000778306470636e+01
8.879219231973782545e-02 4.223950326098366759e+01
8.983069749234340318e-02 4.109815572874307321e+01
9.086920266494896703e-02 4.009047336921447169e+01
9.190770783755453088e-02 3.924158226909466407e+01
9.294621301016009474e-02 3.859508902242620820e+01
9.398471818276565859e-02 3.805682137923824371e+01
9.502322335537123632e-02 3.698991227453352337e+01
9.606172852797680017e-02 3.639669659871638885e+01
9.710023370058237790e-02 3.584694922700423092e+01
9.813873887318794176e-02 3.509922394971893311e+01
9.917724404579351949e-02 3.421920436745104865e+01
1.002157492183990695e-01 3.344064246124086281e+01
1.012542543910046472e-01 3.276184947586696694e+01
1.022927595636101972e-01 3.214283520955914497e+01
1.033312647362157749e-01 3.157732701251136476e+01
1.043697699088213526e-01 3.082511116419716757e+01
1.054082750814269165e-01 3.018700539993664478e+01
1.064467802540324803e-01 2.959042034067805105e+01
1.074852854266380442e-01 2.872222667972792109e+01
1.085237905992436219e-01 2.809878749014304944e+01
1.095622957718491719e-01 2.767226478191419048e+01
1.106008009444547496e-01 2.694296160655125760e+01
1.116393061170603274e-01 2.639378645866871764e+01
1.126778112896659051e-01 2.553908900859359932e+01
1.137163164622714551e-01 2.491047700304901014e+01
1.147548216348770328e-01 2.439987861548558712e+01
1.157933268074826105e-01 2.376021688665886344e+01
1.168318319800881605e-01 2.312586435928116302e+01
1.178703371526937382e-01 2.243849801921510689e+01
1.189088423252993021e-01 2.183937446840166174e+01
1.199473474979048798e-01 2.125455327531495087e+01
1.209858526705104298e-01 2.062700570999609440e+01
1.220243578431160075e-01 2.013356528383234334e+01
1.230628630157215853e-01 1.952069322871762225e+01
1.241013681883271630e-01 1.907109728770360135e+01
1.251398733609327130e-01 1.855983082825393993e+01
1.261783785335382768e-01 1.811487211241709616e+01
1.272168837061438684e-01 1.765080772829500688e+01
1.282553888787494045e-01 1.711741562454552934e+01
1.292938940513549961e-01 1.664346403205872349e+01
1.303323992239605600e-01 1.614500907420117670e+01
1.313709043965661516e-01 1.561744959744370931e+01
1.324094095691716877e-01 1.517855070498943348e+01
1.334479147417772793e-01 1.472763809510508182e+01
1.344864199143828432e-01 1.424395447235575318e+01
1.355249250869884070e-01 1.377187120835104039e+01
1.365634302595939709e-01 1.333018110786753851e+01
1.376019354321995347e-01 1.297730954567161632e+01
1.386404406048051263e-01 1.257442668268309305e+01
1.396789457774106624e-01 1.216852657618480649e+01
1.407174509500162540e-01 1.174926062269846128e+01
1.417559561226218179e-01 1.138237953966161342e+01
1.427944612952273817e-01 1.096616849061047816e+01
1.438329664678329456e-01 1.061958768429574107e+01
1.448714716404385372e-01 1.037347302747418709e+01
1.459099768130441011e-01 1.001390738367611277e+01
1.469484819856496649e-01 9.579945471515721067e+00
1.479869871582552288e-01 9.266487005722211734e+00
1.490254923308607926e-01 9.081847942393952877e+00
1.500639975034663842e-01 8.693663023561025938e+00
1.511025026760719481e-01 8.416188432657978780e+00
1.521410078486775119e-01 8.122313093435266751e+00
1.531795130212830758e-01 7.816397923850725959e+00
1.542180181938886396e-01 7.649931989471134841e+00
1.552565233664942035e-01 7.414948239311645040e+00
1.562950285390997951e-01 7.038974462866725901e+00
1.573335337117053589e-01 6.732276150226624623e+00
1.583720388843109228e-01 6.468629701035503388e+00
1.594105440569164867e-01 6.337697464412780590e+00
1.604490492295220783e-01 6.135954987782401560e+00
1.614875544021276144e-01 5.928440469401657253e+00
1.625260595747332060e-01 5.604213563846801804e+00
1.635645647473387698e-01 5.329246954974138362e+00
1.646030699199443337e-01 5.086555116926945175e+00
1.656415750925498975e-01 5.002820706107232951e+00
1.666800802651554614e-01 4.810114138720834376e+00
1.677185854377610530e-01 4.623114012338209733e+00
1.687570906103665891e-01 4.407277278582022007e+00
1.697955957829721807e-01 4.174432318232888406e+00
1.708341009555777446e-01 4.112146710444086750e+00
1.718726061281833362e-01 3.986844661385863020e+00
1.729111113007888723e-01 3.678114414315754033e+00
1.739496164733944639e-01 3.536191640511226808e+00
1.749881216460000277e-01 3.557476391010869321e+00
1.760266268186055916e-01 3.445518248258405691e+00
1.770651319912111554e-01 3.242963456761671637e+00
1.781036371638167193e-01 3.023950018938577955e+00
1.791421423364223109e-01 2.971302318617603078e+00
1.801806475090278470e-01 2.888177505938607226e+00
1.812191526816334386e-01 2.669521518099447377e+00
1.822576578542390024e-01 2.661867004115958224e+00
1.832961630268445663e-01 2.598367893108825655e+00
1.843346681994501302e-01 2.476870122100631733e+00
1.853731733720557218e-01 2.415629783088103721e+00
1.864116785446612856e-01 2.178749798661680614e+00
1.874501837172668495e-01 2.079649598227682361e+00
1.884886888898724133e-01 2.017811905579851128e+00
1.895271940624779772e-01 1.932253674268583410e+00
1.905656992350835688e-01 1.864831023164413182e+00
1.916042044076891049e-01 1.733260348634299675e+00
1.926427095802946965e-01 1.675051065323955868e+00
1.936812147529002603e-01 1.736828145757300490e+00
1.947197199255058242e-01 1.731429009070836855e+00
1.957582250981113881e-01 1.667622857225399713e+00
1.967967302707169797e-01 1.587465124133430550e+00
1.978352354433225435e-01 1.502889308457696416e+00
1.988737406159281074e-01 1.356349387859037137e+00
1.999122457885336712e-01 1.298587801561723154e+00
2.009507509611392351e-01 1.265800324778755481e+00
2.019892561337448267e-01 1.216515968235960088e+00
2.030277613063503905e-01 1.239217258588279691e+00
2.040662664789559266e-01 1.231735796416153050e+00
2.051047716515614905e-01 1.184466520238242282e+00
2.061432768241670821e-01 1.114565875176523946e+00
2.071817819967726459e-01 1.012785911810802020e+00
2.082202871693782376e-01 9.987217140890294331e-01
2.092587923419838014e-01 9.814808469236524502e-01
2.102972975145893653e-01 9.971399940430138997e-01
2.113358026871949014e-01 9.242066427039432597e-01
2.123743078598004930e-01 8.468660076816547644e-01
2.134128130324060568e-01 8.278930507251764936e-01
2.144513182050116207e-01 8.460660923071436912e-01
2.154898233776172123e-01 7.702272189230541244e-01
2.165283285502227761e-01 7.368730690781823967e-01
2.175668337228283677e-01 7.867018131822121063e-01
2.186053388954338761e-01 8.192332312314931642e-01
2.196438440680394677e-01 8.213962864770927297e-01
2.206823492406450316e-01 6.252686749782654374e-01
2.217208544132506232e-01 6.136604615908964888e-01
2.227593595858561870e-01 5.673710628571448922e-01
2.237978647584617509e-01 6.619105533493190308e-01
2.248363699310673425e-01 8.002958839765632604e-01
2.258748751036728786e-01 8.084493297808492684e-01
2.269133802762784424e-01 6.643092747776364604e-01
2.279518854488840063e-01 6.938520794678915138e-01
2.289903906214895979e-01 6.554093799920899244e-01
2.300288957940951617e-01 7.522419468015044686e-01
2.310674009667007534e-01 7.904611081376309301e-01
2.321059061393063172e-01 6.234855052632468642e-01
2.331444113119118533e-01 5.978959313122125252e-01
2.341829164845174172e-01 6.496223811452637165e-01
2.352214216571230088e-01 6.218692332579287552e-01
2.362599268297285726e-01 5.482914088771515537e-01
2.372984320023341365e-01 5.519610516586723747e-01
2.383369371749397281e-01 5.792274300832893630e-01
2.393754423475452919e-01 6.411815943480441149e-01
2.404139475201508835e-01 6.713687772274354870e-01
2.414524526927563919e-01 6.649337648229440845e-01
2.424909578653619835e-01 6.688825031543075283e-01
2.435294630379675473e-01 6.281292410445402652e-01
2.445679682105731390e-01 6.418612804564958196e-01
2.456064733831787028e-01 6.340579240495856084e-01
2.466449785557842667e-01 6.196860665390175882e-01
2.476834837283898583e-01 5.959310693602759557e-01
2.487219889009953944e-01 5.549807776782458291e-01
2.497604940736009582e-01 5.770850792065580492e-01
2.507989992462065221e-01 6.124266334341399443e-01
2.518375044188120859e-01 5.688332838061036512e-01
2.528760095914177053e-01 6.528737188355506760e-01
2.539145147640232691e-01 6.107059325281589679e-01
2.549530199366288330e-01 5.963006127767442877e-01
2.559915251092343413e-01 6.084660344138583810e-01
2.570300302818399607e-01 5.841302758087536517e-01
2.580685354544455246e-01 5.856831658158050402e-01
2.591070406270510884e-01 5.558291522819267527e-01
2.601455457996566523e-01 5.702213943938154728e-01
2.611840509722622161e-01 6.323694493850631204e-01
2.622225561448678355e-01 6.109659879464963694e-01
2.632610613174733438e-01 5.625551856940411710e-01
2.642995664900789077e-01 5.709021327674790314e-01
2.653380716626844715e-01 6.201465312109313288e-01
2.663765768352900909e-01 5.774506701135813103e-01
2.674150820078956547e-01 6.282933114401352270e-01
2.684535871805012186e-01 5.966365614090420877e-01
2.694920923531067825e-01 5.443088371219957367e-01
2.705305975257123463e-01 5.519029638948396155e-01
2.715691026983179102e-01 5.559935461660678868e-01
2.726076078709234740e-01 5.933560970872626683e-01
2.736461130435290379e-01 6.453375557404115170e-01
2.746846182161346017e-01 6.037078145310523780e-01
2.757231233887402211e-01 5.554307333572268135e-01
2.767616285613457849e-01 5.861988374494693232e-01
2.778001337339512933e-01 5.268586633986309664e-01
2.788386389065568571e-01 5.286500542682972537e-01
2.798771440791624765e-01 5.757162528237707022e-01
2.809156492517680404e-01 4.800292953716081001e-01
2.819541544243736042e-01 5.496715633210058627e-01
2.829926595969791681e-01 5.584959890161833584e-01
2.840311647695847319e-01 4.939487816678713727e-01
2.850696699421902958e-01 4.901059666347151733e-01
2.861081751147958596e-01 5.250342845939108827e-01
2.871466802874014235e-01 5.010933765937792828e-01
2.881851854600069873e-01 5.263386744934059891e-01
2.892236906326126067e-01 5.608153299776788003e-01
2.902621958052181705e-01 6.241316458633825448e-01
2.913007009778237344e-01 6.084690036362836452e-01
2.923392061504292427e-01 5.463503924080939100e-01
2.933777113230348621e-01 4.998469861885048715e-01
2.944162164956404260e-01 5.159921190555287751e-01
2.954547216682459898e-01 5.840461697429120136e-01
2.964932268408515537e-01 5.857685338866502889e-01
2.975317320134571175e-01 6.309832398816119792e-01
2.985702371860627369e-01 4.825857102359769613e-01
2.996087423586683007e-01 4.343866143168142457e-01
3.006472475312738091e-01 4.776113687426963850e-01
3.016857527038794284e-01 5.597345615142401698e-01
3.027242578764849923e-01 5.735436850915895945e-01
3.037627630490905561e-01 5.001087965852093475e-01
3.048012682216961200e-01 4.890526104497396886e-01
3.058397733943016839e-01 4.949080114180723911e-01
3.068782785669073032e-01 4.813097278823192937e-01
3.079167837395128116e-01 4.845454334683694242e-01
3.089552889121183754e-01 5.751224141531210421e-01
3.099937940847239393e-01 5.453980064102026404e-01
3.110322992573295586e-01 4.762026080367824932e-01
3.120708044299351225e-01 4.446343931712704034e-01
3.131093096025406863e-01 4.325690477742938356e-01
3.141478147751462502e-01 4.399096237682158517e-01
3.151863199477518140e-01 4.296508494593318517e-01
3.162248251203573779e-01 4.256596335232778472e-01
3.172633302929629417e-01 4.535573823756102740e-01
3.183018354655685056e-01 4.875821403923126240e-01
3.193403406381740695e-01 5.487046465939577899e-01
3.203788458107796888e-01 4.572315328159461956e-01
3.214173509833852527e-01 4.388976665617185802e-01
3.224558561559907610e-01 4.078057535324539629e-01
3.234943613285963249e-01 3.662521075854385799e-01
3.245328665012019442e-01 4.371602522329176566e-01
3.255713716738075081e-01 4.962940820010715015e-01
3.266098768464130719e-01 4.301979969849689667e-01
3.276483820190186358e-01 3.846191453891272261e-01
3.286868871916241996e-01 3.111585447965161677e-01
3.297253923642297635e-01 4.131436934163161823e-01
3.307638975368353274e-01 4.283713016020058717e-01
3.318024027094408912e-01 4.508588683856231683e-01
3.328409078820464551e-01 3.541099322005187844e-01
3.338794130546520744e-01 3.793870135519696873e-01
3.349179182272576383e-01 3.738671462525644529e-01
3.359564233998632021e-01 3.481835263053838503e-01
3.369949285724687105e-01 3.356830548042282203e-01
3.380334337450743298e-01 3.138935212270332897e-01
3.390719389176798937e-01 3.259154983579826137e-01
3.401104440902854575e-01 3.558253394750110488e-01
3.411489492628910214e-01 4.082095918084007735e-01
3.421874544354965852e-01 3.229213572249705066e-01
3.432259596081022046e-01 2.962418362211778344e-01
3.442644647807077130e-01 3.113519678101610566e-01
3.453029699533132768e-01 3.097323547054990911e-01
3.463414751259188407e-01 3.563228238954074811e-01
3.473799802985244600e-01 2.721301432582734492e-01
3.484184854711300239e-01 2.804355550462673818e-01
3.494569906437355877e-01 2.946455227643802743e-01
3.504954958163411516e-01 3.340805656956078451e-01
3.515340009889467154e-01 3.109582663853807105e-01
3.525725061615522793e-01 3.018525193051608824e-01
3.536110113341578431e-01 3.819996508816920766e-01
3.546495165067634070e-01 3.897484213817499210e-01
3.556880216793689709e-01 2.909985783702815354e-01
3.567265268519745902e-01 2.370096843876652315e-01
3.577650320245801541e-01 2.403438980877226072e-01
3.588035371971856624e-01 2.603638872889746381e-01
3.598420423697912263e-01 2.611091194208086108e-01
3.608805475423968456e-01 2.882969978559302149e-01
3.619190527150024095e-01 3.199151149922521142e-01
3.629575578876079733e-01 2.893531612278081866e-01
3.639960630602135372e-01 3.103859951902414593e-01
3.650345682328191010e-01 3.517749425064984337e-01
3.660730734054246649e-01 2.979691510753994521e-01
3.671115785780302287e-01 3.313128951257482413e-01
3.681500837506357926e-01 2.639974955381205746e-01
3.691885889232413565e-01 2.376718096242598222e-01
3.702270940958469758e-01 2.096032644890613028e-01
3.712655992684525397e-01 1.505964155089536405e-01
3.723041044410581035e-01 2.363711891621562700e-01
3.733426096136636674e-01 2.610608645087317825e-01
3.743811147862692312e-01 2.692330073216027131e-01
3.754196199588747951e-01 2.815518444133608966e-01
3.764581251314803589e-01 2.391665195807739508e-01
3.774966303040859228e-01 1.501595656137126866e-01
3.785351354766914866e-01 2.701179805795383970e-01
3.795736406492971060e-01 2.335127305666730990e-01
3.806121458219026699e-01 1.859350307650835532e-01
3.816506509945081782e-01 2.142471027587085075e-01
3.826891561671137421e-01 2.748193536708463114e-01
3.837276613397193614e-01 2.104713895789771527e-01
3.847661665123249253e-01 1.811723766440778149e-01
3.858046716849304891e-01 1.111566667242591677e-01
3.868431768575360530e-01 2.314475180191770676e-01
3.878816820301416168e-01 2.618990174902648960e-01
3.889201872027471807e-01 2.647706227552859559e-01
3.899586923753527445e-01 2.591019055700272133e-01
3.909971975479583084e-01 2.157062640734181969e-01
3.920357027205638722e-01 2.176161707935513334e-01
3.930742078931694916e-01 2.057181552184239592e-01
3.941127130657750555e-01 2.085977468425177506e-01
3.951512182383806193e-01 1.696830417611110420e-01
3.961897234109861277e-01 1.881837417911853549e-01
3.972282285835917470e-01 2.365328226566738579e-01
3.982667337561973109e-01 2.250003736779397912e-01
3.993052389288028747e-01 2.297257772137228926e-01
4.003437441014084941e-01 2.640406339139005354e-01
4.013822492740140579e-01 2.242317027065254820e-01
4.024207544466196218e-01 2.264689263435819555e-01
4.034592596192252412e-01 2.436513643641617932e-01
4.044977647918308050e-01 2.695272288952921258e-01
4.055362699644363689e-01 2.547822914724910959e-01
4.065747751370419327e-01 1.912972755787727408e-01
4.076132803096474411e-01 1.320904378287259817e-01
4.086517854822530049e-01 1.981827763895864791e-01
4.096902906548585688e-01 2.093857356979995643e-01
4.107287958274641326e-01 1.808605555675448784e-01
4.117673010000697520e-01 2.111791835902963044e-01
4.128058061726753158e-01 2.551499350844466107e-01
4.138443113452808797e-01 2.072971356060726578e-01
4.148828165178864436e-01 1.598426268098940284e-01
4.159213216904920074e-01 2.201986625587259994e-01
4.169598268630976268e-01 2.845318460877379607e-01
4.179983320357031906e-01 1.766209579089661474e-01
4.190368372083087545e-01 1.313492883821467672e-01
4.200753423809143183e-01 0.000000000000000000e+00
4.211138475535198822e-01 9.856854111202650870e-02
4.221523527261253905e-01 1.479783447420288667e-01
4.231908578987309544e-01 1.821054322607054132e-01
4.242293630713365182e-01 1.600700845617772927e-01
4.252678682439421376e-01 1.916830345948028480e-01
4.263063734165477014e-01 2.078757787673772839e-01
4.273448785891532653e-01 2.029552084274044432e-01
4.283833837617588292e-01 1.928425874269699136e-01
4.294218889343643930e-01 1.905763361075507589e-01
4.304603941069700124e-01 2.320471040225164927e-01
4.314988992795755762e-01 1.949651771576412784e-01
4.325374044521811401e-01 1.701395104044252093e-01
4.335759096247867039e-01 2.199917253839167586e-01
4.346144147973922678e-01 2.463003357146433814e-01
4.356529199699978872e-01 1.738031005144939911e-01
4.366914251426033400e-01 1.400139097585473280e-01
4.377299303152089038e-01 1.971724935561987024e-01
4.387684354878145232e-01 2.343912022668916961e-01
4.398069406604200871e-01 2.014242894638726966e-01
4.408454458330256509e-01 2.085326296503531296e-01
4.418839510056312148e-01 2.759781181359493019e-01
4.429224561782367786e-01 1.986801040648806804e-01
4.439609613508423980e-01 1.457613464730904695e-01
