# q (1/Angstrom), Intensity (arb)
3.063590265382597211e-02 8.674857262628221122e+01
3.167440782643154290e-02 8.666504185966547880e+01
3.271291299903710675e-02 8.653011103340166699e+01
3.375141817164267755e-02 8.576831586943281138e+01
3.478992334424824834e-02 8.554395838061699919e+01
3.582842851685381913e-02 8.508360952139354083e+01
3.686693368945938992e-02 8.459951685995596904e+01
3.790543886206496071e-02 8.396233211425982290e+01
3.894394403467052457e-02 8.380120338330073082e+01
3.998244920727608842e-02 8.306843826388208640e+01
4.102095437988165921e-02 8.235214543276595123e+01
4.205945955248723001e-02 8.218700828523670054e+01
4.309796472509280080e-02 8.102463710726030399e+01
4.413646989769837159e-02 8.026407362959123759e+01
4.517497507030393544e-02 7.956085668264201161e+01
4.621348024290949930e-02 7.854195279693662712e+01
4.725198541551507009e-02 7.809904633922646155e+01
4.829049058812064088e-02 7.773317397671655726e+01
4.932899576072621167e-02 7.685041832346740875e+01
5.036750093333178246e-02 7.627396571089346367e+01
5.140600610593734632e-02 7.558686603729735509e+01
5.244451127854291711e-02 7.480082207585672904e+01
5.348301645114848096e-02 7.389675951996167669e+01
5.452152162375405869e-02 7.310594419827887691e+01
5.556002679635962255e-02 7.226336512638735599e+01
5.659853196896519334e-02 7.137535319037736770e+01
5.763703714157075719e-02 7.070893919473890321e+01
5.867554231417632105e-02 6.961436542297575158e+01
5.971404748678189878e-02 6.878651083851529791e+01
6.075255265938746263e-02 6.800052369806650177e+01
6.179105783199304036e-02 6.711517221685652146e+01
6.282956300459860421e-02 6.625737691098096604e+01
6.386806817720418195e-02 6.578613977310989469e+01
6.490657334980974580e-02 6.459849688598471573e+01
6.594507852241530965e-02 6.355124921397991500e+01
6.698358369502087351e-02 6.278240865935190840e+01
6.802208886762643736e-02 6.186918530797824189e+01
6.906059404023201509e-02 6.096685766167600917e+01
7.009909921283757894e-02 5.991954818748016720e+01
7.113760438544315667e-02 5.916928707153518019e+01
7.217610955804872053e-02 5.848282041259317054e+01
7.321461473065429826e-02 5.732170181299450462e+01
7.425311990325986211e-02 5.663983266379361226e+01
7.529162507586543984e-02 5.574560031698558049e+01
7.633013024847100370e-02 5.500589720828618567e+01
7.736863542107656755e-02 5.441728834559546613e+01
7.840714059368214528e-02 5.344956619917238072e+01
7.944564576628770913e-02 5.240995724183974858e+01
8.048415093889327299e-02 5.130229198341652364e+01
8.152265611149883684e-02 5.006328284017705954e+01
8.256116128410441457e-02 4.916215892797029596e+01
8.359966645670997842e-02 4.846820048190198804e+01
8.463817162931554228e-02 4.759606526217836375e+01
8.567667680192112001e-02 4.658552847482319237e+01
8.671518197452668386e-02 4.578614727723292077e+01
8.775368714713226159e-02 4.504365634146525110e+01
8.879219231973782545e-02 4.407434322517436698e+01
8.983069749234340318e-02 4.318845342133924703e+01
9.086920266494896703e-02 4.241406611613282962e+01
9.190770783755453088e-02 4.154368742240887968e+01
9.294621301016009474e-02 4.075450900261954246e+01
9.398471818276565859e-02 3.991393277394948313e+01
9.502322335537123632e-02 3.892245110825110999e+01
9.606172852797680017e-02 3.819394070660803209e+01
9.710023370058237790e-02 3.731734543229580936e+01
9.813873887318794176e-02 3.634494866142905778e+01
9.917724404579351949e-02 3.551713562678150993e+01
1.002157492183990695e-01 3.454652660418820176e+01
1.012542543910046472e-01 3.368310932963839122e+01
1.022927595636101972e-01 3.304766220088664141e+01
1.033312647362157749e-01 3.240655254122513895e+01
1.043697699088213526e-01 3.185867006953709080e+01
1.054082750814269165e-01 3.109573494523402104e+01
1.064467802540324803e-01 3.024896926117830631e+01
1.074852854266380442e-01 2.966075397731763630e+01
1.085237905992436219e-01 2.903547220766814974e+01
1.095622957718491719e-01 2.825615509915722967e+01
1.106008009444547496e-01 2.774757581330721123e+01
1.116393061170603274e-01 2.692442167162297295e+01
1.126778112896659051e-01 2.609092505582218280e+01
1.137163164622714551e-01 2.567150520370518407e+01
1.147548216348770328e-01 2.501763492003837541e+01
1.157933268074826105e-01 2.430507787226968119e+01
1.168318319800881605e-01 2.378696556203675172e+01
1.178703371526937382e-01 2.327897124333513545e+01
1.189088423252993021e-01 2.256934755671196413e+01
1.199473474979048798e-01 2.187202916552528364e+01
1.209858526705104298e-01 2.115835775092538995e+01
1.220243578431160075e-01 2.045324335953186434e+01
1.230628630157215853e-01 2.011609480352477775e+01
1.241013681883271630e-01 1.957080333648690385e+01
1.251398733609327130e-01 1.888706793254646854e+01
1.261783785335382768e-01 1.835015284611591113e+01
1.272168837061438684e-01 1.781384795493160311e+01
1.282553888787494045e-01 1.732497069394258205e+01
1.292938940513549961e-01 1.685130201154623109e+01
1.303323992239605600e-01 1.632237482831436637e+01
1.313709043965661516e-01 1.584178751385330486e+01
1.324094095691716877e-01 1.515750497667660568e+01
1.334479147417772793e-01 1.472167168420388350e+01
1.344864199143828432e-01 1.444854503238214605e+01
1.355249250869884070e-01 1.393485208730656666e+01
1.365634302595939709e-01 1.348159088668783312e+01
1.376019354321995347e-01 1.307823458146320661e+01
1.386404406048051263e-01 1.256732399917169829e+01
1.396789457774106624e-01 1.216702173110842367e+01
1.407174509500162540e-01 1.192796344025926558e+01
1.417559561226218179e-01 1.144884098473789180e+01
1.427944612952273817e-01 1.103853801829228942e+01
1.438329664678329456e-01 1.068440204429159834e+01
1.448714716404385372e-01 1.030325270120091474e+01
1.459099768130441011e-01 9.947408197957518183e+00
1.469484819856496649e-01 9.524519633714792377e+00
1.479869871582552288e-01 9.123595490739667468e+00
1.490254923308607926e-01 8.854179058526593593e+00
1.500639975034663842e-01 8.549901554837752826e+00
1.511025026760719481e-01 8.198021288523783312e+00
1.521410078486775119e-01 7.840646058448719202e+00
1.531795130212830758e-01 7.567587180005158842e+00
1.542180181938886396e-01 7.227425342640131589e+00
1.552565233664942035e-01 7.009094905052229763e+00
1.562950285390997951e-01 6.773523929647883079e+00
1.573335337117053589e-01 6.652818547977254582e+00
1.583720388843109228e-01 6.284746976620088077e+00
1.594105440569164867e-01 6.018383824599268905e+00
1.604490492295220783e-01 5.720547415902540678e+00
1.614875544021276144e-01 5.482406827006606420e+00
1.625260595747332060e-01 5.315996425984820917e+00
1.635645647473387698e-01 5.022912173229041599e+00
1.646030699199443337e-01 4.810567700688171300e+00
1.656415750925498975e-01 4.689106753934762395e+00
1.666800802651554614e-01 4.528001429897713592e+00
1.677185854377610530e-01 4.268809271999373323e+00
1.687570906103665891e-01 4.198701939528206140e+00
1.697955957829721807e-01 3.953400103467238580e+00
1.708341009555777446e-01 3.917220886658213885e+00
1.718726061281833362e-01 3.542249782674737446e+00
1.729111113007888723e-01 3.345099188392421041e+00
1.739496164733944639e-01 3.244312178463410135e+00
1.749881216460000277e-01 3.173687578956663202e+00
1.760266268186055916e-01 3.038199997530366403e+00
1.770651319912111554e-01 2.869834893023401889e+00
1.781036371638167193e-01 2.739392794487852001e+00
1.791421423364223109e-01 2.644659036843837185e+00
1.801806475090278470e-01 2.523051914924018035e+00
1.812191526816334386e-01 2.444944998916717793e+00
1.822576578542390024e-01 2.162418135617489412e+00
1.832961630268445663e-01 2.088640622292761151e+00
1.843346681994501302e-01 2.086396906127831130e+00
1.853731733720557218e-01 1.898659498152341030e+00
1.864116785446612856e-01 1.834197195719852402e+00
1.874501837172668495e-01 1.840603389685753655e+00
1.884886888898724133e-01 1.779729102202519897e+00
1.895271940624779772e-01 1.698118272755056779e+00
1.905656992350835688e-01 1.529983307606286758e+00
1.916042044076891049e-01 1.567661643674995275e+00
1.926427095802946965e-01 1.536441820584244056e+00
1.936812147529002603e-01 1.466282738804544294e+00
1.947197199255058242e-01 1.343354057379585242e+00
1.957582250981113881e-01 1.223196920618189409e+00
1.967967302707169797e-01 1.105767606302229922e+00
1.978352354433225435e-01 1.110609066508729370e+00
1.988737406159281074e-01 1.115471217849730579e+00
1.999122457885336712e-01 1.116088338934389412e+00
2.009507509611392351e-01 1.086870736995820153e+00
2.019892561337448267e-01 9.992167768104458503e-01
2.030277613063503905e-01 9.597866758064768078e-01
2.040662664789559266e-01 8.678959139466115857e-01
2.051047716515614905e-01 8.667221314486468486e-01
2.061432768241670821e-01 9.780622094218429652e-01
2.071817819967726459e-01 9.148158487119246729e-01
2.082202871693782376e-01 7.994332882157735298e-01
2.092587923419838014e-01 7.501364919741178028e-01
2.102972975145893653e-01 6.009473696457874325e-01
2.113358026871949014e-01 7.085650459032031279e-01
2.123743078598004930e-01 7.203316728775384092e-01
2.134128130324060568e-01 7.070115809615096225e-01
2.144513182050116207e-01 6.854344152144591362e-01
2.154898233776172123e-01 7.019019404845110444e-01
2.165283285502227761e-01 7.295232991411211287e-01
2.175668337228283677e-01 7.075634084837680859e-01
2.186053388954338761e-01 6.156622267902562839e-01
2.196438440680394677e-01 5.819439771127790095e-01
2.206823492406450316e-01 5.431175368734884046e-01
2.217208544132506232e-01 5.604126825740465279e-01
2.227593595858561870e-01 5.067322156423479385e-01
2.237978647584617509e-01 5.326573874763944616e-01
2.248363699310673425e-01 5.846764066835241636e-01
2.258748751036728786e-01 5.972294932739927731e-01
2.269133802762784424e-01 5.718101490797167230e-01
2.279518854488840063e-01 5.302310929189566480e-01
2.289903906214895979e-01 4.808935992967064976e-01
2.300288957940951617e-01 4.815497829030803700e-01
2.310674009667007534e-01 4.961338801097667783e-01
2.321059061393063172e-01 5.075079735719327800e-01
2.331444113119118533e-01 5.550390704074352755e-01
2.341829164845174172e-01 5.392099312814124801e-01
2.352214216571230088e-01 5.006114560498460264e-01
2.362599268297285726e-01 4.794087968766511665e-01
2.372984320023341365e-01 4.816397250464774515e-01
2.383369371749397281e-01 5.006950508327108196e-01
2.393754423475452919e-01 5.286855196154114367e-01
2.404139475201508835e-01 4.453916511121676081e-01
2.414524526927563919e-01 4.839291676918193730e-01
2.424909578653619835e-01 4.736925402583409550e-01
2.435294630379675473e-01 4.923029309741622228e-01
2.445679682105731390e-01 5.237843807029562981e-01
2.456064733831787028e-01 5.158815087260286703e-01
2.466449785557842667e-01 5.885012302564298636e-01
2.476834837283898583e-01 5.924323809059899304e-01
2.487219889009953944e-01 6.291784730939191661e-01
2.497604940736009582e-01 5.263000837090885398e-01
2.507989992462065221e-01 5.909409953989239739e-01
2.518375044188120859e-01 5.518966642026583713e-01
2.528760095914177053e-01 4.671266196445102992e-01
2.539145147640232691e-01 4.504695330376371487e-01
2.549530199366288330e-01 5.165863534729346895e-01
2.559915251092343413e-01 5.715743106988213640e-01
2.570300302818399607e-01 5.847464484274524921e-01
2.580685354544455246e-01 5.297536030604526047e-01
2.591070406270510884e-01 5.802098030210949275e-01
2.601455457996566523e-01 5.504144545302871450e-01
2.611840509722622161e-01 5.705110353784981214e-01
2.622225561448678355e-01 5.640833248067558259e-01
2.632610613174733438e-01 5.757233150762885998e-01
2.642995664900789077e-01 6.389943453093316350e-01
2.653380716626844715e-01 6.755141414870955430e-01
2.663765768352900909e-01 6.042807595265600185e-01
2.674150820078956547e-01 5.515441551426292222e-01
2.684535871805012186e-01 5.675803682767686098e-01
2.694920923531067825e-01 6.202907853778327762e-01
2.705305975257123463e-01 6.160962072885567409e-01
2.715691026983179102e-01 5.408284607294255864e-01
2.726076078709234740e-01 5.607334593099864151e-01
2.736461130435290379e-01 5.081161588242544269e-01
2.746846182161346017e-01 4.036465079172621984e-01
2.757231233887402211e-01 5.632173382034082465e-01
2.767616285613457849e-01 6.272980372917089653e-01
2.778001337339512933e-01 5.381523853573320082e-01
2.788386389065568571e-01 6.271991645029331153e-01
2.798771440791624765e-01 5.303414769197019041e-01
2.809156492517680404e-01 4.391420823705374232e-01
2.819541544243736042e-01 4.572270058210321508e-01
2.829926595969791681e-01 4.643731616427899667e-01
2.840311647695847319e-01 4.057115387330121337e-01
2.850696699421902958e-01 4.356024473437081213e-01
2.861081751147958596e-01 4.345929298899768867e-01
2.871466802874014235e-01 5.202620224316589770e-01
2.881851854600069873e-01 5.673795504068834816e-01
2.892236906326126067e-01 5.558138951089723889e-01
2.902621958052181705e-01 5.084560678321139449e-01
2.913007009778237344e-01 4.848793218290587959e-01
2.923392061504292427e-01 4.605036040605803294e-01
2.933777113230348621e-01 3.581160439180486321e-01
2.944162164956404260e-01 4.607308949544695054e-01
2.954547216682459898e-01 4.531781505250300768e-01
2.964932268408515537e-01 1.836468466254466136e-01
2.975317320134571175e-01 2.925443716149835893e-01
2.985702371860627369e-01 4.072617522756196706e-01
2.996087423586683007e-01 3.900057521925148762e-01
3.006472475312738091e-01 4.188425573222609444e-01
3.016857527038794284e-01 3.703093061545885689e-01
3.027242578764849923e-01 3.828030123774865956e-01
3.037627630490905561e-01 4.517741655733651385e-01
3.048012682216961200e-01 4.207701309422233749e-01
3.058397733943016839e-01 4.502590208585353082e-01
3.068782785669073032e-01 3.963127772104542146e-01
3.079167837395128116e-01 3.924576646702213623e-01
3.089552889121183754e-01 4.169674583547049451e-01
3.099937940847239393e-01 3.904012316889406975e-01
3.110322992573295586e-01 4.256381927471046822e-01
3.120708044299351225e-01 4.788033109798597309e-01
3.131093096025406863e-01 4.586928613542156086e-01
3.141478147751462502e-01 5.638393439349229652e-01
3.151863199477518140e-01 5.737930567204259091e-01
3.162248251203573779e-01 4.122732487431726156e-01
3.172633302929629417e-01 3.291610191767837534e-01
3.183018354655685056e-01 2.721715019825232673e-01
3.193403406381740695e-01 3.136522813880624483e-01
3.203788458107796888e-01 3.271335039301703773e-01
3.214173509833852527e-01 2.657282434440695340e-01
3.224558561559907610e-01 2.369313728722239887e-01
3.234943613285963249e-01 2.690893767402755543e-01
3.245328665012019442e-01 2.927389811829392841e-01
3.255713716738075081e-01 3.316013802457540294e-01
3.266098768464130719e-01 3.625691352046160887e-01
3.276483820190186358e-01 2.811031796285874407e-01
3.286868871916241996e-01 2.160628560134156828e-01
3.297253923642297635e-01 2.386153063314857548e-01
3.307638975368353274e-01 2.896368721705329108e-01
3.318024027094408912e-01 3.031654014609586056e-01
3.328409078820464551e-01 3.752143166623902459e-01
3.338794130546520744e-01 3.060110975027612312e-01
3.349179182272576383e-01 2.702215871854178886e-01
3.359564233998632021e-01 2.785527245877581493e-01
3.369949285724687105e-01 2.809361927075322285e-01
3.380334337450743298e-01 2.777381824716904646e-01
3.390719389176798937e-01 2.973537788361575451e-01
3.401104440902854575e-01 2.647069340320875597e-01
3.411489492628910214e-01 3.077301035019601727e-01
3.421874544354965852e-01 3.105797426598293498e-01
3.432259596081022046e-01 3.025084452029567217e-01
3.442644647807077130e-01 2.529739146210410183e-01
3.453029699533132768e-01 1.736108722449323238e-01
3.463414751259188407e-01 2.175249426700176514e-01
3.473799802985244600e-01 1.994685828541946648e-01
3.484184854711300239e-01 2.159400829640922836e-01
3.494569906437355877e-01 2.718962774660731441e-01
3.504954958163411516e-01 2.428577308189368011e-01
3.515340009889467154e-01 1.848599972809878977e-01
3.525725061615522793e-01 1.824836063274695164e-01
3.536110113341578431e-01 1.678987903771584911e-01
3.546495165067634070e-01 1.935508818892799354e-01
3.556880216793689709e-01 2.168193814899161964e-01
3.567265268519745902e-01 1.895064471652148086e-01
3.577650320245801541e-01 1.846669360960753181e-01
3.588035371971856624e-01 1.872890983543769039e-01
3.598420423697912263e-01 2.358150302743453608e-01
3.608805475423968456e-01 2.235779835242297509e-01
3.619190527150024095e-01 2.051104884403933681e-01
3.629575578876079733e-01 1.442449889911934235e-01
3.639960630602135372e-01 2.105691341814477369e-01
3.650345682328191010e-01 1.956384575009728621e-01
3.660730734054246649e-01 2.196954092397618297e-01
3.671115785780302287e-01 1.921328829352617618e-01
3.681500837506357926e-01 1.686973846351982331e-01
3.691885889232413565e-01 1.714828372932970524e-01
3.702270940958469758e-01 1.641875571189359562e-01
3.712655992684525397e-01 1.878195242344418148e-01
3.723041044410581035e-01 1.864707747744702715e-01
3.733426096136636674e-01 1.172820219732599867e-01
3.743811147862692312e-01 1.413292329436082184e-01
3.754196199588747951e-01 1.817968803104186293e-01
3.764581251314803589e-01 2.019383653407125223e-01
3.774966303040859228e-01 1.571218583198685792e-01
3.785351354766914866e-01 1.736305857376443385e-01
3.795736406492971060e-01 2.011944672966343717e-01
3.806121458219026699e-01 1.705401407997868546e-01
3.816506509945081782e-01 1.854956078414460308e-01
3.826891561671137421e-01 1.133438280337806248e-01
3.837276613397193614e-01 1.034808115508454307e-01
3.847661665123249253e-01 1.646466172082021728e-01
3.858046716849304891e-01 1.528304588362132677e-01
3.868431768575360530e-01 1.534607381146564364e-01
3.878816820301416168e-01 1.251903537250989018e-01
3.889201872027471807e-01 1.624759062318048564e-01
3.899586923753527445e-01 1.097529533509273847e-01
3.909971975479583084e-01 1.121966472768747280e-01
3.920357027205638722e-01 1.400865444793204517e-01
3.930742078931694916e-01 1.505465856279002423e-01
3.941127130657750555e-01 8.912171315843053776e-02
3.951512182383806193e-01 1.305170750571313931e-01
3.961897234109861277e-01 1.709606116333972636e-01
3.972282285835917470e-01 1.337438705201634548e-01
3.982667337561973109e-01 1.179404933141654510e-01
3.993052389288028747e-01 1.131392822130479203e-01
4.003437441014084941e-01 9.922671473367117301e-02
4.013822492740140579e-01 7.532971553295197964e-02
4.024207544466196218e-01 1.376353871765516601e-01
4.034592596192252412e-01 1.300197281170945018e-01
4.044977647918308050e-01 1.089677551894290275e-01
4.055362699644363689e-01 7.809475137646515464e-02
4.065747751370419327e-01 9.646358331625748406e-02
4.076132803096474411e-01 1.195063090012240536e-01
4.086517854822530049e-01 1.337916409783410643e-01
4.096902906548585688e-01 8.568632172440615591e-02
4.107287958274641326e-01 3.792797544137727073e-02
4.117673010000697520e-01 9.508016808961627930e-02
4.128058061726753158e-01 9.741447187808915942e-02
4.138443113452808797e-01 5.968959400708229168e-02
4.148828165178864436e-01 9.841785853980056231e-02
4.159213216904920074e-01 1.218186307231121646e-01
4.169598268630976268e-01 1.078063466938559145e-01
4.179983320357031906e-01 9.317723543577827172e-02
4.190368372083087545e-01 1.187670546260477522e-01
4.200753423809143183e-01 7.343800330336236470e-02
4.211138475535198822e-01 1.225449215674707659e-01
4.221523527261253905e-01 8.188418535025121514e-02
4.231908578987309544e-01 1.031975367314821312e-01
4.242293630713365182e-01 1.488792379950680811e-01
4.252678682439421376e-01 1.690897435362721524e-01
4.263063734165477014e-01 1.339867575040649683e-01
4.273448785891532653e-01 1.461421376672795702e-01
4.283833837617588292e-01 1.385514035730537330e-01
4.294218889343643930e-01 1.054440154840747823e-01
4.304603941069700124e-01 1.340100140568871723e-01
4.314988992795755762e-01 1.378053416321449731e-01
4.325374044521811401e-01 9.748207200986058751e-02
4.335759096247867039e-01 7.070218750043721911e-02
4.346144147973922678e-01 1.103944136479491078e-01
4.356529199699978872e-01 1.011059435196735024e-01
4.366914251426033400e-01 1.035568577590488815e-01
4.377299303152089038e-01 1.194804580714965425e-01
4.387684354878145232e-01 8.483459494782152888e-02
4.398069406604200871e-01 1.055900678815220317e-01
4.408454458330256509e-01 9.176287844472597044e-02
4.418839510056312148e-01 6.645674739448637069e-02
4.429224561782367786e-01 7.443162857314433722e-02
4.439609613508423980e-01 8.982850790653529316e-02
