# q (1/Angstrom), Intensity (arb)
2.078726924066784734e-02 2.434244729724137528e+02
2.212838338006469993e-02 3.078398209184465486e+02
2.346949751946154905e-02 3.717185337664594158e+02
2.481061165885840164e-02 4.870590870572284530e+02
2.615172579825525423e-02 5.002628980847631510e+02
2.749283993765210335e-02 4.699006433742026729e+02
2.883395407704895941e-02 4.364257511912846894e+02
3.017506821644580506e-02 4.029476909570032603e+02
3.151618235584265765e-02 3.769369831239448558e+02
3.285729649523951718e-02 3.501972534317037002e+02
3.419841063463636283e-02 3.276866158096334516e+02
3.553952477403321542e-02 3.094729485699460270e+02
3.688063891343006800e-02 2.941112099541686007e+02
3.822175305282692059e-02 2.818997365762019172e+02
3.956286719222376624e-02 2.715270273693048466e+02
4.090398133162062577e-02 2.632078806531008013e+02
4.224509547101747142e-02 2.575099139946480591e+02
4.358620961041432401e-02 2.520692808326490706e+02
4.492732374981117660e-02 2.469236221425245503e+02
4.626843788920802919e-02 2.447009489831281144e+02
4.760955202860488178e-02 2.454260732582208675e+02
4.895066616800172743e-02 2.430801440000437594e+02
5.029178030739858696e-02 2.432428467682940720e+02
5.163289444679544649e-02 2.430835469889165665e+02
5.297400858619229214e-02 2.453639730145056319e+02
5.431512272558913779e-02 2.474254511173543278e+02
5.565623686498599731e-02 2.461030430287760851e+02
5.699735100438284990e-02 2.462822712803861407e+02
5.833846514377969555e-02 2.478032397777477627e+02
5.967957928317654814e-02 2.500770313395252344e+02
6.102069342257340767e-02 2.533130864515154599e+02
6.236180756197025332e-02 2.568877182233230201e+02
6.370292170136709897e-02 2.581008183425271341e+02
6.504403584076395850e-02 2.634679721150725413e+02
6.638514998016080415e-02 2.689012261237774624e+02
6.772626411955766368e-02 2.706566389462685720e+02
6.906737825895450933e-02 2.724361792804437528e+02
7.040849239835136886e-02 2.754862792349241545e+02
7.174960653774821451e-02 2.754708873312545165e+02
7.309072067714506016e-02 2.795315067356110035e+02
7.443183481654190581e-02 2.828138142760823257e+02
7.577294895593877921e-02 2.867141287349647314e+02
7.711406309533562486e-02 2.892209882106585042e+02
7.845517723473247051e-02 2.910738497468124706e+02
7.979629137412933004e-02 2.918999951502621570e+02
8.113740551352617569e-02 2.955661095673230534e+02
8.247851965292302134e-02 2.977111105125371182e+02
8.381963379231988087e-02 2.984194217061522068e+02
8.516074793171674040e-02 3.001796889744438772e+02
8.650186207111358605e-02 3.006848178074288285e+02
8.784297621051043170e-02 3.012497869045038215e+02
8.918409034990729123e-02 3.019621669487623876e+02
9.052520448930413688e-02 3.033818629231456043e+02
9.186631862870098253e-02 3.040640646655778028e+02
9.320743276809784206e-02 3.018525971058533059e+02
9.454854690749470159e-02 3.011329717841483102e+02
9.588966104689154724e-02 2.994391680512052289e+02
9.723077518628839289e-02 2.987808211044109044e+02
9.857188932568525241e-02 2.957489888438455523e+02
9.991300346508209806e-02 2.927640846468365226e+02
1.012541176044789437e-01 2.875889828929322221e+02
1.025952317438758032e-01 2.841629057044883666e+02
1.039363458832726350e-01 2.801876585784390272e+02
1.052774600226694945e-01 2.751984394598246126e+02
1.066185741620663541e-01 2.705630646216799278e+02
1.079596883014631858e-01 2.650457095085691890e+02
1.093008024408600454e-01 2.590702342261555486e+02
1.106419165802569049e-01 2.537079580346817238e+02
1.119830307196537506e-01 2.485781456047729137e+02
1.133241448590506101e-01 2.421418102194975006e+02
1.146652589984474419e-01 2.353513383916062480e+02
1.160063731378443014e-01 2.284396246687285839e+02
1.173474872772411609e-01 2.229026536849873992e+02
1.186886014166380066e-01 2.155929560799151830e+02
1.200297155560348661e-01 2.082003011906827226e+02
1.213708296954317256e-01 2.022343808303958212e+02
1.227119438348285574e-01 1.943823591268824202e+02
1.240530579742254169e-01 1.861233076260986365e+02
1.253941721136222764e-01 1.797222264166373975e+02
1.267352862530191082e-01 1.727869374783132344e+02
1.280764003924159677e-01 1.661016572544189955e+02
1.294175145318128273e-01 1.597866701849225137e+02
1.307586286712096590e-01 1.524785017206461077e+02
1.320997428106065186e-01 1.453443218273928892e+02
1.334408569500033781e-01 1.394326410214658267e+02
1.347819710894002376e-01 1.332187540900103500e+02
1.361230852287970972e-01 1.271748435059404585e+02
1.374641993681939289e-01 1.226508183373274790e+02
1.388053135075907885e-01 1.169875878535776650e+02
1.401464276469876480e-01 1.116774941793605933e+02
1.414875417863844798e-01 1.066645757582179925e+02
1.428286559257813393e-01 1.021792752286528696e+02
1.441697700651781988e-01 9.779093741047955746e+01
1.455108842045750306e-01 9.280353437858170196e+01
1.468519983439718901e-01 8.862269044609968205e+01
1.481931124833687219e-01 8.338944037734944459e+01
1.495342266227655814e-01 7.918657393483840679e+01
1.508753407621624687e-01 7.538591371154147680e+01
1.522164549015593005e-01 7.175002036743092049e+01
1.535575690409561600e-01 6.880919563988692289e+01
1.548986831803530195e-01 6.586737995086392061e+01
1.562397973197498513e-01 6.228074391919846420e+01
1.575809114591467108e-01 5.933684105976994516e+01
1.589220255985435704e-01 5.723051943223450877e+01
1.602631397379404021e-01 5.394853871895867314e+01
1.616042538773372617e-01 5.183139428772123836e+01
1.629453680167341212e-01 4.999340829086332860e+01
1.642864821561309530e-01 4.695408940991888613e+01
1.656275962955278125e-01 4.489973397768642371e+01
1.669687104349246720e-01 4.286223124693849940e+01
1.683098245743215315e-01 4.157287843603744903e+01
1.696509387137183911e-01 3.925569641417782663e+01
1.709920528531152228e-01 3.848061438869324036e+01
1.723331669925120824e-01 3.702315232949659674e+01
1.736742811319089419e-01 3.482660604137645066e+01
1.750153952713057737e-01 3.304051784847643347e+01
1.763565094107026332e-01 3.213593801191875343e+01
1.776976235500994927e-01 3.043411970065505301e+01
1.790387376894963245e-01 2.891516121737284806e+01
1.803798518288931840e-01 2.827050874015633752e+01
1.817209659682900158e-01 2.826482704609886554e+01
1.830620801076868753e-01 2.706701932166752300e+01
1.844031942470837349e-01 2.618757410663273077e+01
1.857443083864805944e-01 2.501111092877097519e+01
1.870854225258774539e-01 2.426324212193172514e+01
1.884265366652743134e-01 2.354116650899246821e+01
1.897676508046711452e-01 2.243424640610286502e+01
1.911087649440680047e-01 2.151362982486131159e+01
1.924498790834648643e-01 2.101419464367498335e+01
1.937909932228616960e-01 1.976265040672729612e+01
1.951321073622585556e-01 1.918953665127045127e+01
1.964732215016554151e-01 1.880601303555602755e+01
1.978143356410522469e-01 1.807548163797174823e+01
1.991554497804491064e-01 1.795131642499688240e+01
2.004965639198459382e-01 1.693908434559657650e+01
2.018376780592427977e-01 1.639524256026111715e+01
2.031787921986396572e-01 1.628282532578431585e+01
2.045199063380365168e-01 1.586148392916559402e+01
2.058610204774333763e-01 1.518561043788193388e+01
2.072021346168302081e-01 1.447020471506913708e+01
2.085432487562270676e-01 1.352596374685752068e+01
2.098843628956239271e-01 1.350919158018497512e+01
2.112254770350207866e-01 1.277607215542060004e+01
2.125665911744176462e-01 1.281557770429236598e+01
2.139077053138144502e-01 1.246418786802936296e+01
2.152488194532113097e-01 1.244734567363387612e+01
2.165899335926081692e-01 1.201469741419013104e+01
2.179310477320050288e-01 1.184786473582502708e+01
2.192721618714018883e-01 1.119564274501850321e+01
2.206132760107987478e-01 1.107376622269303823e+01
2.219543901501955796e-01 1.101480870493286801e+01
2.232955042895924391e-01 1.085655740259493740e+01
2.246366184289892987e-01 1.066749888193233176e+01
2.259777325683861582e-01 1.020974576609921769e+01
2.273188467077830177e-01 9.681629517775924398e+00
2.286599608471798217e-01 9.761591531915641440e+00
2.300010749865766813e-01 9.938371140817565674e+00
2.313421891259735408e-01 9.905876082712964603e+00
2.326833032653704003e-01 8.882130278754843289e+00
2.340244174047672598e-01 8.161687121479459961e+00
2.353655315441641194e-01 8.153878069336812473e+00
2.367066456835609234e-01 8.390572296601682467e+00
2.380477598229577829e-01 8.271566334388339214e+00
2.393888739623546424e-01 8.004003694982465333e+00
2.407299881017515020e-01 7.585047495448030475e+00
2.420711022411483615e-01 7.476163115356435185e+00
2.434122163805451933e-01 7.205581884341263788e+00
2.447533305199420528e-01 7.147280901782409046e+00
2.460944446593389123e-01 7.242674549810701023e+00
2.474355587987357719e-01 7.121198926225972059e+00
2.487766729381326314e-01 6.990215970021537828e+00
2.501177870775294632e-01 6.904305523613665230e+00
2.514589012169263227e-01 6.731680841584100961e+00
2.528000153563231822e-01 6.314367985277819173e+00
2.541411294957200417e-01 6.085016016040775355e+00
2.554822436351169013e-01 5.808822263970135680e+00
2.568233577745137608e-01 6.068739234453893516e+00
2.581644719139106203e-01 5.892496410588428546e+00
2.595055860533074243e-01 5.295513215143202501e+00
2.608467001927042839e-01 5.646190389033158397e+00
2.621878143321011434e-01 5.651271458094079492e+00
2.635289284714980029e-01 5.422207309052836877e+00
2.648700426108948625e-01 4.857275102359935204e+00
2.662111567502916665e-01 5.130865200041782259e+00
2.675522708896885260e-01 5.265814836445422031e+00
2.688933850290853855e-01 4.824057429158855825e+00
2.702344991684822451e-01 4.488504713671126467e+00
2.715756133078791046e-01 4.556590235610329387e+00
2.729167274472759641e-01 4.677393224236794822e+00
2.742578415866727681e-01 4.085557863682595325e+00
2.755989557260696277e-01 4.061090716077103480e+00
2.769400698654664872e-01 4.365458272956104224e+00
2.782811840048633467e-01 4.581759999370781600e+00
2.796222981442602062e-01 4.302630191010337057e+00
2.809634122836570103e-01 4.184282001684543673e+00
2.823045264230538698e-01 4.001033984165800916e+00
2.836456405624507293e-01 3.623349266110423628e+00
2.849867547018475888e-01 3.357946249617320689e+00
2.863278688412444484e-01 3.408382722940658027e+00
2.876689829806413079e-01 3.417823798107342270e+00
2.890100971200381674e-01 3.775200867719448183e+00
2.903512112594350270e-01 3.795638949298826503e+00
2.916923253988318865e-01 3.673036345998283991e+00
2.930334395382287460e-01 3.247773437898757720e+00
2.943745536776256055e-01 2.931121574217733894e+00
2.957156678170224096e-01 3.195170293352724400e+00
2.970567819564192691e-01 3.290339922454656119e+00
2.983978960958161286e-01 3.203486572134707444e+00
2.997390102352129881e-01 2.835907540231481505e+00
3.010801243746098477e-01 3.213794848943109628e+00
3.024212385140067072e-01 2.950900425124174831e+00
3.037623526534035112e-01 2.680262634740060435e+00
3.051034667928003707e-01 2.771320390579298021e+00
3.064445809321972303e-01 2.520259355112997923e+00
3.077856950715940898e-01 2.941469556716285183e+00
3.091268092109909493e-01 2.718421922746529162e+00
3.104679233503877533e-01 2.457730452614306671e+00
3.118090374897846129e-01 2.225927338493718821e+00
3.131501516291814724e-01 2.236210225705193011e+00
3.144912657685783319e-01 2.233201013983283190e+00
3.158323799079751915e-01 2.514357935163737068e+00
3.171734940473720510e-01 2.498526527258022156e+00
3.185146081867689105e-01 2.144629180819343617e+00
3.198557223261657700e-01 1.864717545347694738e+00
3.211968364655626296e-01 2.732842487674972176e+00
3.225379506049594891e-01 2.684833612049303042e+00
3.238790647443563486e-01 2.045570480503783983e+00
3.252201788837532082e-01 1.915127647739936378e+00
3.265612930231500122e-01 1.926049815087282013e+00
3.279024071625468717e-01 2.012969539475115255e+00
3.292435213019437312e-01 1.735538428868267147e+00
3.305846354413405908e-01 1.639945715472507004e+00
3.319257495807374503e-01 2.053910241095799449e+00
3.332668637201342543e-01 1.879670787480499428e+00
3.346079778595311138e-01 1.796036726262251193e+00
3.359490919989279734e-01 1.603139329899477161e+00
3.372902061383248329e-01 1.789403901678376485e+00
3.386313202777216924e-01 1.718252754007771443e+00
3.399724344171185519e-01 1.631592765410040613e+00
3.413135485565153560e-01 1.751371229437545196e+00
3.426546626959122155e-01 1.818733189659646143e+00
3.439957768353090750e-01 1.513424293084014494e+00
3.453368909747059345e-01 1.752941765584544953e+00
3.466780051141027941e-01 1.785478910727256618e+00
3.480191192534995981e-01 1.546118437269079493e+00
3.493602333928964576e-01 1.395792413901347118e+00
3.507013475322933171e-01 1.502792107541047528e+00
3.520424616716901767e-01 1.200868397007340604e+00
3.533835758110870362e-01 9.242701895667693179e-01
3.547246899504838957e-01 8.654612534753383102e-01
3.560658040898807553e-01 1.132010733483916454e+00
3.574069182292776148e-01 1.212841065740391855e+00
3.587480323686744743e-01 1.459089582517322015e+00
3.600891465080713338e-01 1.180996931971328934e+00
3.614302606474681934e-01 1.122628403167198030e+00
3.627713747868649974e-01 1.088690339431600762e+00
3.641124889262618569e-01 1.152298967406331087e+00
3.654536030656587164e-01 1.513819788184868287e+00
3.667947172050555760e-01 1.049444495182861203e+00
3.681358313444524355e-01 5.890859089156421646e-01
3.694769454838492950e-01 5.953773816657701445e-01
3.708180596232460990e-01 9.492061822715456287e-01
3.721591737626429586e-01 8.866376918281062558e-01
3.735002879020398181e-01 9.565626729148206664e-01
3.748414020414366776e-01 9.906909731229873728e-01
3.761825161808335372e-01 9.359186386599205321e-01
3.775236303202303967e-01 1.034841997548511472e+00
3.788647444596272007e-01 8.740206910215846392e-01
3.802058585990240602e-01 1.064116015940811621e+00
3.815469727384209198e-01 1.110057663272840500e+00
3.828880868778177793e-01 8.519552198527549081e-01
3.842292010172146388e-01 7.436213960002788781e-01
3.855703151566114428e-01 6.674035715789017331e-01
3.869114292960083024e-01 5.973546898983528308e-01
3.882525434354051619e-01 4.684646471199798157e-01
3.895936575748020214e-01 8.582762695696501964e-01
3.909347717141988809e-01 1.151943909590954718e+00
3.922758858535957405e-01 6.858891749130791027e-01
3.936169999929926000e-01 8.312446607128975984e-01
3.949581141323894595e-01 7.058966093290166555e-01
3.962992282717863191e-01 6.530873554359288846e-01
3.976403424111831786e-01 6.669172919484296358e-01
3.989814565505800381e-01 4.192308274840925719e-01
4.003225706899768976e-01 4.038753043639928819e-01
4.016636848293737572e-01 8.025823986949305322e-01
4.030047989687706167e-01 6.193931096031519701e-01
4.043459131081674207e-01 8.079877039364902203e-01
4.056870272475643358e-01 6.228087305293001918e-01
4.070281413869611398e-01 7.385613807685800225e-01
4.083692555263580548e-01 6.085815934795064663e-01
4.097103696657548588e-01 5.527167072609131537e-01
4.110514838051517739e-01 8.268979117210761842e-01
4.123925979445485779e-01 2.023783607583879984e-01
4.137337120839453819e-01 4.737329050271412711e-01
4.150748262233422969e-01 9.781827720225351186e-01
4.164159403627391010e-01 8.878819896516390031e-01
4.177570545021360160e-01 4.613161687384845777e-01
4.190981686415328200e-01 4.891620269523642150e-01
4.204392827809296240e-01 8.786895294941530210e-01
4.217803969203265391e-01 1.007783949460872464e+00
4.231215110597233431e-01 6.848209252813575176e-01
4.244626251991202581e-01 7.956120426524151412e-01
4.258037393385170621e-01 9.743034109671242504e-01
4.271448534779138662e-01 5.834742618321371310e-01
4.284859676173107812e-01 3.464445147297894323e-01
4.298270817567075852e-01 3.931771228091918147e-01
4.311681958961045003e-01 4.995379592423248027e-01
4.325093100355013043e-01 6.270299293294812060e-01
4.338504241748981638e-01 5.156770601987119562e-01
4.351915383142950233e-01 4.977931174421570404e-01
4.365326524536918829e-01 4.092328670791687273e-01
4.378737665930887424e-01 5.683849067380819520e-01
4.392148807324856019e-01 5.240154113541990455e-01
4.405559948718824614e-01 5.992257921532626597e-01
4.418971090112793210e-01 6.293317342888258281e-01
4.432382231506761250e-01 8.045641229764868285e-01
4.445793372900730400e-01 7.466389094228915724e-01
4.459204514294698440e-01 4.769522706434017323e-01
4.472615655688667591e-01 7.205247289690817070e-01
4.486026797082635631e-01 6.572108714951880870e-01
4.499437938476603671e-01 6.190077728533651680e-01
4.512849079870572822e-01 4.110517678271463637e-01
4.526260221264540862e-01 4.648980185731517167e-01
4.539671362658510012e-01 5.686791753758768664e-01
4.553082504052478052e-01 5.036511599290278696e-01
4.566493645446446092e-01 5.278298130069316585e-01
4.579904786840415243e-01 3.507729849453511406e-01
4.593315928234383283e-01 7.296475817218492921e-01
4.606727069628352433e-01 6.913115816120551926e-01
4.620138211022320474e-01 4.804009595945331057e-01
4.633549352416289624e-01 4.675729768764327332e-01
4.646960493810257664e-01 7.944016764894996641e-01
4.660371635204225704e-01 4.023204274943665837e-01
4.673782776598194855e-01 3.016694116383220603e-01
4.687193917992162895e-01 5.670074389059109876e-01
4.700605059386132045e-01 4.637207142308028551e-01
4.714016200780100085e-01 2.483811655546261932e-01
4.727427342174068681e-01 1.562363558815320630e-01
4.740838483568037276e-01 1.803797757020078052e-01
4.754249624962005871e-01 3.914039325663338786e-01
4.767660766355974467e-01 2.885981663216981019e-01
4.781071907749943062e-01 3.196919475146273726e-01
4.794483049143911102e-01 1.884031851349732278e-02
4.807894190537880252e-01 1.957277482403156910e-01
4.821305331931848293e-01 2.215113757214979273e-01
4.834716473325817443e-01 2.100566711490401417e-01
4.848127614719785483e-01 4.971433312147865990e-01
4.861538756113753523e-01 6.599197908447393957e-01
4.874949897507722674e-01 6.972496592904420254e-01
4.888361038901690714e-01 8.472248856200792488e-01
4.901772180295659864e-01 4.796404949720312061e-01
4.915183321689627904e-01 5.265183258570758085e-01
4.928594463083597055e-01 1.505165316581695834e-01
4.942005604477565095e-01 1.761202827577790231e-01
4.955416745871533135e-01 2.381402406977315422e-01
4.968827887265502286e-01 3.155577378414307077e-01
4.982239028659470326e-01 1.215121039293194372e-01
4.995650170053439476e-01 4.862017598748025193e-01
5.009061311447408071e-01 6.681160565554336017e-01
5.022472452841375556e-01 5.146131699967284590e-01
5.035883594235345262e-01 3.291211527111812529e-01
5.049294735629312747e-01 3.671731520027350371e-01
5.062705877023282452e-01 4.548197031970175885e-01
5.076117018417249938e-01 5.453389651466054033e-01
5.089528159811218533e-01 5.192068575195989411e-01
5.102939301205187128e-01 3.345610663763309844e-01
5.116350442599155723e-01 1.162772675090195662e-01
5.129761583993124319e-01 4.362399559467888821e-02
5.143172725387092914e-01 2.691350168333883630e-01
5.156583866781061509e-01 3.031326108981602374e-01
5.169995008175030105e-01 3.900439106581004012e-01
5.183406149568997590e-01 4.774243015515935440e-01
5.196817290962967295e-01 6.267371842246589608e-01
5.210228432356934780e-01 5.890348030072232177e-01
5.223639573750904486e-01 2.586590388224934145e-01
5.237050715144871971e-01 3.333218085961533461e-01
5.250461856538840566e-01 1.895214321706646388e-01
5.263872997932809161e-01 5.751502809513695524e-01
5.277284139326777757e-01 3.108711992983543837e-01
5.290695280720746352e-01 1.693578647083171518e-02
5.304106422114714947e-01 2.721616795312939985e-01
5.317517563508683542e-01 2.032179986625806123e-01
5.330928704902652138e-01 7.714637848392413844e-02
5.344339846296620733e-01 1.720450581176393712e-01
5.357750987690589328e-01 3.511731510997435635e-01
5.371162129084557924e-01 4.201508833564844281e-01
5.384573270478525409e-01 1.394392982164447403e-01
5.397984411872495114e-01 8.810914653125934137e-02
5.411395553266462599e-01 1.205406589379052207e-01
5.424806694660432305e-01 2.918198261068809529e-01
5.438217836054399790e-01 3.911415824002588693e-01
5.451628977448369495e-01 1.249522712419448567e-01
5.465040118842336980e-01 4.309230540231823170e-02
5.478451260236305576e-01 6.324383050973381160e-02
5.491862401630274171e-01 1.922141944408508607e-01
5.505273543024242766e-01 1.707953725103124043e-01
5.518684684418211361e-01 2.300152766960223971e-01
5.532095825812179957e-01 3.234339846197471502e-01
5.545506967206147442e-01 4.568169154297407886e-01
