# q (1/Angstrom), Intensity (arb)
2.078726924066784734e-02 2.453916929544861887e+02
2.212838338006469993e-02 3.193771025061107594e+02
2.346949751946154905e-02 3.803941629453772748e+02
2.481061165885840164e-02 4.951697982829300031e+02
2.615172579825525423e-02 5.136443087121357394e+02
2.749283993765210335e-02 4.826273037131322212e+02
2.883395407704895941e-02 4.505464222485741743e+02
3.017506821644580506e-02 4.220311439223473826e+02
3.151618235584265765e-02 3.896888502590996950e+02
3.285729649523951718e-02 3.585271538476256978e+02
3.419841063463636283e-02 3.376572186429324347e+02
3.553952477403321542e-02 3.223103619469921455e+02
3.688063891343006800e-02 3.076594386662749798e+02
3.822175305282692059e-02 2.939976674693373297e+02
3.956286719222376624e-02 2.856603820062986188e+02
4.090398133162062577e-02 2.776077557409074075e+02
4.224509547101747142e-02 2.710557724219140709e+02
4.358620961041432401e-02 2.646529164882845180e+02
4.492732374981117660e-02 2.615642713195468332e+02
4.626843788920802919e-02 2.590817985646197599e+02
4.760955202860488178e-02 2.586089335685398396e+02
4.895066616800172743e-02 2.574540718673458741e+02
5.029178030739858696e-02 2.575912971686194055e+02
5.163289444679544649e-02 2.572838001096390599e+02
5.297400858619229214e-02 2.590187012942307661e+02
5.431512272558913779e-02 2.600098907549606793e+02
5.565623686498599731e-02 2.603190284754691675e+02
5.699735100438284990e-02 2.610561077358736952e+02
5.833846514377969555e-02 2.651781653433717452e+02
5.967957928317654814e-02 2.655749664113566268e+02
6.102069342257340767e-02 2.688030043692854747e+02
6.236180756197025332e-02 2.732911978270256554e+02
6.370292170136709897e-02 2.762992581847876181e+02
6.504403584076395850e-02 2.789729216283631672e+02
6.638514998016080415e-02 2.800817061834946458e+02
6.772626411955766368e-02 2.821842977971722917e+02
6.906737825895450933e-02 2.854608046965829544e+02
7.040849239835136886e-02 2.904124244350386448e+02
7.174960653774821451e-02 2.930321184652129887e+02
7.309072067714506016e-02 2.978627186425167110e+02
7.443183481654190581e-02 2.991553722038503338e+02
7.577294895593877921e-02 3.014676000457828877e+02
7.711406309533562486e-02 3.039894043003590127e+02
7.845517723473247051e-02 3.053999010168706718e+02
7.979629137412933004e-02 3.055710353451123638e+02
8.113740551352617569e-02 3.084416082692330292e+02
8.247851965292302134e-02 3.102459668535605033e+02
8.381963379231988087e-02 3.117033575372834093e+02
8.516074793171674040e-02 3.127207924617717367e+02
8.650186207111358605e-02 3.145007858897080837e+02
8.784297621051043170e-02 3.144343681495394094e+02
8.918409034990729123e-02 3.133073518036962923e+02
9.052520448930413688e-02 3.140165200830961112e+02
9.186631862870098253e-02 3.116034242647840529e+02
9.320743276809784206e-02 3.091288692818700952e+02
9.454854690749470159e-02 3.087751042189543682e+02
9.588966104689154724e-02 3.068047529549230603e+02
9.723077518628839289e-02 3.038301344053462572e+02
9.857188932568525241e-02 3.007273489800763855e+02
9.991300346508209806e-02 2.964093075677265574e+02
1.012541176044789437e-01 2.930763626447603087e+02
1.025952317438758032e-01 2.893392675733093711e+02
1.039363458832726350e-01 2.836043325656655156e+02
1.052774600226694945e-01 2.783962165000114624e+02
1.066185741620663541e-01 2.739918337129405472e+02
1.079596883014631858e-01 2.676483743602409504e+02
1.093008024408600454e-01 2.600411058940103999e+02
1.106419165802569049e-01 2.543564060776751887e+02
1.119830307196537506e-01 2.488588882049638755e+02
1.133241448590506101e-01 2.416142033327847116e+02
1.146652589984474419e-01 2.342586690483243217e+02
1.160063731378443014e-01 2.271466787763710045e+02
1.173474872772411609e-01 2.206585323204350857e+02
1.186886014166380066e-01 2.131654378299163000e+02
1.200297155560348661e-01 2.051292646990040112e+02
1.213708296954317256e-01 1.975258462991483270e+02
1.227119438348285574e-01 1.903538561143833192e+02
1.240530579742254169e-01 1.829927442249019691e+02
1.253941721136222764e-01 1.755913881380916735e+02
1.267352862530191082e-01 1.684743334269128354e+02
1.280764003924159677e-01 1.620212543314893310e+02
1.294175145318128273e-01 1.552001175141728027e+02
1.307586286712096590e-01 1.482876958608026143e+02
1.320997428106065186e-01 1.420448117517251490e+02
1.334408569500033781e-01 1.350111825822316689e+02
1.347819710894002376e-01 1.295302731826708964e+02
1.361230852287970972e-01 1.230245046103173365e+02
1.374641993681939289e-01 1.168967120184352950e+02
1.388053135075907885e-01 1.118252929118951045e+02
1.401464276469876480e-01 1.071328465548733675e+02
1.414875417863844798e-01 1.024638924036780594e+02
1.428286559257813393e-01 9.725974239939608879e+01
1.441697700651781988e-01 9.236700756863118045e+01
1.455108842045750306e-01 8.761682640863669747e+01
1.468519983439718901e-01 8.330804389672790933e+01
1.481931124833687219e-01 7.919124476109229249e+01
1.495342266227655814e-01 7.523422026565074816e+01
1.508753407621624687e-01 7.204450479759499615e+01
1.522164549015593005e-01 6.896302192414290744e+01
1.535575690409561600e-01 6.676711222721675654e+01
1.548986831803530195e-01 6.358724773485729997e+01
1.562397973197498513e-01 5.982647819832918401e+01
1.575809114591467108e-01 5.586620672591168102e+01
1.589220255985435704e-01 5.377297575247617090e+01
1.602631397379404021e-01 5.184899901474572914e+01
1.616042538773372617e-01 4.856230288705646814e+01
1.629453680167341212e-01 4.655048675120516322e+01
1.642864821561309530e-01 4.422163945801252538e+01
1.656275962955278125e-01 4.222877290160442953e+01
1.669687104349246720e-01 4.049695182708659047e+01
1.683098245743215315e-01 3.881391023188719913e+01
1.696509387137183911e-01 3.795960025439227081e+01
1.709920528531152228e-01 3.631151925610743092e+01
1.723331669925120824e-01 3.417565050812945771e+01
1.736742811319089419e-01 3.287737771707833900e+01
1.750153952713057737e-01 3.223693740703683375e+01
1.763565094107026332e-01 3.104361240989547355e+01
1.776976235500994927e-01 2.955671947160166013e+01
1.790387376894963245e-01 2.816422482758922996e+01
1.803798518288931840e-01 2.743575647979234589e+01
1.817209659682900158e-01 2.604497740439543918e+01
1.830620801076868753e-01 2.527906056557797854e+01
1.844031942470837349e-01 2.439731706177126114e+01
1.857443083864805944e-01 2.368861815017408645e+01
1.870854225258774539e-01 2.269375898423491122e+01
1.884265366652743134e-01 2.189008049678491119e+01
1.897676508046711452e-01 2.071728611201009329e+01
1.911087649440680047e-01 1.979730199747384489e+01
1.924498790834648643e-01 1.989781438011058157e+01
1.937909932228616960e-01 1.959638352987778376e+01
1.951321073622585556e-01 1.860244285341060078e+01
1.964732215016554151e-01 1.740196051103786345e+01
1.978143356410522469e-01 1.724937210437192192e+01
1.991554497804491064e-01 1.709659937033660526e+01
2.004965639198459382e-01 1.633643934136377851e+01
2.018376780592427977e-01 1.627965154321406516e+01
2.031787921986396572e-01 1.588418349523750805e+01
2.045199063380365168e-01 1.517628800129513422e+01
2.058610204774333763e-01 1.502323759902428435e+01
2.072021346168302081e-01 1.450462098219754381e+01
2.085432487562270676e-01 1.408864714474763247e+01
2.098843628956239271e-01 1.302587898251632481e+01
2.112254770350207866e-01 1.256017138161080027e+01
2.125665911744176462e-01 1.288194545387090528e+01
2.139077053138144502e-01 1.276983425746126954e+01
2.152488194532113097e-01 1.211308353850513697e+01
2.165899335926081692e-01 1.173617811918889231e+01
2.179310477320050288e-01 1.116043262034592942e+01
2.192721618714018883e-01 1.090248355042264450e+01
2.206132760107987478e-01 1.076942282581087795e+01
2.219543901501955796e-01 1.129584244932991766e+01
2.232955042895924391e-01 1.108508583663553537e+01
2.246366184289892987e-01 1.034853392156473717e+01
2.259777325683861582e-01 9.902840733436441667e+00
2.273188467077830177e-01 9.555678783028604073e+00
2.286599608471798217e-01 9.072362344639053333e+00
2.300010749865766813e-01 8.824037119332288626e+00
2.313421891259735408e-01 8.787716778506379001e+00
2.326833032653704003e-01 9.024443877128909719e+00
2.340244174047672598e-01 9.224650424039033680e+00
2.353655315441641194e-01 8.779768411571929221e+00
2.367066456835609234e-01 8.459191227724538464e+00
2.380477598229577829e-01 8.450118274441400956e+00
2.393888739623546424e-01 8.224529474431328424e+00
2.407299881017515020e-01 7.503233859636793568e+00
2.420711022411483615e-01 7.561983201624805417e+00
2.434122163805451933e-01 7.300478910484741846e+00
2.447533305199420528e-01 7.443719533393242216e+00
2.460944446593389123e-01 7.418759229611389117e+00
2.474355587987357719e-01 7.702299885605775387e+00
2.487766729381326314e-01 6.974604790343143179e+00
2.501177870775294632e-01 6.692700643422625717e+00
2.514589012169263227e-01 6.548094830378460074e+00
2.528000153563231822e-01 6.309405190458612367e+00
2.541411294957200417e-01 6.489663263153751416e+00
2.554822436351169013e-01 6.265813482143848034e+00
2.568233577745137608e-01 6.381115499738747587e+00
2.581644719139106203e-01 6.026631401575905045e+00
2.595055860533074243e-01 6.166512867758420668e+00
2.608467001927042839e-01 5.849439873530180023e+00
2.621878143321011434e-01 5.473753748420683962e+00
2.635289284714980029e-01 5.397458043852019216e+00
2.648700426108948625e-01 5.294434014312237480e+00
2.662111567502916665e-01 5.265502970000532912e+00
2.675522708896885260e-01 5.380911944897150079e+00
2.688933850290853855e-01 4.740631304291582637e+00
2.702344991684822451e-01 4.327159051780327559e+00
2.715756133078791046e-01 4.011808606683501921e+00
2.729167274472759641e-01 4.367768934234035783e+00
2.742578415866727681e-01 4.653111083785695712e+00
2.755989557260696277e-01 4.264256686054466172e+00
2.769400698654664872e-01 3.691727636282067238e+00
2.782811840048633467e-01 3.921523767453493292e+00
2.796222981442602062e-01 3.795906028973732305e+00
2.809634122836570103e-01 3.987971704642149007e+00
2.823045264230538698e-01 3.853243252772280414e+00
2.836456405624507293e-01 3.661662340042795449e+00
2.849867547018475888e-01 3.309333539288275006e+00
2.863278688412444484e-01 3.492523907764230273e+00
2.876689829806413079e-01 3.386341913399434134e+00
2.890100971200381674e-01 3.734697357302081855e+00
2.903512112594350270e-01 3.631713803704869292e+00
2.916923253988318865e-01 3.565057474103873858e+00
2.930334395382287460e-01 3.201423601190640511e+00
2.943745536776256055e-01 3.554265839176650843e+00
2.957156678170224096e-01 3.167195501159888238e+00
2.970567819564192691e-01 3.234447032833166702e+00
2.983978960958161286e-01 2.876630719827822702e+00
2.997390102352129881e-01 2.852128655665239876e+00
3.010801243746098477e-01 2.879835730400884586e+00
3.024212385140067072e-01 3.135946868956857259e+00
3.037623526534035112e-01 3.051908658289782750e+00
3.051034667928003707e-01 2.691429723746004754e+00
3.064445809321972303e-01 2.698520862488550165e+00
3.077856950715940898e-01 2.651905331330581816e+00
3.091268092109909493e-01 2.493387832621486666e+00
3.104679233503877533e-01 2.755990678187281162e+00
3.118090374897846129e-01 2.559560277913611515e+00
3.131501516291814724e-01 2.453397216413769399e+00
3.144912657685783319e-01 2.397738108191447282e+00
3.158323799079751915e-01 2.336732353067546342e+00
3.171734940473720510e-01 2.357302970731169012e+00
3.185146081867689105e-01 2.329687300171904951e+00
3.198557223261657700e-01 2.173118854158310853e+00
3.211968364655626296e-01 2.100147444363784643e+00
3.225379506049594891e-01 2.374273243963628488e+00
3.238790647443563486e-01 1.948832138368786104e+00
3.252201788837532082e-01 1.811234805772208745e+00
3.265612930231500122e-01 2.258813784832867100e+00
3.279024071625468717e-01 2.075938551420193789e+00
3.292435213019437312e-01 1.741184627950765673e+00
3.305846354413405908e-01 1.705029008210992458e+00
3.319257495807374503e-01 2.098230074040003501e+00
3.332668637201342543e-01 2.205772512970604282e+00
3.346079778595311138e-01 1.896762184374352955e+00
3.359490919989279734e-01 2.050380548341621534e+00
3.372902061383248329e-01 2.102690778642504199e+00
3.386313202777216924e-01 1.957115921074368714e+00
3.399724344171185519e-01 2.095949005820131106e+00
3.413135485565153560e-01 1.744854296082344547e+00
3.426546626959122155e-01 2.151781270167376192e+00
3.439957768353090750e-01 2.042158405491008466e+00
3.453368909747059345e-01 1.434852682503446886e+00
3.466780051141027941e-01 1.204133248085661023e+00
3.480191192534995981e-01 9.784434884749657613e-01
3.493602333928964576e-01 8.625792772086029458e-01
3.507013475322933171e-01 1.526173180467743862e+00
3.520424616716901767e-01 1.316650037662668637e+00
3.533835758110870362e-01 1.495907654050363078e+00
3.547246899504838957e-01 1.517848074420946602e+00
3.560658040898807553e-01 1.346359829511897033e+00
3.574069182292776148e-01 1.362111783756517980e+00
3.587480323686744743e-01 1.317306233984666619e+00
3.600891465080713338e-01 8.819776679721726964e-01
3.614302606474681934e-01 1.174837806438958410e+00
3.627713747868649974e-01 1.485756082619516860e+00
3.641124889262618569e-01 1.698348072086666605e+00
3.654536030656587164e-01 1.492566353997247575e+00
3.667947172050555760e-01 1.181637000172180763e+00
3.681358313444524355e-01 1.105702852027512506e+00
3.694769454838492950e-01 9.398299336821480665e-01
3.708180596232460990e-01 1.174977585325130747e+00
3.721591737626429586e-01 1.381690072603610986e+00
3.735002879020398181e-01 1.698306291075411423e+00
3.748414020414366776e-01 1.721933927598932712e+00
3.761825161808335372e-01 1.366755502417213108e+00
3.775236303202303967e-01 1.004943371008373276e+00
3.788647444596272007e-01 8.317121818312500636e-01
3.802058585990240602e-01 9.001191972780091533e-01
3.815469727384209198e-01 1.249013977296137057e+00
3.828880868778177793e-01 1.205134170464113197e+00
3.842292010172146388e-01 1.040804257757343976e+00
3.855703151566114428e-01 8.542536310669532895e-01
3.869114292960083024e-01 9.020171787276538566e-01
3.882525434354051619e-01 1.079947293796557517e+00
3.895936575748020214e-01 9.353130436970076289e-01
3.909347717141988809e-01 5.543860750284679284e-01
3.922758858535957405e-01 8.459997436504238522e-01
3.936169999929926000e-01 9.097229474182455533e-01
3.949581141323894595e-01 5.399934529008092454e-01
3.962992282717863191e-01 6.185071938171020633e-01
3.976403424111831786e-01 8.345086524320137755e-01
3.989814565505800381e-01 5.818931675664416048e-01
4.003225706899768976e-01 4.373959060023366874e-01
4.016636848293737572e-01 9.920795847717798210e-01
4.030047989687706167e-01 9.668538631156380347e-01
4.043459131081674207e-01 4.942313320258975295e-01
4.056870272475643358e-01 4.027043489562913692e-01
4.070281413869611398e-01 4.648754266886641062e-01
4.083692555263580548e-01 9.042837219761779011e-01
4.097103696657548588e-01 1.099711490923525048e+00
4.110514838051517739e-01 8.083592331994751135e-01
4.123925979445485779e-01 7.007377287303739877e-01
4.137337120839453819e-01 5.528927576739164351e-01
4.150748262233422969e-01 4.869232612314817743e-01
4.164159403627391010e-01 7.203553457668689930e-01
4.177570545021360160e-01 6.451704333235213085e-01
4.190981686415328200e-01 5.332831047113799627e-01
4.204392827809296240e-01 7.502728342384941129e-01
4.217803969203265391e-01 4.916413881374523953e-01
4.231215110597233431e-01 7.643639741615970706e-01
4.244626251991202581e-01 7.380631324168049900e-01
4.258037393385170621e-01 5.450686064440333212e-01
4.271448534779138662e-01 8.995231851747860219e-01
4.284859676173107812e-01 6.547668883809834028e-01
4.298270817567075852e-01 5.979544996410055546e-01
4.311681958961045003e-01 5.656203627071150208e-01
4.325093100355013043e-01 5.102078203896240893e-01
4.338504241748981638e-01 6.132180174611434609e-01
4.351915383142950233e-01 9.089270491428109722e-01
4.365326524536918829e-01 1.172416918960450971e+00
4.378737665930887424e-01 1.029467762243037043e+00
4.392148807324856019e-01 4.864434394204479872e-01
4.405559948718824614e-01 2.775791220605157150e-01
4.418971090112793210e-01 6.652711692417909717e-01
4.432382231506761250e-01 9.770790904019222012e-01
4.445793372900730400e-01 6.197600634688313903e-01
4.459204514294698440e-01 2.686120075288158660e-01
4.472615655688667591e-01 6.318925722888124596e-01
4.486026797082635631e-01 7.685374718523476645e-01
4.499437938476603671e-01 7.605154278580030791e-01
4.512849079870572822e-01 6.808128244001636631e-01
4.526260221264540862e-01 4.427661742720871985e-01
4.539671362658510012e-01 5.688265145214472795e-01
4.553082504052478052e-01 4.869056164835541267e-01
4.566493645446446092e-01 4.380437697587069579e-01
4.579904786840415243e-01 5.133039709474473966e-01
4.593315928234383283e-01 5.746083664338286212e-01
4.606727069628352433e-01 5.687013389640753758e-01
4.620138211022320474e-01 9.506100721276666832e-01
4.633549352416289624e-01 9.128721541914686100e-01
4.646960493810257664e-01 8.209284456284748899e-01
4.660371635204225704e-01 8.492361487977575507e-01
4.673782776598194855e-01 6.442689461685304764e-01
4.687193917992162895e-01 4.147617373044312217e-01
4.700605059386132045e-01 4.618406705465787354e-01
4.714016200780100085e-01 5.808156049752852823e-01
4.727427342174068681e-01 4.799811831231579617e-01
4.740838483568037276e-01 1.642136561284530671e-01
4.754249624962005871e-01 4.133904160531187699e-01
4.767660766355974467e-01 5.306805171459174630e-01
4.781071907749943062e-01 3.493128678671197918e-01
4.794483049143911102e-01 6.267514526896604821e-01
4.807894190537880252e-01 6.422072755403007704e-01
4.821305331931848293e-01 6.596161571666243617e-01
4.834716473325817443e-01 6.835314867370954062e-01
4.848127614719785483e-01 5.658018641908597601e-01
4.861538756113753523e-01 4.353863866464209309e-01
4.874949897507722674e-01 6.157111481716057710e-01
4.888361038901690714e-01 6.416660346962359540e-01
4.901772180295659864e-01 6.055176150224994558e-01
4.915183321689627904e-01 5.284787082381185996e-01
4.928594463083597055e-01 5.042227933697986941e-01
4.942005604477565095e-01 5.688033001504777530e-02
4.955416745871533135e-01 3.277350171537491974e-01
4.968827887265502286e-01 5.537592741178372080e-01
4.982239028659470326e-01 4.172823352658028284e-01
4.995650170053439476e-01 6.319390335822134830e-01
5.009061311447408071e-01 3.536584684257704225e-01
5.022472452841375556e-01 2.690529023037910861e-01
5.035883594235345262e-01 3.180051046730341113e-01
5.049294735629312747e-01 5.024808806202187839e-01
5.062705877023282452e-01 5.913551397059322312e-01
5.076117018417249938e-01 8.488457384851457732e-01
5.089528159811218533e-01 1.015158837712519357e+00
5.102939301205187128e-01 7.069662667105305331e-01
5.116350442599155723e-01 6.104085052043402015e-01
5.129761583993124319e-01 4.450520425745452258e-01
5.143172725387092914e-01 4.398079724139307700e-01
5.156583866781061509e-01 6.032934214553975494e-01
5.169995008175030105e-01 6.381055754637685595e-01
5.183406149568997590e-01 6.874081882336611216e-01
5.196817290962967295e-01 8.506144672646698268e-01
5.210228432356934780e-01 7.562389300732448305e-01
5.223639573750904486e-01 7.065945079020323760e-01
5.237050715144871971e-01 3.281843627440679256e-01
5.250461856538840566e-01 4.290180829758227787e-01
5.263872997932809161e-01 4.024433110365848165e-01
5.277284139326777757e-01 3.984738857632379450e-01
5.290695280720746352e-01 3.212962141951507533e-01
5.304106422114714947e-01 2.015049892949178911e-01
5.317517563508683542e-01 4.298094860738999046e-01
5.330928704902652138e-01 6.629091193007852212e-01
5.344339846296620733e-01 5.483980472385212579e-01
5.357750987690589328e-01 4.978565304905231415e-01
5.371162129084557924e-01 5.664339336726769147e-01
5.384573270478525409e-01 6.195175867480742227e-01
5.397984411872495114e-01 3.129650151032592476e-01
5.411395553266462599e-01 3.922965682390682218e-01
5.424806694660432305e-01 7.304797218686474025e-01
5.438217836054399790e-01 6.258501332955361818e-01
5.451628977448369495e-01 4.372749035189826827e-01
5.465040118842336980e-01 1.898924728272675111e-01
5.478451260236305576e-01 1.848512448656762786e-01
5.491862401630274171e-01 4.059561656202674840e-01
5.505273543024242766e-01 3.115254759624761505e-01
5.518684684418211361e-01 4.982215780377643455e-01
5.532095825812179957e-01 5.802839507734063318e-01
5.545506967206147442e-01 1.523876119713989397e-01
