# q (1/Angstrom), Intensity (arb)
2.078726924066784734e-02 3.273705440990554507e+02
2.212838338006469993e-02 5.345353960487327640e+02
2.346949751946154905e-02 7.624079732901229818e+02
2.481061165885840164e-02 1.079163997475412771e+03
2.615172579825525423e-02 1.244859341482579794e+03
2.749283993765210335e-02 1.307803122584524772e+03
2.883395407704895941e-02 1.362206444711872109e+03
3.017506821644580506e-02 1.388091793223163904e+03
3.151618235584265765e-02 1.393360829222594248e+03
3.285729649523951718e-02 1.388462472742051887e+03
3.419841063463636283e-02 1.377110543886293499e+03
3.553952477403321542e-02 1.364748788705033576e+03
3.688063891343006800e-02 1.350960495557379545e+03
3.822175305282692059e-02 1.334584958929027380e+03
3.956286719222376624e-02 1.317984451321871347e+03
4.090398133162062577e-02 1.304591052514606872e+03
4.224509547101747142e-02 1.292585472391663643e+03
4.358620961041432401e-02 1.280036790988955772e+03
4.492732374981117660e-02 1.263831050605226892e+03
4.626843788920802919e-02 1.248656233086862585e+03
4.760955202860488178e-02 1.237314954388675233e+03
4.895066616800172743e-02 1.225150820022530297e+03
5.029178030739858696e-02 1.202917526169274424e+03
5.163289444679544649e-02 1.183327532094489925e+03
5.297400858619229214e-02 1.171910891323621399e+03
5.431512272558913779e-02 1.153424813198045058e+03
5.565623686498599731e-02 1.127551718211759180e+03
5.699735100438284990e-02 1.104342589141627968e+03
5.833846514377969555e-02 1.087042866944045272e+03
5.967957928317654814e-02 1.065140072783043934e+03
6.102069342257340767e-02 1.042605044824076003e+03
6.236180756197025332e-02 1.018737762015588373e+03
6.370292170136709897e-02 9.987915439485112756e+02
6.504403584076395850e-02 9.775553620092691745e+02
6.638514998016080415e-02 9.539751057413837998e+02
6.772626411955766368e-02 9.288002149183211031e+02
6.906737825895450933e-02 9.041866301646989541e+02
7.040849239835136886e-02 8.781484251211569472e+02
7.174960653774821451e-02 8.513275417350930638e+02
7.309072067714506016e-02 8.256463681780213619e+02
7.443183481654190581e-02 7.993542485612719020e+02
7.577294895593877921e-02 7.745883406266976863e+02
7.711406309533562486e-02 7.492690084083976672e+02
7.845517723473247051e-02 7.253692368368617736e+02
7.979629137412933004e-02 7.009401001023239814e+02
8.113740551352617569e-02 6.763780816214120932e+02
8.247851965292302134e-02 6.540472808532811086e+02
8.381963379231988087e-02 6.312261468950633798e+02
8.516074793171674040e-02 6.085318838511456079e+02
8.650186207111358605e-02 5.856990471864307892e+02
8.784297621051043170e-02 5.613844554153412219e+02
8.918409034990729123e-02 5.417670347903631409e+02
9.052520448930413688e-02 5.205383810222613192e+02
9.186631862870098253e-02 4.963716071513476891e+02
9.320743276809784206e-02 4.747453514452266177e+02
9.454854690749470159e-02 4.560892510199993239e+02
9.588966104689154724e-02 4.370742186516590664e+02
9.723077518628839289e-02 4.162899386330713583e+02
9.857188932568525241e-02 3.981249377897797785e+02
9.991300346508209806e-02 3.800449678828231299e+02
1.012541176044789437e-01 3.622408730487965158e+02
1.025952317438758032e-01 3.457106883475268546e+02
1.039363458832726350e-01 3.275624177903359850e+02
1.052774600226694945e-01 3.113495603912211322e+02
1.066185741620663541e-01 2.962865043290880180e+02
1.079596883014631858e-01 2.808556251491118587e+02
1.093008024408600454e-01 2.664491670766983020e+02
1.106419165802569049e-01 2.515589555464170246e+02
1.119830307196537506e-01 2.387765577024511003e+02
1.133241448590506101e-01 2.250092916029153116e+02
1.146652589984474419e-01 2.122666499777412241e+02
1.160063731378443014e-01 2.000554389826672264e+02
1.173474872772411609e-01 1.884743145007705607e+02
1.186886014166380066e-01 1.755541943449524922e+02
1.200297155560348661e-01 1.641723636197975793e+02
1.213708296954317256e-01 1.541894997362526851e+02
1.227119438348285574e-01 1.439693637980159053e+02
1.240530579742254169e-01 1.343711281690677311e+02
1.253941721136222764e-01 1.260363078551249885e+02
1.267352862530191082e-01 1.179265751007472005e+02
1.280764003924159677e-01 1.096173676087165063e+02
1.294175145318128273e-01 1.018283661615323012e+02
1.307586286712096590e-01 9.447549494089139444e+01
1.320997428106065186e-01 8.741751428004744184e+01
1.334408569500033781e-01 7.989015786393248675e+01
1.347819710894002376e-01 7.450883174118486352e+01
1.361230852287970972e-01 6.823833246924181140e+01
1.374641993681939289e-01 6.225918542528256694e+01
1.388053135075907885e-01 5.717977307338499315e+01
1.401464276469876480e-01 5.301645841165081663e+01
1.414875417863844798e-01 4.887638624969734735e+01
1.428286559257813393e-01 4.385521501089452556e+01
1.441697700651781988e-01 3.965458631884851570e+01
1.455108842045750306e-01 3.603787972655791805e+01
1.468519983439718901e-01 3.322368445341984966e+01
1.481931124833687219e-01 2.960419879067684690e+01
1.495342266227655814e-01 2.683974817703247595e+01
1.508753407621624687e-01 2.434867110101247079e+01
1.522164549015593005e-01 2.159668721904037625e+01
1.535575690409561600e-01 1.976160473475684398e+01
1.548986831803530195e-01 1.820400205237569935e+01
1.562397973197498513e-01 1.554780509883497075e+01
1.575809114591467108e-01 1.327941497538004967e+01
1.589220255985435704e-01 1.218992701260786760e+01
1.602631397379404021e-01 1.097764149751382945e+01
1.616042538773372617e-01 9.842742350521646699e+00
1.629453680167341212e-01 9.052578402489331211e+00
1.642864821561309530e-01 8.194249442256193561e+00
1.656275962955278125e-01 8.026421018269488172e+00
1.669687104349246720e-01 7.036977293547352019e+00
1.683098245743215315e-01 6.483156677415493618e+00
1.696509387137183911e-01 6.543007541873180344e+00
1.709920528531152228e-01 6.425972981157329400e+00
1.723331669925120824e-01 5.817829548359995329e+00
1.736742811319089419e-01 5.557728832355437021e+00
1.750153952713057737e-01 5.899676409465328675e+00
1.763565094107026332e-01 5.944623164142825544e+00
1.776976235500994927e-01 5.605310428071447859e+00
1.790387376894963245e-01 6.324243249997365979e+00
1.803798518288931840e-01 6.150193522785002642e+00
1.817209659682900158e-01 5.120847744931609213e+00
1.830620801076868753e-01 5.155993599722094700e+00
1.844031942470837349e-01 5.800781364756502967e+00
1.857443083864805944e-01 5.997032022588243194e+00
1.870854225258774539e-01 6.381901913299017792e+00
1.884265366652743134e-01 6.672513782101589186e+00
1.897676508046711452e-01 7.522206747493768830e+00
1.911087649440680047e-01 7.405067430906015602e+00
1.924498790834648643e-01 7.191544515184816078e+00
1.937909932228616960e-01 7.856088420237583136e+00
1.951321073622585556e-01 8.187780532391300881e+00
1.964732215016554151e-01 7.892876174732165850e+00
1.978143356410522469e-01 8.193442888850398731e+00
1.991554497804491064e-01 8.644730208006137673e+00
2.004965639198459382e-01 8.717345534783092376e+00
2.018376780592427977e-01 9.068735168738797370e+00
2.031787921986396572e-01 9.529142299472169952e+00
2.045199063380365168e-01 9.531825880421735064e+00
2.058610204774333763e-01 8.930119196610064591e+00
2.072021346168302081e-01 9.365579302564327691e+00
2.085432487562270676e-01 1.014590368999328973e+01
2.098843628956239271e-01 1.024253087179955912e+01
2.112254770350207866e-01 9.775536734335389610e+00
2.125665911744176462e-01 1.008921865127587125e+01
2.139077053138144502e-01 9.931568462345751414e+00
2.152488194532113097e-01 1.038499933973942291e+01
2.165899335926081692e-01 1.052266970312334138e+01
2.179310477320050288e-01 1.006979006656546005e+01
2.192721618714018883e-01 1.014592813478759581e+01
2.206132760107987478e-01 9.927895227733245065e+00
2.219543901501955796e-01 9.819976007989481559e+00
2.232955042895924391e-01 9.992881923071081474e+00
2.246366184289892987e-01 1.009988311869990696e+01
2.259777325683861582e-01 1.004704728737051767e+01
2.273188467077830177e-01 9.380461900956092336e+00
2.286599608471798217e-01 9.433674536499765395e+00
2.300010749865766813e-01 8.811637734044907688e+00
2.313421891259735408e-01 8.491433923051843635e+00
2.326833032653704003e-01 8.414668059530853839e+00
2.340244174047672598e-01 8.065586682409886521e+00
2.353655315441641194e-01 7.933203569580811632e+00
2.367066456835609234e-01 7.586001314453724831e+00
2.380477598229577829e-01 6.984714044888931994e+00
2.393888739623546424e-01 6.340212837954609881e+00
2.407299881017515020e-01 6.065538753567395247e+00
2.420711022411483615e-01 7.290419817472809427e+00
2.434122163805451933e-01 6.457415703183528422e+00
2.447533305199420528e-01 6.327588501122562548e+00
2.460944446593389123e-01 6.518879641512086209e+00
2.474355587987357719e-01 6.464050365641355711e+00
2.487766729381326314e-01 6.830552415371315078e+00
2.501177870775294632e-01 7.084343711182555126e+00
2.514589012169263227e-01 5.331456289309727481e+00
2.528000153563231822e-01 4.464247946579121162e+00
2.541411294957200417e-01 4.515333144068165439e+00
2.554822436351169013e-01 4.433591748271496158e+00
2.568233577745137608e-01 3.849205878000091730e+00
2.581644719139106203e-01 3.888633462665495699e+00
2.595055860533074243e-01 3.618747738573063089e+00
2.608467001927042839e-01 3.758118459149827117e+00
2.621878143321011434e-01 3.496342386543844327e+00
2.635289284714980029e-01 3.164006103163615080e+00
2.648700426108948625e-01 3.155793487644018569e+00
2.662111567502916665e-01 3.135463586823107107e+00
2.675522708896885260e-01 2.865232359693308695e+00
2.688933850290853855e-01 2.510640719373071761e+00
2.702344991684822451e-01 2.955468166325687207e+00
2.715756133078791046e-01 3.223743537655877844e+00
2.729167274472759641e-01 2.849502459917104602e+00
2.742578415866727681e-01 2.582559699086260707e+00
2.755989557260696277e-01 1.654080104620504699e+00
2.769400698654664872e-01 1.471548455161439506e+00
2.782811840048633467e-01 1.771409834049109122e+00
2.796222981442602062e-01 1.749032546290877121e+00
2.809634122836570103e-01 1.650245667313797071e+00
2.823045264230538698e-01 1.415761095535074787e+00
2.836456405624507293e-01 1.220938652163866323e+00
2.849867547018475888e-01 1.093033175927601519e+00
2.863278688412444484e-01 1.337739677268004357e+00
2.876689829806413079e-01 1.245279680860605254e+00
2.890100971200381674e-01 1.335573951293056894e+00
2.903512112594350270e-01 9.587519459039981484e-01
2.916923253988318865e-01 1.144025222719875501e+00
2.930334395382287460e-01 1.356596702194806880e+00
2.943745536776256055e-01 1.206081372264364404e+00
2.957156678170224096e-01 1.030914015331703126e+00
2.970567819564192691e-01 1.041558105394400968e+00
2.983978960958161286e-01 9.464260150361951673e-01
2.997390102352129881e-01 1.051720174834656518e+00
3.010801243746098477e-01 9.132202660647408266e-01
3.024212385140067072e-01 1.361460314667624516e+00
3.037623526534035112e-01 1.450569516443280804e+00
3.051034667928003707e-01 1.112094975661435114e+00
3.064445809321972303e-01 1.416841414506492924e+00
3.077856950715940898e-01 1.847507588324276639e+00
3.091268092109909493e-01 1.384182789557968363e+00
3.104679233503877533e-01 1.651549440581803196e+00
3.118090374897846129e-01 1.547162123521587773e+00
3.131501516291814724e-01 1.281101896724393896e+00
3.144912657685783319e-01 1.154729312517531525e+00
3.158323799079751915e-01 1.322528682117678045e+00
3.171734940473720510e-01 9.873477711325335804e-01
3.185146081867689105e-01 1.334944047448644255e+00
3.198557223261657700e-01 1.843014854879299946e+00
3.211968364655626296e-01 1.481990273130719515e+00
3.225379506049594891e-01 1.762443616347113107e+00
3.238790647443563486e-01 1.964547736674717271e+00
3.252201788837532082e-01 1.543896452833010358e+00
3.265612930231500122e-01 1.677342594298295353e+00
3.279024071625468717e-01 1.875595156526131291e+00
3.292435213019437312e-01 1.954193561872088480e+00
3.305846354413405908e-01 1.726936129844560242e+00
3.319257495807374503e-01 1.385865459489195928e+00
3.332668637201342543e-01 1.295281826831256922e+00
3.346079778595311138e-01 1.650815152208153336e+00
3.359490919989279734e-01 2.238627469191797559e+00
3.372902061383248329e-01 2.058030766996594707e+00
3.386313202777216924e-01 2.284153060767764032e+00
3.399724344171185519e-01 1.669750727257877543e+00
3.413135485565153560e-01 1.179378588323061194e+00
3.426546626959122155e-01 1.412927061724204236e+00
3.439957768353090750e-01 1.850499431727598676e+00
3.453368909747059345e-01 1.633317589087553756e+00
3.466780051141027941e-01 1.793850848491715055e+00
3.480191192534995981e-01 1.465493447449347286e+00
3.493602333928964576e-01 1.506875989468923649e+00
3.507013475322933171e-01 1.608547825039167378e+00
3.520424616716901767e-01 1.848081149033433235e+00
3.533835758110870362e-01 1.814004311640772471e+00
3.547246899504838957e-01 1.514595359059683233e+00
3.560658040898807553e-01 1.392149517364529743e+00
3.574069182292776148e-01 1.325148533808956586e+00
3.587480323686744743e-01 1.379745157033923419e+00
3.600891465080713338e-01 1.727444816652365489e+00
3.614302606474681934e-01 1.451383515291212234e+00
3.627713747868649974e-01 1.704272085819127369e+00
3.641124889262618569e-01 1.821364113333743262e+00
3.654536030656587164e-01 1.305819821018758375e+00
3.667947172050555760e-01 9.675467995656958919e-01
3.681358313444524355e-01 1.447219831971764847e+00
3.694769454838492950e-01 1.538190321041824404e+00
3.708180596232460990e-01 1.552325420815051871e+00
3.721591737626429586e-01 1.359756656329139446e+00
3.735002879020398181e-01 1.417180912197466114e+00
3.748414020414366776e-01 1.272817817430976106e+00
3.761825161808335372e-01 8.280257760895182173e-01
3.775236303202303967e-01 7.499810044290882161e-01
3.788647444596272007e-01 1.499086753643751990e+00
3.802058585990240602e-01 1.720145165536862919e+00
3.815469727384209198e-01 1.720311732896945500e+00
3.828880868778177793e-01 1.712476830768160596e+00
3.842292010172146388e-01 9.787660954651045131e-01
3.855703151566114428e-01 1.156458472622524880e+00
3.869114292960083024e-01 1.149901983021912599e+00
3.882525434354051619e-01 8.919900844395129980e-01
3.895936575748020214e-01 6.831671463562969393e-01
3.909347717141988809e-01 7.421984805995833767e-01
3.922758858535957405e-01 1.102010527456961597e+00
3.936169999929926000e-01 1.372689270621528124e+00
3.949581141323894595e-01 1.034275754459002883e+00
3.962992282717863191e-01 1.231606315059202927e+00
3.976403424111831786e-01 1.356095746780837885e+00
3.989814565505800381e-01 1.103891650476242603e+00
4.003225706899768976e-01 8.338129032342891378e-01
4.016636848293737572e-01 1.011313142557376921e+00
4.030047989687706167e-01 9.385844250712125358e-01
4.043459131081674207e-01 8.764697649498032206e-01
4.056870272475643358e-01 1.039344080901223322e+00
4.070281413869611398e-01 1.072212052749890177e+00
4.083692555263580548e-01 1.127882951210430917e+00
4.097103696657548588e-01 1.103996354847843975e+00
4.110514838051517739e-01 1.105281047649043558e+00
4.123925979445485779e-01 9.709618171601306358e-01
4.137337120839453819e-01 6.937664489174437676e-01
4.150748262233422969e-01 5.974636097805756663e-01
4.164159403627391010e-01 6.115105384578569669e-01
4.177570545021360160e-01 4.444800352890183603e-01
4.190981686415328200e-01 5.690883944615876544e-01
4.204392827809296240e-01 5.271954924544175469e-01
4.217803969203265391e-01 1.082291699794787121e+00
4.231215110597233431e-01 1.074842575630583497e+00
4.244626251991202581e-01 8.217624465980719606e-01
4.258037393385170621e-01 9.807218013278031776e-01
4.271448534779138662e-01 1.283463538749018085e+00
4.284859676173107812e-01 9.823685743121330916e-01
4.298270817567075852e-01 1.052537945753712734e+00
4.311681958961045003e-01 1.422682156999719894e+00
4.325093100355013043e-01 1.300053852275460997e+00
4.338504241748981638e-01 9.142255896273638882e-01
4.351915383142950233e-01 1.308372399174679401e+00
4.365326524536918829e-01 1.224065438328644007e+00
4.378737665930887424e-01 1.232644056368066288e+00
4.392148807324856019e-01 7.760729673593544931e-01
4.405559948718824614e-01 9.519783705990221279e-01
4.418971090112793210e-01 1.345021558945546758e+00
4.432382231506761250e-01 9.731017645565813723e-01
4.445793372900730400e-01 8.551484806394498150e-01
4.459204514294698440e-01 6.323113862659113238e-01
4.472615655688667591e-01 7.563220865648432323e-01
4.486026797082635631e-01 1.034844475061639457e+00
4.499437938476603671e-01 1.099759792606697317e+00
4.512849079870572822e-01 1.085760163370288467e+00
4.526260221264540862e-01 1.347618855323922560e+00
4.539671362658510012e-01 1.461456453087699003e+00
4.553082504052478052e-01 1.308847806847552420e+00
4.566493645446446092e-01 8.930103297600950896e-01
4.579904786840415243e-01 6.282792130726235769e-01
4.593315928234383283e-01 8.483260006775381612e-01
4.606727069628352433e-01 7.479260248045065396e-01
4.620138211022320474e-01 8.058638590652833500e-01
4.633549352416289624e-01 7.499783910888524474e-01
4.646960493810257664e-01 6.559112388744026134e-01
4.660371635204225704e-01 1.002562129531590074e+00
4.673782776598194855e-01 1.286288912203332302e+00
4.687193917992162895e-01 1.004641970588885158e+00
4.700605059386132045e-01 7.874892596156684021e-01
4.714016200780100085e-01 5.154612590338842892e-01
4.727427342174068681e-01 8.593764674622192956e-01
4.740838483568037276e-01 8.544193546908616099e-01
4.754249624962005871e-01 7.708087463212862644e-01
4.767660766355974467e-01 7.434309796425822014e-01
4.781071907749943062e-01 6.646632422538658602e-01
4.794483049143911102e-01 8.204821593038289507e-01
4.807894190537880252e-01 1.045726218462100121e+00
4.821305331931848293e-01 9.919247652341240951e-01
4.834716473325817443e-01 7.873005521825007236e-01
4.848127614719785483e-01 1.002048010791725119e+00
4.861538756113753523e-01 9.701666753145232747e-01
4.874949897507722674e-01 1.136214829395335357e+00
4.888361038901690714e-01 1.025413491666661514e+00
4.901772180295659864e-01 7.386414246425445640e-01
4.915183321689627904e-01 6.731945256727058791e-01
4.928594463083597055e-01 9.068056235444004187e-01
4.942005604477565095e-01 1.022501729542923954e+00
4.955416745871533135e-01 7.579498349698212678e-01
4.968827887265502286e-01 8.101617893403130211e-01
4.982239028659470326e-01 8.256939343708182832e-01
4.995650170053439476e-01 6.705169123186820457e-01
5.009061311447408071e-01 7.604785855437441455e-01
5.022472452841375556e-01 5.597066608313809866e-01
5.035883594235345262e-01 1.072403476692365132e+00
5.049294735629312747e-01 1.154746074938003630e+00
5.062705877023282452e-01 7.262391145306779094e-01
5.076117018417249938e-01 4.695970982622981182e-01
5.089528159811218533e-01 4.545824719415207937e-01
5.102939301205187128e-01 6.753952573986339303e-01
5.116350442599155723e-01 5.779601213511824653e-01
5.129761583993124319e-01 2.842787366872627786e-01
5.143172725387092914e-01 1.706644256139142612e-01
5.156583866781061509e-01 0.000000000000000000e+00
5.169995008175030105e-01 1.977872373158291452e-01
5.183406149568997590e-01 2.770096047800691963e-01
5.196817290962967295e-01 4.029020914377312579e-01
5.210228432356934780e-01 2.807774641936546800e-01
5.223639573750904486e-01 6.204470746557291250e-01
5.237050715144871971e-01 5.540547751472644222e-01
5.250461856538840566e-01 5.459224577143828583e-01
5.263872997932809161e-01 7.848323449187333267e-01
5.277284139326777757e-01 9.425178001723608645e-01
5.290695280720746352e-01 6.615571931626789137e-01
5.304106422114714947e-01 8.593662207806218589e-01
5.317517563508683542e-01 6.152993033506888310e-01
5.330928704902652138e-01 5.154595408218654029e-01
5.344339846296620733e-01 6.603433820527726539e-01
5.357750987690589328e-01 7.308778777841666852e-01
5.371162129084557924e-01 7.694446940156396408e-01
5.384573270478525409e-01 8.001642587448500876e-01
5.397984411872495114e-01 7.846611802430629723e-01
5.411395553266462599e-01 8.849376512016533525e-01
5.424806694660432305e-01 9.005633331263354080e-01
5.438217836054399790e-01 5.750383498818081307e-01
5.451628977448369495e-01 5.507078837517980219e-01
5.465040118842336980e-01 4.676988131828707651e-01
5.478451260236305576e-01 5.728299895178494694e-01
5.491862401630274171e-01 4.338217645783046805e-01
5.505273543024242766e-01 2.608055232538291079e-01
5.518684684418211361e-01 2.616725886273627566e-01
5.532095825812179957e-01 4.439593195367379508e-01
5.545506967206147442e-01 4.923728352714604739e-01
