# q (1/Angstrom), Intensity (arb)
2.078726924066784734e-02 5.007358881755142761e+02
2.212838338006469993e-02 8.075515447373586539e+02
2.346949751946154905e-02 1.153391785494234909e+03
2.481061165885840164e-02 1.629734106683163191e+03
2.615172579825525423e-02 1.865013532084882627e+03
2.749283993765210335e-02 1.967544238165061415e+03
2.883395407704895941e-02 2.044774784172394448e+03
3.017506821644580506e-02 2.086511289364474123e+03
3.151618235584265765e-02 2.093118629691066872e+03
3.285729649523951718e-02 2.085109479456381450e+03
3.419841063463636283e-02 2.072951129195090743e+03
3.553952477403321542e-02 2.056172536265156850e+03
3.688063891343006800e-02 2.028184604512676742e+03
3.822175305282692059e-02 2.003313604229650764e+03
3.956286719222376624e-02 1.982496476880522323e+03
4.090398133162062577e-02 1.956011673116651082e+03
4.224509547101747142e-02 1.928399817936653108e+03
4.358620961041432401e-02 1.902598439117668249e+03
4.492732374981117660e-02 1.876027281219261113e+03
4.626843788920802919e-02 1.850681998675273235e+03
4.760955202860488178e-02 1.836672240957527720e+03
4.895066616800172743e-02 1.807346350615447363e+03
5.029178030739858696e-02 1.773242157583552398e+03
5.163289444679544649e-02 1.740128855218341869e+03
5.297400858619229214e-02 1.712877870755240565e+03
5.431512272558913779e-02 1.679474342070852799e+03
5.565623686498599731e-02 1.642602068834630472e+03
5.699735100438284990e-02 1.597504158311131960e+03
5.833846514377969555e-02 1.560967956953242719e+03
5.967957928317654814e-02 1.529413008589549463e+03
6.102069342257340767e-02 1.492339621672003432e+03
6.236180756197025332e-02 1.457325956500442317e+03
6.370292170136709897e-02 1.420527555680149817e+03
6.504403584076395850e-02 1.383466701053894212e+03
6.638514998016080415e-02 1.341983682466672690e+03
6.772626411955766368e-02 1.302892769968734910e+03
6.906737825895450933e-02 1.263124585181626799e+03
7.040849239835136886e-02 1.220843319808143633e+03
7.174960653774821451e-02 1.180505154195264822e+03
7.309072067714506016e-02 1.135219486783779303e+03
7.443183481654190581e-02 1.094561299136204525e+03
7.577294895593877921e-02 1.058565835598700232e+03
7.711406309533562486e-02 1.018264769520185382e+03
7.845517723473247051e-02 9.799216601916521086e+02
7.979629137412933004e-02 9.398683621185356287e+02
8.113740551352617569e-02 9.040257652393073613e+02
8.247851965292302134e-02 8.682710865156492446e+02
8.381963379231988087e-02 8.303872770527517559e+02
8.516074793171674040e-02 7.949189391342424642e+02
8.650186207111358605e-02 7.590913449203786740e+02
8.784297621051043170e-02 7.265813408820354198e+02
8.918409034990729123e-02 6.923558861094597887e+02
9.052520448930413688e-02 6.611523598907582482e+02
9.186631862870098253e-02 6.307146938846091189e+02
9.320743276809784206e-02 5.989196744645066701e+02
9.454854690749470159e-02 5.688742398390013477e+02
9.588966104689154724e-02 5.409185974925189839e+02
9.723077518628839289e-02 5.132565130946987892e+02
9.857188932568525241e-02 4.850499456478946740e+02
9.991300346508209806e-02 4.596725057767014277e+02
1.012541176044789437e-01 4.339635446457347712e+02
1.025952317438758032e-01 4.100145464817473453e+02
1.039363458832726350e-01 3.865516537088280415e+02
1.052774600226694945e-01 3.623946914152929821e+02
1.066185741620663541e-01 3.396355062106563878e+02
1.079596883014631858e-01 3.184466042305168116e+02
1.093008024408600454e-01 2.985729423048881017e+02
1.106419165802569049e-01 2.802391281627126887e+02
1.119830307196537506e-01 2.622475743781079700e+02
1.133241448590506101e-01 2.453496796889136249e+02
1.146652589984474419e-01 2.284403458722393339e+02
1.160063731378443014e-01 2.115257412475198180e+02
1.173474872772411609e-01 1.967688706865614563e+02
1.186886014166380066e-01 1.815577923694601168e+02
1.200297155560348661e-01 1.681754206627005033e+02
1.213708296954317256e-01 1.545167034016605498e+02
1.227119438348285574e-01 1.432070643956994331e+02
1.240530579742254169e-01 1.323234341784188359e+02
1.253941721136222764e-01 1.210878043077016031e+02
1.267352862530191082e-01 1.110578167711002209e+02
1.280764003924159677e-01 1.024045181830182543e+02
1.294175145318128273e-01 9.303731668938432620e+01
1.307586286712096590e-01 8.438274558369781175e+01
1.320997428106065186e-01 7.706892555865867678e+01
1.334408569500033781e-01 6.902236113320623190e+01
1.347819710894002376e-01 6.229688010551340938e+01
1.361230852287970972e-01 5.644700871399007269e+01
1.374641993681939289e-01 5.032465311146222575e+01
1.388053135075907885e-01 4.556295216540367221e+01
1.401464276469876480e-01 4.037613356114495389e+01
1.414875417863844798e-01 3.626007243849377915e+01
1.428286559257813393e-01 3.211821527173584911e+01
1.441697700651781988e-01 2.958795864462551606e+01
1.455108842045750306e-01 2.550478601419524693e+01
1.468519983439718901e-01 2.221441611117860759e+01
1.481931124833687219e-01 2.052269636846649803e+01
1.495342266227655814e-01 1.861566557279155631e+01
1.508753407621624687e-01 1.646485799151899698e+01
1.522164549015593005e-01 1.462599692639699356e+01
1.535575690409561600e-01 1.369088955453621281e+01
1.548986831803530195e-01 1.243737778399452054e+01
1.562397973197498513e-01 1.026215722214871562e+01
1.575809114591467108e-01 9.742239093193873600e+00
1.589220255985435704e-01 9.937509750733667602e+00
1.602631397379404021e-01 9.445014148985023894e+00
1.616042538773372617e-01 8.762230839771646629e+00
1.629453680167341212e-01 7.915700416004398221e+00
1.642864821561309530e-01 7.916180586380377804e+00
1.656275962955278125e-01 8.247479899784920576e+00
1.669687104349246720e-01 7.669359795258415602e+00
1.683098245743215315e-01 8.373309406661221033e+00
1.696509387137183911e-01 9.218989753211630500e+00
1.709920528531152228e-01 9.822864514148378134e+00
1.723331669925120824e-01 9.979044845438806988e+00
1.736742811319089419e-01 9.886759894810595029e+00
1.750153952713057737e-01 1.016035340426510913e+01
1.763565094107026332e-01 1.075003985599536804e+01
1.776976235500994927e-01 1.100482957235981019e+01
1.790387376894963245e-01 1.160489967052183147e+01
1.803798518288931840e-01 1.216105445633290572e+01
1.817209659682900158e-01 1.202803276371736274e+01
1.830620801076868753e-01 1.268851270687979138e+01
1.844031942470837349e-01 1.360135593528518427e+01
1.857443083864805944e-01 1.363762081888231137e+01
1.870854225258774539e-01 1.332516748284808727e+01
1.884265366652743134e-01 1.329166453125040448e+01
1.897676508046711452e-01 1.461903059793196746e+01
1.911087649440680047e-01 1.493708815034469239e+01
1.924498790834648643e-01 1.475232731256750185e+01
1.937909932228616960e-01 1.564815814995432675e+01
1.951321073622585556e-01 1.515688512614764250e+01
1.964732215016554151e-01 1.514710829199414377e+01
1.978143356410522469e-01 1.570156249570989360e+01
1.991554497804491064e-01 1.649742772785150180e+01
2.004965639198459382e-01 1.629111431614578009e+01
2.018376780592427977e-01 1.575441913132851823e+01
2.031787921986396572e-01 1.578099499513666615e+01
2.045199063380365168e-01 1.606384121738074100e+01
2.058610204774333763e-01 1.607198327547331473e+01
2.072021346168302081e-01 1.560669896234642806e+01
2.085432487562270676e-01 1.619039921148072381e+01
2.098843628956239271e-01 1.585478104347110673e+01
2.112254770350207866e-01 1.510094588040642805e+01
2.125665911744176462e-01 1.443211450468071178e+01
2.139077053138144502e-01 1.447683748311324337e+01
2.152488194532113097e-01 1.424282444757288602e+01
2.165899335926081692e-01 1.406263280071465260e+01
2.179310477320050288e-01 1.348093656166216192e+01
2.192721618714018883e-01 1.323296542108923290e+01
2.206132760107987478e-01 1.259956207338194645e+01
2.219543901501955796e-01 1.262036387245701974e+01
2.232955042895924391e-01 1.220189714980284634e+01
2.246366184289892987e-01 1.182072069865749597e+01
2.259777325683861582e-01 1.134351707107313700e+01
2.273188467077830177e-01 1.067447614347864260e+01
2.286599608471798217e-01 1.052107762089077880e+01
2.300010749865766813e-01 9.774452191615665697e+00
2.313421891259735408e-01 9.173193682688122408e+00
2.326833032653704003e-01 8.602390391964533478e+00
2.340244174047672598e-01 7.559484825765181881e+00
2.353655315441641194e-01 7.687455009833854547e+00
2.367066456835609234e-01 7.386748796697673924e+00
2.380477598229577829e-01 7.202039039577897483e+00
2.393888739623546424e-01 6.889401605683289631e+00
2.407299881017515020e-01 6.406952674186385366e+00
2.420711022411483615e-01 6.377315209048347810e+00
2.434122163805451933e-01 5.515552440123741462e+00
2.447533305199420528e-01 4.623185280567355449e+00
2.460944446593389123e-01 5.319077275100809743e+00
2.474355587987357719e-01 5.142350109879501474e+00
2.487766729381326314e-01 4.548032827517445753e+00
2.501177870775294632e-01 4.182601874392332775e+00
2.514589012169263227e-01 3.508983786308334629e+00
2.528000153563231822e-01 3.047000654965970057e+00
2.541411294957200417e-01 2.711908047508501340e+00
2.554822436351169013e-01 3.019558443316057605e+00
2.568233577745137608e-01 2.742000308986931145e+00
2.581644719139106203e-01 2.250149238576014454e+00
2.595055860533074243e-01 2.038492887488487781e+00
2.608467001927042839e-01 2.271077695845661992e+00
2.621878143321011434e-01 2.758234505399087766e+00
2.635289284714980029e-01 2.446142675318512261e+00
2.648700426108948625e-01 2.029627572223759557e+00
2.662111567502916665e-01 1.780915199075977284e+00
2.675522708896885260e-01 1.493333013753741056e+00
2.688933850290853855e-01 1.200156716073962571e+00
2.702344991684822451e-01 1.740014117505182867e+00
2.715756133078791046e-01 1.878130162424710647e+00
2.729167274472759641e-01 1.795665442563404213e+00
2.742578415866727681e-01 1.774016833498080814e+00
2.755989557260696277e-01 1.401318155782263375e+00
2.769400698654664872e-01 1.427449425962905138e+00
2.782811840048633467e-01 1.650597304015732902e+00
2.796222981442602062e-01 1.446371778449972112e+00
2.809634122836570103e-01 1.265672450882988187e+00
2.823045264230538698e-01 1.558309017626740456e+00
2.836456405624507293e-01 1.447711824464107622e+00
2.849867547018475888e-01 1.111619130235467878e+00
2.863278688412444484e-01 1.388940840713203784e+00
2.876689829806413079e-01 1.570999187938184605e+00
2.890100971200381674e-01 1.668142466224608711e+00
2.903512112594350270e-01 1.704740562762864897e+00
2.916923253988318865e-01 2.179316148974592693e+00
2.930334395382287460e-01 2.217653691511330294e+00
2.943745536776256055e-01 1.707149354577921940e+00
2.957156678170224096e-01 1.958172457154191193e+00
2.970567819564192691e-01 1.774126987695765933e+00
2.983978960958161286e-01 1.887466504934693035e+00
2.997390102352129881e-01 1.736636233026672471e+00
3.010801243746098477e-01 2.061533324782502063e+00
3.024212385140067072e-01 2.285988016340226636e+00
3.037623526534035112e-01 2.174725115172932988e+00
3.051034667928003707e-01 2.259895930978046863e+00
3.064445809321972303e-01 2.531091670559064255e+00
3.077856950715940898e-01 2.749200872215197933e+00
3.091268092109909493e-01 2.452199171824915425e+00
3.104679233503877533e-01 2.549690856237276648e+00
3.118090374897846129e-01 2.332717067676583156e+00
3.131501516291814724e-01 2.276790650217449752e+00
3.144912657685783319e-01 2.345481681269248497e+00
3.158323799079751915e-01 2.177475634243847935e+00
3.171734940473720510e-01 2.043484455811551470e+00
3.185146081867689105e-01 2.183183197226043148e+00
3.198557223261657700e-01 2.187973177806796343e+00
3.211968364655626296e-01 1.858577012156416686e+00
3.225379506049594891e-01 2.407337947182597304e+00
3.238790647443563486e-01 2.054799754161379610e+00
3.252201788837532082e-01 1.794633753474272453e+00
3.265612930231500122e-01 2.021032843868596274e+00
3.279024071625468717e-01 2.471823614912196376e+00
3.292435213019437312e-01 2.234608296800018934e+00
3.305846354413405908e-01 1.860063865232433500e+00
3.319257495807374503e-01 1.719606097328579608e+00
3.332668637201342543e-01 1.451382740043371200e+00
3.346079778595311138e-01 1.770401664411167530e+00
3.359490919989279734e-01 1.966414118859233895e+00
3.372902061383248329e-01 1.872719121984999902e+00
3.386313202777216924e-01 2.130900544595164092e+00
3.399724344171185519e-01 1.730224611176709004e+00
3.413135485565153560e-01 1.746638372419397456e+00
3.426546626959122155e-01 1.456141714053714509e+00
3.439957768353090750e-01 1.493250149880609001e+00
3.453368909747059345e-01 1.421691570766739687e+00
3.466780051141027941e-01 1.614172512089169231e+00
3.480191192534995981e-01 1.434457947537865152e+00
3.493602333928964576e-01 1.314939360216797581e+00
3.507013475322933171e-01 1.401210318674358746e+00
3.520424616716901767e-01 1.490067716078243620e+00
3.533835758110870362e-01 1.186652618988574659e+00
3.547246899504838957e-01 9.377141087164062583e-01
3.560658040898807553e-01 7.992570246189387717e-01
3.574069182292776148e-01 9.732745432800982144e-01
3.587480323686744743e-01 1.185685702690136623e+00
3.600891465080713338e-01 1.261682255102343220e+00
3.614302606474681934e-01 1.186661205927578067e+00
3.627713747868649974e-01 1.050092079909447307e+00
3.641124889262618569e-01 1.102685867631578276e+00
3.654536030656587164e-01 6.169347870495585084e-01
3.667947172050555760e-01 6.140243654884329771e-01
3.681358313444524355e-01 1.064988770248092464e+00
3.694769454838492950e-01 1.054598901857048077e+00
3.708180596232460990e-01 9.589829975812449447e-01
3.721591737626429586e-01 8.987150390101419362e-01
3.735002879020398181e-01 8.464825649052585277e-01
3.748414020414366776e-01 4.813670115460269017e-01
3.761825161808335372e-01 5.839179708616342168e-01
3.775236303202303967e-01 3.354484179734242844e-01
3.788647444596272007e-01 1.145532471813680786e+00
3.802058585990240602e-01 8.993078274774717329e-01
3.815469727384209198e-01 8.991131725534273755e-01
3.828880868778177793e-01 1.445290129104215282e+00
3.842292010172146388e-01 8.343205232141031047e-01
3.855703151566114428e-01 8.895621410528278261e-01
3.869114292960083024e-01 5.338338260951402958e-01
3.882525434354051619e-01 3.717601642253782757e-01
3.895936575748020214e-01 5.361625223495707360e-01
3.909347717141988809e-01 3.920076234218754507e-01
3.922758858535957405e-01 4.908615567967089532e-01
3.936169999929926000e-01 9.936055595150250497e-01
3.949581141323894595e-01 5.365998544702463846e-01
3.962992282717863191e-01 1.008040009754715527e+00
3.976403424111831786e-01 1.271567388458144876e+00
3.989814565505800381e-01 1.087905668231400114e+00
4.003225706899768976e-01 9.063658558697795797e-01
4.016636848293737572e-01 7.698973374290787319e-01
4.030047989687706167e-01 7.854028068929537199e-01
4.043459131081674207e-01 8.317660976368870251e-01
4.056870272475643358e-01 7.303269454132674809e-01
4.070281413869611398e-01 7.266473300386451228e-01
4.083692555263580548e-01 7.901896707843789613e-01
4.097103696657548588e-01 6.057158971105494061e-01
4.110514838051517739e-01 8.923503877503407011e-01
4.123925979445485779e-01 9.351598575014961057e-01
4.137337120839453819e-01 8.543723783738172983e-01
4.150748262233422969e-01 5.430139611577828873e-01
4.164159403627391010e-01 4.065050333824800077e-01
4.177570545021360160e-01 3.643555781959335604e-01
4.190981686415328200e-01 6.168170276789481932e-01
4.204392827809296240e-01 4.533185476199790287e-01
4.217803969203265391e-01 9.401529421807168774e-01
4.231215110597233431e-01 7.800197522798342220e-01
4.244626251991202581e-01 6.703740663889732332e-01
4.258037393385170621e-01 8.835933426029924931e-01
4.271448534779138662e-01 9.859495825600745889e-01
4.284859676173107812e-01 8.866801432783546488e-01
4.298270817567075852e-01 1.148794494857732218e+00
4.311681958961045003e-01 1.546941469354251808e+00
4.325093100355013043e-01 1.284276113376655815e+00
4.338504241748981638e-01 1.012802389742510911e+00
4.351915383142950233e-01 1.002621728847607585e+00
4.365326524536918829e-01 8.803970904664595309e-01
4.378737665930887424e-01 1.066288152748562368e+00
4.392148807324856019e-01 8.474692970407815551e-01
4.405559948718824614e-01 7.607768494938795811e-01
4.418971090112793210e-01 1.265646176284441538e+00
4.432382231506761250e-01 1.101925163071349800e+00
4.445793372900730400e-01 1.047592914519597684e+00
4.459204514294698440e-01 7.290776682551083354e-01
4.472615655688667591e-01 6.501428346938453728e-01
4.486026797082635631e-01 6.263461501702423107e-01
4.499437938476603671e-01 9.111235209148347280e-01
4.512849079870572822e-01 9.497875842956489123e-01
4.526260221264540862e-01 1.154580735058637231e+00
4.539671362658510012e-01 1.005168175601248493e+00
4.553082504052478052e-01 8.561385427626362343e-01
4.566493645446446092e-01 3.508084122090622259e-01
4.579904786840415243e-01 4.992075708113219434e-01
4.593315928234383283e-01 6.841095461508359676e-01
4.606727069628352433e-01 5.450655180953063450e-01
4.620138211022320474e-01 6.773635673425104642e-01
4.633549352416289624e-01 3.883012345249881037e-01
4.646960493810257664e-01 3.419594431811816548e-01
4.660371635204225704e-01 8.206320187813318512e-01
4.673782776598194855e-01 6.158760277386079451e-01
4.687193917992162895e-01 6.216775430497349930e-01
4.700605059386132045e-01 7.172320899969335528e-01
4.714016200780100085e-01 5.442328225535320030e-01
4.727427342174068681e-01 6.016907086972054231e-01
4.740838483568037276e-01 5.731179845402039064e-01
4.754249624962005871e-01 7.627431826490393973e-01
4.767660766355974467e-01 5.405129562909323226e-01
4.781071907749943062e-01 4.626289412700970161e-01
4.794483049143911102e-01 3.948845522372366190e-01
4.807894190537880252e-01 5.418669902825641316e-01
4.821305331931848293e-01 5.430048356104322238e-01
4.834716473325817443e-01 2.657876597036192834e-01
4.848127614719785483e-01 4.525278443801283856e-01
4.861538756113753523e-01 7.898996089409351384e-01
4.874949897507722674e-01 8.322957902634371408e-01
4.888361038901690714e-01 5.516443441373297674e-01
4.901772180295659864e-01 5.124818423735604256e-01
4.915183321689627904e-01 6.142453342847744580e-01
4.928594463083597055e-01 5.072240022801395298e-01
4.942005604477565095e-01 5.357512994849287224e-01
4.955416745871533135e-01 4.771099690731332998e-01
4.968827887265502286e-01 4.611712415869959614e-01
4.982239028659470326e-01 7.382317283058128510e-01
4.995650170053439476e-01 1.191366309864996254e+00
5.009061311447408071e-01 4.668688248098931126e-01
5.022472452841375556e-01 1.174199657619610093e-01
5.035883594235345262e-01 6.479078405484486325e-01
5.049294735629312747e-01 4.835333334842388808e-01
5.062705877023282452e-01 5.502232477452793091e-01
5.076117018417249938e-01 6.791945171067297338e-01
5.089528159811218533e-01 5.768923467054705156e-01
5.102939301205187128e-01 5.699759404491686610e-01
5.116350442599155723e-01 3.902607924583634258e-01
5.129761583993124319e-01 2.960965810956324162e-01
5.143172725387092914e-01 3.515203084629732189e-01
5.156583866781061509e-01 4.204841172104920588e-01
5.169995008175030105e-01 3.240874286110866365e-01
5.183406149568997590e-01 1.467063218602504548e-02
5.196817290962967295e-01 2.152105039297680378e-02
5.210228432356934780e-01 3.307863956420931117e-02
5.223639573750904486e-01 2.394041396147059686e-01
5.237050715144871971e-01 2.105396488217152751e-01
5.250461856538840566e-01 2.301957065312407735e-01
5.263872997932809161e-01 6.766554009600938002e-01
5.277284139326777757e-01 7.992493218572178648e-01
5.290695280720746352e-01 5.108157752115616290e-01
5.304106422114714947e-01 6.897109739980180620e-01
5.317517563508683542e-01 4.406605945162667126e-01
5.330928704902652138e-01 2.683817524977030189e-01
5.344339846296620733e-01 3.576940872502447633e-01
5.357750987690589328e-01 4.354290129243310048e-01
5.371162129084557924e-01 5.833140246524664008e-01
5.384573270478525409e-01 4.134961323000823086e-01
5.397984411872495114e-01 6.095252489112326089e-01
5.411395553266462599e-01 7.582843017011953179e-01
5.424806694660432305e-01 6.422681933033373980e-01
5.438217836054399790e-01 6.347951341746096432e-01
5.451628977448369495e-01 5.572960380153659798e-01
5.465040118842336980e-01 3.585263913700131866e-01
5.478451260236305576e-01 4.770055185747210658e-01
5.491862401630274171e-01 5.423338922174352206e-01
5.505273543024242766e-01 4.727638648852448000e-01
5.518684684418211361e-01 3.532018121361772955e-01
5.532095825812179957e-01 3.749714256716387695e-01
5.545506967206147442e-01 3.434234898546861814e-01
