# q (1/Angstrom), Intensity (arb)
2.078726924066784734e-02 5.258013811006734386e+02
2.212838338006469993e-02 8.547289881043230935e+02
2.346949751946154905e-02 1.228255444713853421e+03
2.481061165885840164e-02 1.753490376635199937e+03
2.615172579825525423e-02 2.002869602044089334e+03
2.749283993765210335e-02 2.100671835447504236e+03
2.883395407704895941e-02 2.181981067293048454e+03
3.017506821644580506e-02 2.234257235733620746e+03
3.151618235584265765e-02 2.234119879447734093e+03
3.285729649523951718e-02 2.220149759964162513e+03
3.419841063463636283e-02 2.209178184393789252e+03
3.553952477403321542e-02 2.188361688415177923e+03
3.688063891343006800e-02 2.159748152854562704e+03
3.822175305282692059e-02 2.134054879650894691e+03
3.956286719222376624e-02 2.105733607982727335e+03
4.090398133162062577e-02 2.079998194701281136e+03
4.224509547101747142e-02 2.054612870765715343e+03
4.358620961041432401e-02 2.017764868104090283e+03
4.492732374981117660e-02 1.987220999683667060e+03
4.626843788920802919e-02 1.970260050109030772e+03
4.760955202860488178e-02 1.945781809205539275e+03
4.895066616800172743e-02 1.911103176811438971e+03
5.029178030739858696e-02 1.876901827766998167e+03
5.163289444679544649e-02 1.849751807129437339e+03
5.297400858619229214e-02 1.820077793606277510e+03
5.431512272558913779e-02 1.783738492790746704e+03
5.565623686498599731e-02 1.741456196035062931e+03
5.699735100438284990e-02 1.698128627875121992e+03
5.833846514377969555e-02 1.662800980054818865e+03
5.967957928317654814e-02 1.622467125549605953e+03
6.102069342257340767e-02 1.582258191748340550e+03
6.236180756197025332e-02 1.542403034542871183e+03
6.370292170136709897e-02 1.503413405021575272e+03
6.504403584076395850e-02 1.464448974811967901e+03
6.638514998016080415e-02 1.423581847913333604e+03
6.772626411955766368e-02 1.380654063765005048e+03
6.906737825895450933e-02 1.337349501010903396e+03
7.040849239835136886e-02 1.289181062317035412e+03
7.174960653774821451e-02 1.244151338902913722e+03
7.309072067714506016e-02 1.199866618213304719e+03
7.443183481654190581e-02 1.157599193299720355e+03
7.577294895593877921e-02 1.114698449649947634e+03
7.711406309533562486e-02 1.073227899206330676e+03
7.845517723473247051e-02 1.030144159142777653e+03
7.979629137412933004e-02 9.903573037441678935e+02
8.113740551352617569e-02 9.497167154421649684e+02
8.247851965292302134e-02 9.135232456985884255e+02
8.381963379231988087e-02 8.724308031072754375e+02
8.516074793171674040e-02 8.324235612552276962e+02
8.650186207111358605e-02 7.984448521151352907e+02
8.784297621051043170e-02 7.599864510420302395e+02
8.918409034990729123e-02 7.266398594120256575e+02
9.052520448930413688e-02 6.925670168179103712e+02
9.186631862870098253e-02 6.595888390691383165e+02
9.320743276809784206e-02 6.266742230510812988e+02
9.454854690749470159e-02 5.949424228282491640e+02
9.588966104689154724e-02 5.654251429523017123e+02
9.723077518628839289e-02 5.363130201492612059e+02
9.857188932568525241e-02 5.045783143540865012e+02
9.991300346508209806e-02 4.764717891010236599e+02
1.012541176044789437e-01 4.513794246645493899e+02
1.025952317438758032e-01 4.256111532633053685e+02
1.039363458832726350e-01 4.002160059367183749e+02
1.052774600226694945e-01 3.760247872585450750e+02
1.066185741620663541e-01 3.525192322663831987e+02
1.079596883014631858e-01 3.313765460781252159e+02
1.093008024408600454e-01 3.114405107925803122e+02
1.106419165802569049e-01 2.895863035965303993e+02
1.119830307196537506e-01 2.700856146736796290e+02
1.133241448590506101e-01 2.524229338672113272e+02
1.146652589984474419e-01 2.343001248228969473e+02
1.160063731378443014e-01 2.161266386387922580e+02
1.173474872772411609e-01 2.002202808688063840e+02
1.186886014166380066e-01 1.851608843875824277e+02
1.200297155560348661e-01 1.721974748958517694e+02
1.213708296954317256e-01 1.586523731465329945e+02
1.227119438348285574e-01 1.463989155515604921e+02
1.240530579742254169e-01 1.341885675006250835e+02
1.253941721136222764e-01 1.232811054808570077e+02
1.267352862530191082e-01 1.121444649378864398e+02
1.280764003924159677e-01 1.015576039949900320e+02
1.294175145318128273e-01 9.253876148500945931e+01
1.307586286712096590e-01 8.468819442398748265e+01
1.320997428106065186e-01 7.715599028421675598e+01
1.334408569500033781e-01 7.013227757412272467e+01
1.347819710894002376e-01 6.299222401844407671e+01
1.361230852287970972e-01 5.612898351281450005e+01
1.374641993681939289e-01 5.036488541163367927e+01
1.388053135075907885e-01 4.542639701476409186e+01
1.401464276469876480e-01 3.990801554702443354e+01
1.414875417863844798e-01 3.605891983357955155e+01
1.428286559257813393e-01 3.150637766248000560e+01
1.441697700651781988e-01 2.844679911500531944e+01
1.455108842045750306e-01 2.595594859102762086e+01
1.468519983439718901e-01 2.261448915140911708e+01
1.481931124833687219e-01 1.994005337735329420e+01
1.495342266227655814e-01 1.834927638063885524e+01
1.508753407621624687e-01 1.615852424100829410e+01
1.522164549015593005e-01 1.446288090389919034e+01
1.535575690409561600e-01 1.335417671535570605e+01
1.548986831803530195e-01 1.198259305013844767e+01
1.562397973197498513e-01 1.108448732545195980e+01
1.575809114591467108e-01 1.030726798197567007e+01
1.589220255985435704e-01 9.767467412282002215e+00
1.602631397379404021e-01 9.776018931069145879e+00
1.616042538773372617e-01 9.518501339905768077e+00
1.629453680167341212e-01 9.196261014877165962e+00
1.642864821561309530e-01 9.214216331605257437e+00
1.656275962955278125e-01 9.445020806671848845e+00
1.669687104349246720e-01 9.106950993237916236e+00
1.683098245743215315e-01 1.033790277876722996e+01
1.696509387137183911e-01 1.056865208144213852e+01
1.709920528531152228e-01 1.056196584434890440e+01
1.723331669925120824e-01 1.089483658026334467e+01
1.736742811319089419e-01 1.116462774375821709e+01
1.750153952713057737e-01 1.144629150912754767e+01
1.763565094107026332e-01 1.167209463657650304e+01
1.776976235500994927e-01 1.246542152861871955e+01
1.790387376894963245e-01 1.364398712759384580e+01
1.803798518288931840e-01 1.364790644680772402e+01
1.817209659682900158e-01 1.352161899099409936e+01
1.830620801076868753e-01 1.420479874478519378e+01
1.844031942470837349e-01 1.534787101440348067e+01
1.857443083864805944e-01 1.573398146801491748e+01
1.870854225258774539e-01 1.598521676706629080e+01
1.884265366652743134e-01 1.632009358874255156e+01
1.897676508046711452e-01 1.685222500977687332e+01
1.911087649440680047e-01 1.682829361629980269e+01
1.924498790834648643e-01 1.688498359814958860e+01
1.937909932228616960e-01 1.735774434198133065e+01
1.951321073622585556e-01 1.697129948946503930e+01
1.964732215016554151e-01 1.701092542055887691e+01
1.978143356410522469e-01 1.797249420496625305e+01
1.991554497804491064e-01 1.822242475316782873e+01
2.004965639198459382e-01 1.732366241147148855e+01
2.018376780592427977e-01 1.756496687696792947e+01
2.031787921986396572e-01 1.742754104089590328e+01
2.045199063380365168e-01 1.730549894971875347e+01
2.058610204774333763e-01 1.724833750990156034e+01
2.072021346168302081e-01 1.753876235005171225e+01
2.085432487562270676e-01 1.718293972579529338e+01
2.098843628956239271e-01 1.650164834418548310e+01
2.112254770350207866e-01 1.613407461346859861e+01
2.125665911744176462e-01 1.597622882141942569e+01
2.139077053138144502e-01 1.590926784708292985e+01
2.152488194532113097e-01 1.572103264676093204e+01
2.165899335926081692e-01 1.512818926483264192e+01
2.179310477320050288e-01 1.430937316829570705e+01
2.192721618714018883e-01 1.413326840218645941e+01
2.206132760107987478e-01 1.339516423407039269e+01
2.219543901501955796e-01 1.304854746055036685e+01
2.232955042895924391e-01 1.298772622357979856e+01
2.246366184289892987e-01 1.263923186518866260e+01
2.259777325683861582e-01 1.146377059649584851e+01
2.273188467077830177e-01 1.052551132470389916e+01
2.286599608471798217e-01 1.130015222668987462e+01
2.300010749865766813e-01 1.066079322693630616e+01
2.313421891259735408e-01 9.427205155561679817e+00
2.326833032653704003e-01 8.565588398582406171e+00
2.340244174047672598e-01 8.307326627747542602e+00
2.353655315441641194e-01 7.663403454112923896e+00
2.367066456835609234e-01 7.643576197822810059e+00
2.380477598229577829e-01 7.070541956200557365e+00
2.393888739623546424e-01 7.001929020939741122e+00
2.407299881017515020e-01 6.755986833629222588e+00
2.420711022411483615e-01 6.655556791953870288e+00
2.434122163805451933e-01 5.487391823947490366e+00
2.447533305199420528e-01 5.336669868422930563e+00
2.460944446593389123e-01 5.294190295790087930e+00
2.474355587987357719e-01 5.066853067044192471e+00
2.487766729381326314e-01 4.611446152420455746e+00
2.501177870775294632e-01 3.798817840463939888e+00
2.514589012169263227e-01 3.783909030481339641e+00
2.528000153563231822e-01 3.416145763310154848e+00
2.541411294957200417e-01 3.505531545174122243e+00
2.554822436351169013e-01 3.620825408163454995e+00
2.568233577745137608e-01 2.845975172745610848e+00
2.581644719139106203e-01 2.758758050834259734e+00
2.595055860533074243e-01 2.679692575826749135e+00
2.608467001927042839e-01 2.771360018016338245e+00
2.621878143321011434e-01 2.823823662497105147e+00
2.635289284714980029e-01 2.213832376717803641e+00
2.648700426108948625e-01 2.066209600956710801e+00
2.662111567502916665e-01 1.929343893798147747e+00
2.675522708896885260e-01 2.074315493533518406e+00
2.688933850290853855e-01 2.462699113062384981e+00
2.702344991684822451e-01 2.036727969812375250e+00
2.715756133078791046e-01 2.182492320239731498e+00
2.729167274472759641e-01 1.996267393917221966e+00
2.742578415866727681e-01 2.343187100906988007e+00
2.755989557260696277e-01 1.882422751768274338e+00
2.769400698654664872e-01 1.725709297346782023e+00
2.782811840048633467e-01 1.930016860205711282e+00
2.796222981442602062e-01 1.245001738879039976e+00
2.809634122836570103e-01 1.597063282256712569e+00
2.823045264230538698e-01 1.575665990868969857e+00
2.836456405624507293e-01 1.692724193863654136e+00
2.849867547018475888e-01 1.729244103665379839e+00
2.863278688412444484e-01 1.920940047673894924e+00
2.876689829806413079e-01 2.052233636477879486e+00
2.890100971200381674e-01 2.428575382342941680e+00
2.903512112594350270e-01 2.314480108369480149e+00
2.916923253988318865e-01 2.233835079455133155e+00
2.930334395382287460e-01 2.316433756331790050e+00
2.943745536776256055e-01 2.881434797599922604e+00
2.957156678170224096e-01 2.426601054713586336e+00
2.970567819564192691e-01 2.028197175296128307e+00
2.983978960958161286e-01 2.041686776577165574e+00
2.997390102352129881e-01 1.806040158997305412e+00
3.010801243746098477e-01 2.316288931102135962e+00
3.024212385140067072e-01 2.774044500832502536e+00
3.037623526534035112e-01 2.722555718582199802e+00
3.051034667928003707e-01 2.257484794326117594e+00
3.064445809321972303e-01 2.601206462591619584e+00
3.077856950715940898e-01 2.877267179266638664e+00
3.091268092109909493e-01 2.552325267989317581e+00
3.104679233503877533e-01 2.820829457513085003e+00
3.118090374897846129e-01 2.848134950914371188e+00
3.131501516291814724e-01 2.262290268585502417e+00
3.144912657685783319e-01 2.175630824825873333e+00
3.158323799079751915e-01 2.179435892645173567e+00
3.171734940473720510e-01 1.948286920630735608e+00
3.185146081867689105e-01 1.983194869321891929e+00
3.198557223261657700e-01 2.267313546288022508e+00
3.211968364655626296e-01 1.989572279710102976e+00
3.225379506049594891e-01 2.179267907636287305e+00
3.238790647443563486e-01 2.649554485495741574e+00
3.252201788837532082e-01 2.436341377261683760e+00
3.265612930231500122e-01 2.357829470479870793e+00
3.279024071625468717e-01 2.537496038071367366e+00
3.292435213019437312e-01 2.259796800876785028e+00
3.305846354413405908e-01 2.045191086644848610e+00
3.319257495807374503e-01 1.931314643883368376e+00
3.332668637201342543e-01 1.849187884143731253e+00
3.346079778595311138e-01 1.789044195413111993e+00
3.359490919989279734e-01 2.163446608008584349e+00
3.372902061383248329e-01 1.817492812799315516e+00
3.386313202777216924e-01 2.313934580634040117e+00
3.399724344171185519e-01 2.073147560657460531e+00
3.413135485565153560e-01 1.947915581709040111e+00
3.426546626959122155e-01 1.757317541122574767e+00
3.439957768353090750e-01 1.722613638419090876e+00
3.453368909747059345e-01 1.559728730855482581e+00
3.466780051141027941e-01 1.631216904344867658e+00
3.480191192534995981e-01 1.350811288822285405e+00
3.493602333928964576e-01 1.157745595517724269e+00
3.507013475322933171e-01 1.313361552375781116e+00
3.520424616716901767e-01 1.606145080355261712e+00
3.533835758110870362e-01 1.603740995823784488e+00
3.547246899504838957e-01 1.400828914844595374e+00
3.560658040898807553e-01 1.458856762520056805e+00
3.574069182292776148e-01 1.523811338757568024e+00
3.587480323686744743e-01 1.063046888285100522e+00
3.600891465080713338e-01 1.707554229824836511e+00
3.614302606474681934e-01 1.760792036219839929e+00
3.627713747868649974e-01 1.771613144384303951e+00
3.641124889262618569e-01 1.454459175939220472e+00
3.654536030656587164e-01 1.037346550704654646e+00
3.667947172050555760e-01 8.791147202115610071e-01
3.681358313444524355e-01 1.124079966775411776e+00
3.694769454838492950e-01 1.160260411822449100e+00
3.708180596232460990e-01 1.167104028129074322e+00
3.721591737626429586e-01 8.455547832735987868e-01
3.735002879020398181e-01 1.119246495988022616e+00
3.748414020414366776e-01 1.396498014817410649e+00
3.761825161808335372e-01 9.019620526020020179e-01
3.775236303202303967e-01 8.508541252092811646e-01
3.788647444596272007e-01 1.624343812696778855e+00
3.802058585990240602e-01 1.380634222119624610e+00
3.815469727384209198e-01 1.167722372828407629e+00
3.828880868778177793e-01 1.439935556167853292e+00
3.842292010172146388e-01 1.202020450366674709e+00
3.855703151566114428e-01 1.348805347230495499e+00
3.869114292960083024e-01 1.461895629534581076e+00
3.882525434354051619e-01 1.086303862749232962e+00
3.895936575748020214e-01 6.740530707617864437e-01
3.909347717141988809e-01 7.692245239642971910e-01
3.922758858535957405e-01 1.013716772071319383e+00
3.936169999929926000e-01 1.290428718716768230e+00
3.949581141323894595e-01 7.558978096040078754e-01
3.962992282717863191e-01 1.296467917852382357e+00
3.976403424111831786e-01 1.409273623795726849e+00
3.989814565505800381e-01 8.868611718325780657e-01
4.003225706899768976e-01 9.567754108943944402e-01
4.016636848293737572e-01 8.914180526749220235e-01
4.030047989687706167e-01 1.080496522723308317e+00
4.043459131081674207e-01 1.123283838624573150e+00
4.056870272475643358e-01 1.254518671593771728e+00
4.070281413869611398e-01 1.210519626810651062e+00
4.083692555263580548e-01 1.156809984761707710e+00
4.097103696657548588e-01 1.310300839152290564e+00
4.110514838051517739e-01 8.389722640172578849e-01
4.123925979445485779e-01 8.937527926772546039e-01
4.137337120839453819e-01 8.430372301797532941e-01
4.150748262233422969e-01 8.533701710410355190e-01
4.164159403627391010e-01 8.136355726367057173e-01
4.177570545021360160e-01 7.981305931070608040e-01
4.190981686415328200e-01 9.256164846084757869e-01
4.204392827809296240e-01 9.064475247650776168e-01
4.217803969203265391e-01 1.284888892848051967e+00
4.231215110597233431e-01 1.215934486874296283e+00
4.244626251991202581e-01 1.052659543934616693e+00
4.258037393385170621e-01 1.108498559182791610e+00
4.271448534779138662e-01 1.377620910334556470e+00
4.284859676173107812e-01 1.304875752972726843e+00
4.298270817567075852e-01 1.362888274742175554e+00
4.311681958961045003e-01 1.651077028993846341e+00
4.325093100355013043e-01 1.326423829018473555e+00
4.338504241748981638e-01 7.114959555468942654e-01
4.351915383142950233e-01 8.949902514222927152e-01
4.365326524536918829e-01 1.193941884093788985e+00
4.378737665930887424e-01 1.220520569221939411e+00
4.392148807324856019e-01 1.108785587905529724e+00
4.405559948718824614e-01 1.292012602660001619e+00
4.418971090112793210e-01 1.412981197666198341e+00
4.432382231506761250e-01 1.269534023329867978e+00
4.445793372900730400e-01 7.515504433517534721e-01
4.459204514294698440e-01 8.313381160169299733e-01
4.472615655688667591e-01 9.396457807780080884e-01
4.486026797082635631e-01 1.048088831464063730e+00
4.499437938476603671e-01 1.096665276001694167e+00
4.512849079870572822e-01 9.261179303904398807e-01
4.526260221264540862e-01 1.015877690930160782e+00
4.539671362658510012e-01 1.138251795206983275e+00
4.553082504052478052e-01 1.176121140489534866e+00
4.566493645446446092e-01 6.485845175872100299e-01
4.579904786840415243e-01 5.789602232532615744e-01
4.593315928234383283e-01 6.635403220293554227e-01
4.606727069628352433e-01 8.300015582771465006e-01
4.620138211022320474e-01 7.151789193424207269e-01
4.633549352416289624e-01 6.420918833541406912e-01
4.646960493810257664e-01 9.181999853702293990e-01
4.660371635204225704e-01 9.907402760727919144e-01
4.673782776598194855e-01 1.039958429076676794e+00
4.687193917992162895e-01 1.031708635108543604e+00
4.700605059386132045e-01 1.031212841371321076e+00
4.714016200780100085e-01 7.915206651907453761e-01
4.727427342174068681e-01 6.711587021424065824e-01
4.740838483568037276e-01 3.984582576695387957e-01
4.754249624962005871e-01 3.938478357513872652e-01
4.767660766355974467e-01 3.435269955239306228e-01
4.781071907749943062e-01 6.086204296064110508e-01
4.794483049143911102e-01 5.640141788870423056e-01
4.807894190537880252e-01 6.909875158629859015e-01
4.821305331931848293e-01 5.580720445284512721e-01
4.834716473325817443e-01 5.283008429531577121e-01
4.848127614719785483e-01 6.857767413501534293e-01
4.861538756113753523e-01 9.521861328280536441e-01
4.874949897507722674e-01 1.173636606864377541e+00
4.888361038901690714e-01 8.749469672586158708e-01
4.901772180295659864e-01 7.462502721029764530e-01
4.915183321689627904e-01 4.310029647001698550e-01
4.928594463083597055e-01 5.706055584286957583e-01
4.942005604477565095e-01 7.604007118262643417e-01
4.955416745871533135e-01 5.840867255373041189e-01
4.968827887265502286e-01 6.990156399654310349e-01
4.982239028659470326e-01 6.176726324305263915e-01
4.995650170053439476e-01 5.393628517620072671e-01
5.009061311447408071e-01 7.716079910683149023e-01
5.022472452841375556e-01 6.959073748452482278e-01
5.035883594235345262e-01 9.328473137746584598e-01
5.049294735629312747e-01 1.023061278750951431e+00
5.062705877023282452e-01 1.011631547178261314e+00
5.076117018417249938e-01 8.016052443618804091e-01
5.089528159811218533e-01 5.330638078196514584e-01
5.102939301205187128e-01 4.965304629304299056e-01
5.116350442599155723e-01 6.290708235879876042e-01
5.129761583993124319e-01 5.786338740257832569e-01
5.143172725387092914e-01 3.572026915567860783e-01
5.156583866781061509e-01 3.375670377804524946e-01
5.169995008175030105e-01 1.530979777277323706e-01
5.183406149568997590e-01 4.020283665897679271e-01
5.196817290962967295e-01 4.979516045668361812e-01
5.210228432356934780e-01 4.119553534601365641e-01
5.223639573750904486e-01 5.661371149359908372e-01
5.237050715144871971e-01 5.523966935763695574e-01
5.250461856538840566e-01 6.532864373102285072e-01
5.263872997932809161e-01 4.820396849172894349e-01
5.277284139326777757e-01 8.599507544744540155e-01
5.290695280720746352e-01 8.895570582535370363e-01
5.304106422114714947e-01 9.127423894893169631e-01
5.317517563508683542e-01 8.643111847941753467e-01
5.330928704902652138e-01 7.332625768318834503e-01
5.344339846296620733e-01 7.768219799245912327e-01
5.357750987690589328e-01 7.150668710161198760e-01
5.371162129084557924e-01 8.002493472356633220e-01
5.384573270478525409e-01 1.055101239961352633e+00
5.397984411872495114e-01 1.030107643622947933e+00
5.411395553266462599e-01 1.182469115281278960e+00
5.424806694660432305e-01 9.266531753163818053e-01
5.438217836054399790e-01 5.499673327138978607e-01
5.451628977448369495e-01 6.204395625809908665e-01
5.465040118842336980e-01 5.552387466824484363e-01
5.478451260236305576e-01 7.310934163243487660e-01
5.491862401630274171e-01 6.167181857599004502e-01
5.505273543024242766e-01 5.092245713404395246e-01
5.518684684418211361e-01 4.690096897110862528e-01
5.532095825812179957e-01 4.213187163890452780e-01
5.545506967206147442e-01 7.243599361762633748e-01
