# q (1/Angstrom), Intensity (arb)
2.078726924066784734e-02 5.198541257910123932e+02
2.212838338006469993e-02 8.431053299451469911e+02
2.346949751946154905e-02 1.209352692490024538e+03
2.481061165885840164e-02 1.713435989090777639e+03
2.615172579825525423e-02 1.960964045881157745e+03
2.749283993765210335e-02 2.059363726145975306e+03
2.883395407704895941e-02 2.139117624985553448e+03
3.017506821644580506e-02 2.186422319120546490e+03
3.151618235584265765e-02 2.194052918707998742e+03
3.285729649523951718e-02 2.181068217083292438e+03
3.419841063463636283e-02 2.163830238618327257e+03
3.553952477403321542e-02 2.148849762094533162e+03
3.688063891343006800e-02 2.126058192560768020e+03
3.822175305282692059e-02 2.094681592383958105e+03
3.956286719222376624e-02 2.072199609201750263e+03
4.090398133162062577e-02 2.043868375020579379e+03
4.224509547101747142e-02 2.008149221277365086e+03
4.358620961041432401e-02 1.983224187793020064e+03
4.492732374981117660e-02 1.955361661777529662e+03
4.626843788920802919e-02 1.934000554467837219e+03
4.760955202860488178e-02 1.909570432981733802e+03
4.895066616800172743e-02 1.874182156909117111e+03
5.029178030739858696e-02 1.844280065331545529e+03
5.163289444679544649e-02 1.814284569059499972e+03
5.297400858619229214e-02 1.784865096541947651e+03
5.431512272558913779e-02 1.747760354491214230e+03
5.565623686498599731e-02 1.709794322819760964e+03
5.699735100438284990e-02 1.668430406193256431e+03
5.833846514377969555e-02 1.634254337478649859e+03
5.967957928317654814e-02 1.595925329061935145e+03
6.102069342257340767e-02 1.555321941760688105e+03
6.236180756197025332e-02 1.514798798300915678e+03
6.370292170136709897e-02 1.477828792130327201e+03
6.504403584076395850e-02 1.438353726131275835e+03
6.638514998016080415e-02 1.397138898778099474e+03
6.772626411955766368e-02 1.353505553126539098e+03
6.906737825895450933e-02 1.309906055802692890e+03
7.040849239835136886e-02 1.266379870689178915e+03
7.174960653774821451e-02 1.222306968448877114e+03
7.309072067714506016e-02 1.177632121344710413e+03
7.443183481654190581e-02 1.136098583651549461e+03
7.577294895593877921e-02 1.096757796618755037e+03
7.711406309533562486e-02 1.055879880524463033e+03
7.845517723473247051e-02 1.011571148435846112e+03
7.979629137412933004e-02 9.699761713022610365e+02
8.113740551352617569e-02 9.305648806440561884e+02
8.247851965292302134e-02 8.947406336170751047e+02
8.381963379231988087e-02 8.593415867379699193e+02
8.516074793171674040e-02 8.244614297070571638e+02
8.650186207111358605e-02 7.867857102301327359e+02
8.784297621051043170e-02 7.474882765854938498e+02
8.918409034990729123e-02 7.144665728039213946e+02
9.052520448930413688e-02 6.845282448454264568e+02
9.186631862870098253e-02 6.496232176273897494e+02
9.320743276809784206e-02 6.164707681423150234e+02
9.454854690749470159e-02 5.851824116523888506e+02
9.588966104689154724e-02 5.549661813018153680e+02
9.723077518628839289e-02 5.276511286619521570e+02
9.857188932568525241e-02 4.986380285345596235e+02
9.991300346508209806e-02 4.707614992950353212e+02
1.012541176044789437e-01 4.432001559313079611e+02
1.025952317438758032e-01 4.189093900796094090e+02
1.039363458832726350e-01 3.938045187217562670e+02
1.052774600226694945e-01 3.713926200174572614e+02
1.066185741620663541e-01 3.490161631989965372e+02
1.079596883014631858e-01 3.276818747805963881e+02
1.093008024408600454e-01 3.076572111223127877e+02
1.106419165802569049e-01 2.860449779889964930e+02
1.119830307196537506e-01 2.669225924600652888e+02
1.133241448590506101e-01 2.502917903689254331e+02
1.146652589984474419e-01 2.327200070844565971e+02
1.160063731378443014e-01 2.161177478168077641e+02
1.173474872772411609e-01 2.004861376969552111e+02
1.186886014166380066e-01 1.852167162380261232e+02
1.200297155560348661e-01 1.705360401826652890e+02
1.213708296954317256e-01 1.572851693748962134e+02
1.227119438348285574e-01 1.445689793760751627e+02
1.240530579742254169e-01 1.312269447366426789e+02
1.253941721136222764e-01 1.211331280382661646e+02
1.267352862530191082e-01 1.113185288636894796e+02
1.280764003924159677e-01 1.013036132923189996e+02
1.294175145318128273e-01 9.269013026766242547e+01
1.307586286712096590e-01 8.462809062780577563e+01
1.320997428106065186e-01 7.601377304622710085e+01
1.334408569500033781e-01 6.845735687493514376e+01
1.347819710894002376e-01 6.228200285125913638e+01
1.361230852287970972e-01 5.552901319842389682e+01
1.374641993681939289e-01 4.945908938218630624e+01
1.388053135075907885e-01 4.466775409245545347e+01
1.401464276469876480e-01 3.943270113246626352e+01
1.414875417863844798e-01 3.505031752616696394e+01
1.428286559257813393e-01 3.143553886982991230e+01
1.441697700651781988e-01 2.871826797911081997e+01
1.455108842045750306e-01 2.563513981458292790e+01
1.468519983439718901e-01 2.296949334778517482e+01
1.481931124833687219e-01 1.994820514385867227e+01
1.495342266227655814e-01 1.816617668571204547e+01
1.508753407621624687e-01 1.628760062413215337e+01
1.522164549015593005e-01 1.427287461459448537e+01
1.535575690409561600e-01 1.341945959699948787e+01
1.548986831803530195e-01 1.276649764976704660e+01
1.562397973197498513e-01 1.136536296021279213e+01
1.575809114591467108e-01 1.015796915120239419e+01
1.589220255985435704e-01 9.686385487621407719e+00
1.602631397379404021e-01 9.448170631337205805e+00
1.616042538773372617e-01 9.274472768700192660e+00
1.629453680167341212e-01 8.543088060142537188e+00
1.642864821561309530e-01 8.417190209969177772e+00
1.656275962955278125e-01 9.003765022637168158e+00
1.669687104349246720e-01 9.089004919246534087e+00
1.683098245743215315e-01 9.104521225141425589e+00
1.696509387137183911e-01 9.813591046789483130e+00
1.709920528531152228e-01 1.065263980227696550e+01
1.723331669925120824e-01 1.091392105670701085e+01
1.736742811319089419e-01 1.136294581166512785e+01
1.750153952713057737e-01 1.196451535083956230e+01
1.763565094107026332e-01 1.239380631730035986e+01
1.776976235500994927e-01 1.262806519823162432e+01
1.790387376894963245e-01 1.302829522445647115e+01
1.803798518288931840e-01 1.332614866613911886e+01
1.817209659682900158e-01 1.372984275872228466e+01
1.830620801076868753e-01 1.435277086865049512e+01
1.844031942470837349e-01 1.511449475442040580e+01
1.857443083864805944e-01 1.523565470382823150e+01
1.870854225258774539e-01 1.570612876704971939e+01
1.884265366652743134e-01 1.535444396850380144e+01
1.897676508046711452e-01 1.628293716501231359e+01
1.911087649440680047e-01 1.665557675844760865e+01
1.924498790834648643e-01 1.689937665424228896e+01
1.937909932228616960e-01 1.733976701639154783e+01
1.951321073622585556e-01 1.686493251182602648e+01
1.964732215016554151e-01 1.663995464628486332e+01
1.978143356410522469e-01 1.712801602995999417e+01
1.991554497804491064e-01 1.715069494539680761e+01
2.004965639198459382e-01 1.680522798006938956e+01
2.018376780592427977e-01 1.704709664450935236e+01
2.031787921986396572e-01 1.745406058210676292e+01
2.045199063380365168e-01 1.706267458804445880e+01
2.058610204774333763e-01 1.669009079796876449e+01
2.072021346168302081e-01 1.671847897597317001e+01
2.085432487562270676e-01 1.655997204396341260e+01
2.098843628956239271e-01 1.625297830268462462e+01
2.112254770350207866e-01 1.596487268590914255e+01
2.125665911744176462e-01 1.570585463815406513e+01
2.139077053138144502e-01 1.507715048856064755e+01
2.152488194532113097e-01 1.460381078455912984e+01
2.165899335926081692e-01 1.466687732638749253e+01
2.179310477320050288e-01 1.408117301503222052e+01
2.192721618714018883e-01 1.366988265212975762e+01
2.206132760107987478e-01 1.308072011158027692e+01
2.219543901501955796e-01 1.280235892270427200e+01
2.232955042895924391e-01 1.290827083220231941e+01
2.246366184289892987e-01 1.263730272047628489e+01
2.259777325683861582e-01 1.223824924978134732e+01
2.273188467077830177e-01 1.121672478360184755e+01
2.286599608471798217e-01 1.078163665197052978e+01
2.300010749865766813e-01 9.845669770986930303e+00
2.313421891259735408e-01 9.417751351414011651e+00
2.326833032653704003e-01 9.333033062482456899e+00
2.340244174047672598e-01 8.906486977572114938e+00
2.353655315441641194e-01 7.952487724351584575e+00
2.367066456835609234e-01 7.784434990859026016e+00
2.380477598229577829e-01 7.117737913809705219e+00
2.393888739623546424e-01 6.879340926117436084e+00
2.407299881017515020e-01 6.791133608694607915e+00
2.420711022411483615e-01 6.999411051442322673e+00
2.434122163805451933e-01 5.938577534164409144e+00
2.447533305199420528e-01 5.486355167365800867e+00
2.460944446593389123e-01 5.259859020794820594e+00
2.474355587987357719e-01 5.215982727994827428e+00
2.487766729381326314e-01 4.898590502887643083e+00
2.501177870775294632e-01 4.294227237041454259e+00
2.514589012169263227e-01 4.065272704223900746e+00
2.528000153563231822e-01 3.356495289697491557e+00
2.541411294957200417e-01 3.389719587252912447e+00
2.554822436351169013e-01 3.380054077736375007e+00
2.568233577745137608e-01 3.100370737507390118e+00
2.581644719139106203e-01 2.380711066507871010e+00
2.595055860533074243e-01 2.353413253410479911e+00
2.608467001927042839e-01 2.549290562685015971e+00
2.621878143321011434e-01 2.653461878288567277e+00
2.635289284714980029e-01 2.232395359667052048e+00
2.648700426108948625e-01 2.199238994532080937e+00
2.662111567502916665e-01 2.254535756713480055e+00
2.675522708896885260e-01 1.858080472621864487e+00
2.688933850290853855e-01 1.548477825768230787e+00
2.702344991684822451e-01 2.048098167010792281e+00
2.715756133078791046e-01 2.724291123570807827e+00
2.729167274472759641e-01 2.613585773080828289e+00
2.742578415866727681e-01 2.180515519588112738e+00
2.755989557260696277e-01 1.229102970827057106e+00
2.769400698654664872e-01 1.325815970791495602e+00
2.782811840048633467e-01 1.791403443434674614e+00
2.796222981442602062e-01 1.588732483125497197e+00
2.809634122836570103e-01 1.774568666119478166e+00
2.823045264230538698e-01 1.599709073618512889e+00
2.836456405624507293e-01 1.741861284142061095e+00
2.849867547018475888e-01 2.076487817511676326e+00
2.863278688412444484e-01 1.898642441811048798e+00
2.876689829806413079e-01 2.123673651165560727e+00
2.890100971200381674e-01 2.447167698446691020e+00
2.903512112594350270e-01 1.806900878956952283e+00
2.916923253988318865e-01 1.884096710669282970e+00
2.930334395382287460e-01 1.821400392547616320e+00
2.943745536776256055e-01 2.439495424765880216e+00
2.957156678170224096e-01 2.222652949540247391e+00
2.970567819564192691e-01 2.187967893267668273e+00
2.983978960958161286e-01 2.284480252293519698e+00
2.997390102352129881e-01 2.573789227746630104e+00
3.010801243746098477e-01 2.608939402968715626e+00
3.024212385140067072e-01 2.594684089889327083e+00
3.037623526534035112e-01 2.666175914803517344e+00
3.051034667928003707e-01 2.763374167664125025e+00
3.064445809321972303e-01 2.455594920697592443e+00
3.077856950715940898e-01 2.532008450396190824e+00
3.091268092109909493e-01 2.114363529051274782e+00
3.104679233503877533e-01 2.581853514176302156e+00
3.118090374897846129e-01 2.798842825647625432e+00
3.131501516291814724e-01 2.548773485278772455e+00
3.144912657685783319e-01 2.426738514702776683e+00
3.158323799079751915e-01 2.697167289488717756e+00
3.171734940473720510e-01 2.075063431725212126e+00
3.185146081867689105e-01 2.149563226073524902e+00
3.198557223261657700e-01 2.441881937077454268e+00
3.211968364655626296e-01 1.925689774598708937e+00
3.225379506049594891e-01 2.032920735461303252e+00
3.238790647443563486e-01 2.583018815070602159e+00
3.252201788837532082e-01 2.547982742905531950e+00
3.265612930231500122e-01 2.536159753784602344e+00
3.279024071625468717e-01 2.352424659336193713e+00
3.292435213019437312e-01 2.619084247473480787e+00
3.305846354413405908e-01 2.625899614272967142e+00
3.319257495807374503e-01 2.074345046422479300e+00
3.332668637201342543e-01 1.924220324211319166e+00
3.346079778595311138e-01 1.784883302524463033e+00
3.359490919989279734e-01 2.057112716751106518e+00
3.372902061383248329e-01 1.861415410322507569e+00
3.386313202777216924e-01 2.198613527817002478e+00
3.399724344171185519e-01 1.868415692279711493e+00
3.413135485565153560e-01 1.782034245330706312e+00
3.426546626959122155e-01 1.709801580874653837e+00
3.439957768353090750e-01 1.965670397422286442e+00
3.453368909747059345e-01 1.724756752210950594e+00
3.466780051141027941e-01 1.472897002107842468e+00
3.480191192534995981e-01 1.204798943224830055e+00
3.493602333928964576e-01 1.393247428342561989e+00
3.507013475322933171e-01 1.646762483553729339e+00
3.520424616716901767e-01 1.769512042807804164e+00
3.533835758110870362e-01 1.504737801979104006e+00
3.547246899504838957e-01 9.095094395959506528e-01
3.560658040898807553e-01 9.882362903009749289e-01
3.574069182292776148e-01 1.151282678017850003e+00
3.587480323686744743e-01 9.476955493898486793e-01
3.600891465080713338e-01 1.179634103074036489e+00
3.614302606474681934e-01 1.263515366156866548e+00
3.627713747868649974e-01 1.431128167780798321e+00
3.641124889262618569e-01 1.539165679206135451e+00
3.654536030656587164e-01 1.538546260136854471e+00
3.667947172050555760e-01 1.283080061190560173e+00
3.681358313444524355e-01 1.429379660671287411e+00
3.694769454838492950e-01 1.215147926477925466e+00
3.708180596232460990e-01 1.364019906263763460e+00
3.721591737626429586e-01 1.276532669276861043e+00
3.735002879020398181e-01 1.367997037036772667e+00
3.748414020414366776e-01 8.903926504890620208e-01
3.761825161808335372e-01 6.817110938062995729e-01
3.775236303202303967e-01 4.824815387606662398e-01
3.788647444596272007e-01 1.283982266961729124e+00
3.802058585990240602e-01 1.414544140121591909e+00
3.815469727384209198e-01 1.359507523583516786e+00
3.828880868778177793e-01 1.545836106327030279e+00
3.842292010172146388e-01 1.164182451237223859e+00
3.855703151566114428e-01 1.134355460519245185e+00
3.869114292960083024e-01 1.465929951491276029e+00
3.882525434354051619e-01 9.147695922083727282e-01
3.895936575748020214e-01 9.216731884880431380e-01
3.909347717141988809e-01 1.054115503980298740e+00
3.922758858535957405e-01 1.123891822672462126e+00
3.936169999929926000e-01 1.437707792962250153e+00
3.949581141323894595e-01 8.745016026006453558e-01
3.962992282717863191e-01 1.207573447608169204e+00
3.976403424111831786e-01 1.398224977961994853e+00
3.989814565505800381e-01 1.137754725889529084e+00
4.003225706899768976e-01 9.244437271302246018e-01
4.016636848293737572e-01 9.539375147711908198e-01
4.030047989687706167e-01 1.093090342582499375e+00
4.043459131081674207e-01 1.063595722122627762e+00
4.056870272475643358e-01 9.923828062706832043e-01
4.070281413869611398e-01 1.053374456778797708e+00
4.083692555263580548e-01 1.048676892063376442e+00
4.097103696657548588e-01 1.147768034272871773e+00
4.110514838051517739e-01 1.341204003505566789e+00
4.123925979445485779e-01 1.222440387611840151e+00
4.137337120839453819e-01 1.180601278700621037e+00
4.150748262233422969e-01 1.011314736803250014e+00
4.164159403627391010e-01 1.116533131342528407e+00
4.177570545021360160e-01 9.686482870678716495e-01
4.190981686415328200e-01 6.372100065132642044e-01
4.204392827809296240e-01 6.254194708673921355e-01
4.217803969203265391e-01 9.707688761303430169e-01
4.231215110597233431e-01 9.778878493097167279e-01
4.244626251991202581e-01 1.033661270023955581e+00
4.258037393385170621e-01 1.318269084211927122e+00
4.271448534779138662e-01 1.285554501742673494e+00
4.284859676173107812e-01 1.002460865520831135e+00
4.298270817567075852e-01 1.033394423814385732e+00
4.311681958961045003e-01 1.122787240872987979e+00
4.325093100355013043e-01 1.142741545458640928e+00
4.338504241748981638e-01 8.280429255039933878e-01
4.351915383142950233e-01 1.112566184774784972e+00
4.365326524536918829e-01 1.016953838353131800e+00
4.378737665930887424e-01 1.039254351633545070e+00
4.392148807324856019e-01 8.132496214277864510e-01
4.405559948718824614e-01 8.777359612991730842e-01
4.418971090112793210e-01 1.328061061491844441e+00
4.432382231506761250e-01 1.215775012443536696e+00
4.445793372900730400e-01 1.093660796683820990e+00
4.459204514294698440e-01 8.785064917321889766e-01
4.472615655688667591e-01 1.182063631941211668e+00
4.486026797082635631e-01 1.261965672690166684e+00
4.499437938476603671e-01 1.319527997653963780e+00
4.512849079870572822e-01 1.092451402254617676e+00
4.526260221264540862e-01 1.429004973332283157e+00
4.539671362658510012e-01 1.395511529582165622e+00
4.553082504052478052e-01 1.438704848400924163e+00
4.566493645446446092e-01 9.304738384081332470e-01
4.579904786840415243e-01 7.171981954029860162e-01
4.593315928234383283e-01 1.094204634550671074e+00
4.606727069628352433e-01 1.016483428009195222e+00
4.620138211022320474e-01 7.764640788381669267e-01
4.633549352416289624e-01 7.091547474885189217e-01
4.646960493810257664e-01 7.316200717788703400e-01
4.660371635204225704e-01 8.706666707809418426e-01
4.673782776598194855e-01 1.078794598011896255e+00
4.687193917992162895e-01 1.295342949417275236e+00
4.700605059386132045e-01 1.111967133838575705e+00
4.714016200780100085e-01 6.812696556930717406e-01
4.727427342174068681e-01 8.256779929913093952e-01
4.740838483568037276e-01 7.471445384158386105e-01
4.754249624962005871e-01 7.586441461123882846e-01
4.767660766355974467e-01 6.803179568919190956e-01
4.781071907749943062e-01 7.055743868177586364e-01
4.794483049143911102e-01 8.562766638967858057e-01
4.807894190537880252e-01 9.621379909333356295e-01
4.821305331931848293e-01 9.039042230236518094e-01
4.834716473325817443e-01 7.249845401749723806e-01
4.848127614719785483e-01 7.432612215283143087e-01
4.861538756113753523e-01 9.235872335107728759e-01
4.874949897507722674e-01 9.495610176214839271e-01
4.888361038901690714e-01 9.165745394565405491e-01
4.901772180295659864e-01 8.070138127789050486e-01
4.915183321689627904e-01 5.434099899214430707e-01
4.928594463083597055e-01 4.769349541957979000e-01
4.942005604477565095e-01 6.455282272197067073e-01
4.955416745871533135e-01 6.222596726695357461e-01
4.968827887265502286e-01 5.294170194620519965e-01
4.982239028659470326e-01 3.011270745528804582e-01
4.995650170053439476e-01 4.566247975950687987e-01
5.009061311447408071e-01 5.637327455261029741e-01
5.022472452841375556e-01 3.890650168113722884e-01
5.035883594235345262e-01 8.214027873982630013e-01
5.049294735629312747e-01 8.313339084143223090e-01
5.062705877023282452e-01 7.785505017684002382e-01
5.076117018417249938e-01 8.466515117403616841e-01
5.089528159811218533e-01 5.592735529809189643e-01
5.102939301205187128e-01 3.409252864731513455e-01
5.116350442599155723e-01 6.590598961116924670e-01
5.129761583993124319e-01 4.701084752826218960e-01
5.143172725387092914e-01 4.718802415604699263e-01
5.156583866781061509e-01 2.698387647816815615e-01
5.169995008175030105e-01 3.020690289129959183e-01
5.183406149568997590e-01 4.595452086965821081e-01
5.196817290962967295e-01 5.197923046885222220e-01
5.210228432356934780e-01 3.091469896125005334e-01
5.223639573750904486e-01 7.335061851085526996e-01
5.237050715144871971e-01 7.200542705226169460e-01
5.250461856538840566e-01 5.632326176530852990e-01
5.263872997932809161e-01 6.215276592109475473e-01
5.277284139326777757e-01 1.075679683694424682e+00
5.290695280720746352e-01 7.913331442824329542e-01
5.304106422114714947e-01 7.459197333937694907e-01
5.317517563508683542e-01 8.219689391208717666e-01
5.330928704902652138e-01 6.445840266004267960e-01
5.344339846296620733e-01 8.573053546124143054e-01
5.357750987690589328e-01 8.428267370245308143e-01
5.371162129084557924e-01 8.162407024272937406e-01
5.384573270478525409e-01 7.766159665012040136e-01
5.397984411872495114e-01 8.774634634387368237e-01
5.411395553266462599e-01 1.159452269691627180e+00
5.424806694660432305e-01 9.370348910031580658e-01
5.438217836054399790e-01 5.579647581420488223e-01
5.451628977448369495e-01 4.669918580856489143e-01
5.465040118842336980e-01 5.644421229529044126e-01
5.478451260236305576e-01 6.307994151850024878e-01
5.491862401630274171e-01 5.205740285930957612e-01
5.505273543024242766e-01 2.430372949190342524e-01
5.518684684418211361e-01 3.926174682593810417e-01
5.532095825812179957e-01 6.893530532417457835e-01
5.545506967206147442e-01 6.516564245672427091e-01
