# q (1/Angstrom), Intensity (arb)
2.078726924066784734e-02 5.200230186327398769e+02
2.212838338006469993e-02 8.342501817403212954e+02
2.346949751946154905e-02 1.195998816606243054e+03
2.481061165885840164e-02 1.699634579684428900e+03
2.615172579825525423e-02 1.933014619530066966e+03
2.749283993765210335e-02 2.035041028360506516e+03
2.883395407704895941e-02 2.117137287053345972e+03
3.017506821644580506e-02 2.169345138957276959e+03
3.151618235584265765e-02 2.177061483281938763e+03
3.285729649523951718e-02 2.168277614462036581e+03
3.419841063463636283e-02 2.150724616601618436e+03
3.553952477403321542e-02 2.122392191770178215e+03
3.688063891343006800e-02 2.099251986568172924e+03
3.822175305282692059e-02 2.080179907345785978e+03
3.956286719222376624e-02 2.056349271202889668e+03
4.090398133162062577e-02 2.026184346994614543e+03
4.224509547101747142e-02 1.989248348686497820e+03
4.358620961041432401e-02 1.965994351058207258e+03
4.492732374981117660e-02 1.942806691770806538e+03
4.626843788920802919e-02 1.915034283955508727e+03
4.760955202860488178e-02 1.897691686050703083e+03
4.895066616800172743e-02 1.867647397759311616e+03
5.029178030739858696e-02 1.831252954120394179e+03
5.163289444679544649e-02 1.799754288959825089e+03
5.297400858619229214e-02 1.769518665265487016e+03
5.431512272558913779e-02 1.733599627795183096e+03
5.565623686498599731e-02 1.695316065290559209e+03
5.699735100438284990e-02 1.652372196576163560e+03
5.833846514377969555e-02 1.617672308147453805e+03
5.967957928317654814e-02 1.583479236551185068e+03
6.102069342257340767e-02 1.548026449392405539e+03
6.236180756197025332e-02 1.504571517286043672e+03
6.370292170136709897e-02 1.465353700726114084e+03
6.504403584076395850e-02 1.433800789705370335e+03
6.638514998016080415e-02 1.390544526971084224e+03
6.772626411955766368e-02 1.347220621536707768e+03
6.906737825895450933e-02 1.304519329945797153e+03
7.040849239835136886e-02 1.259007895236401737e+03
7.174960653774821451e-02 1.217995836966287470e+03
7.309072067714506016e-02 1.172163453368120599e+03
7.443183481654190581e-02 1.128703546633163569e+03
7.577294895593877921e-02 1.086258517526227934e+03
7.711406309533562486e-02 1.045046329265206168e+03
7.845517723473247051e-02 1.003990057754695840e+03
7.979629137412933004e-02 9.671649108371752845e+02
8.113740551352617569e-02 9.312799854996542308e+02
8.247851965292302134e-02 8.883216573263953251e+02
8.381963379231988087e-02 8.523083642624264940e+02
8.516074793171674040e-02 8.171879431763416051e+02
8.650186207111358605e-02 7.810313212426285645e+02
8.784297621051043170e-02 7.465982294080788506e+02
8.918409034990729123e-02 7.114553120741055636e+02
9.052520448930413688e-02 6.792308337295449974e+02
9.186631862870098253e-02 6.442674959775832804e+02
9.320743276809784206e-02 6.117690346323099675e+02
9.454854690749470159e-02 5.836487157956581768e+02
9.588966104689154724e-02 5.534161359854206239e+02
9.723077518628839289e-02 5.243600959678313984e+02
9.857188932568525241e-02 4.957461051714685141e+02
9.991300346508209806e-02 4.671502917409104612e+02
1.012541176044789437e-01 4.409725066510303577e+02
1.025952317438758032e-01 4.173414814943438387e+02
1.039363458832726350e-01 3.916495225884327738e+02
1.052774600226694945e-01 3.680000621814356805e+02
1.066185741620663541e-01 3.475242220136099718e+02
1.079596883014631858e-01 3.262249436408162637e+02
1.093008024408600454e-01 3.050010532354451698e+02
1.106419165802569049e-01 2.843007756994625765e+02
1.119830307196537506e-01 2.664229425041358468e+02
1.133241448590506101e-01 2.475757923299872800e+02
1.146652589984474419e-01 2.293101557781371298e+02
1.160063731378443014e-01 2.135030974110278521e+02
1.173474872772411609e-01 1.989676889864009581e+02
1.186886014166380066e-01 1.826813262414426902e+02
1.200297155560348661e-01 1.708021567920779376e+02
1.213708296954317256e-01 1.581908493024818085e+02
1.227119438348285574e-01 1.445812660045143616e+02
1.240530579742254169e-01 1.319421492248451386e+02
1.253941721136222764e-01 1.214898067509998754e+02
1.267352862530191082e-01 1.113887617438309405e+02
1.280764003924159677e-01 1.019976527543184517e+02
1.294175145318128273e-01 9.205345040318840688e+01
1.307586286712096590e-01 8.303405680326058302e+01
1.320997428106065186e-01 7.524659001193529662e+01
1.334408569500033781e-01 6.763307535287576400e+01
1.347819710894002376e-01 6.167007531441724666e+01
1.361230852287970972e-01 5.547209944581408081e+01
1.374641993681939289e-01 4.984321248612336319e+01
1.388053135075907885e-01 4.456912933638093932e+01
1.401464276469876480e-01 3.938684189457725893e+01
1.414875417863844798e-01 3.565065925357990295e+01
1.428286559257813393e-01 3.166943642379119694e+01
1.441697700651781988e-01 2.882738323719017615e+01
1.455108842045750306e-01 2.548061838916912336e+01
1.468519983439718901e-01 2.194424304534905446e+01
1.481931124833687219e-01 1.959299541436681125e+01
1.495342266227655814e-01 1.791929006506281041e+01
1.508753407621624687e-01 1.602992547300644333e+01
1.522164549015593005e-01 1.399713944057072013e+01
1.535575690409561600e-01 1.333423226434896947e+01
1.548986831803530195e-01 1.174905653712737319e+01
1.562397973197498513e-01 1.040622646534548323e+01
1.575809114591467108e-01 9.769837210964212204e+00
1.589220255985435704e-01 9.830979680587702774e+00
1.602631397379404021e-01 9.604610778299971230e+00
1.616042538773372617e-01 8.609161964672864542e+00
1.629453680167341212e-01 8.462134711408140220e+00
1.642864821561309530e-01 8.127694498249937283e+00
1.656275962955278125e-01 8.165327523190569536e+00
1.669687104349246720e-01 8.167039711120921197e+00
1.683098245743215315e-01 8.729706425614494947e+00
1.696509387137183911e-01 9.686125499693332586e+00
1.709920528531152228e-01 1.045823596546435397e+01
1.723331669925120824e-01 1.033890544823393043e+01
1.736742811319089419e-01 1.100626717649532793e+01
1.750153952713057737e-01 1.189409334232328774e+01
1.763565094107026332e-01 1.199410766241088311e+01
1.776976235500994927e-01 1.229230841506397098e+01
1.790387376894963245e-01 1.319169879267994361e+01
1.803798518288931840e-01 1.378300580923055918e+01
1.817209659682900158e-01 1.330354942920710926e+01
1.830620801076868753e-01 1.335215828910742175e+01
1.844031942470837349e-01 1.404262930110009222e+01
1.857443083864805944e-01 1.478148560240968834e+01
1.870854225258774539e-01 1.541718017681823483e+01
1.884265366652743134e-01 1.588674385058553185e+01
1.897676508046711452e-01 1.632385077616926594e+01
1.911087649440680047e-01 1.671928715121006803e+01
1.924498790834648643e-01 1.674596849105344631e+01
1.937909932228616960e-01 1.677803871079920839e+01
1.951321073622585556e-01 1.605430892455528635e+01
1.964732215016554151e-01 1.657093931667878906e+01
1.978143356410522469e-01 1.683561404154582419e+01
1.991554497804491064e-01 1.675314400067037468e+01
2.004965639198459382e-01 1.694077342326201574e+01
2.018376780592427977e-01 1.763528798386488461e+01
2.031787921986396572e-01 1.706320280886239971e+01
2.045199063380365168e-01 1.643603447900717640e+01
2.058610204774333763e-01 1.624258996936853805e+01
2.072021346168302081e-01 1.604525273663261942e+01
2.085432487562270676e-01 1.627250827397143951e+01
2.098843628956239271e-01 1.599564906218397198e+01
2.112254770350207866e-01 1.535878236119323503e+01
2.125665911744176462e-01 1.547566666300053839e+01
2.139077053138144502e-01 1.507688484569221998e+01
2.152488194532113097e-01 1.446491599756008384e+01
2.165899335926081692e-01 1.444934354686628808e+01
2.179310477320050288e-01 1.380749121965260429e+01
2.192721618714018883e-01 1.394720889982006895e+01
2.206132760107987478e-01 1.323355154340228523e+01
2.219543901501955796e-01 1.269493656675601301e+01
2.232955042895924391e-01 1.318796489364022761e+01
2.246366184289892987e-01 1.258972376983501817e+01
2.259777325683861582e-01 1.191105588018848493e+01
2.273188467077830177e-01 1.087841415301672043e+01
2.286599608471798217e-01 1.060330973016041867e+01
2.300010749865766813e-01 1.000177714443185550e+01
2.313421891259735408e-01 9.559328828079443952e+00
2.326833032653704003e-01 8.905148589481541421e+00
2.340244174047672598e-01 8.378873057098573440e+00
2.353655315441641194e-01 7.927636109432569356e+00
2.367066456835609234e-01 7.809559677903706643e+00
2.380477598229577829e-01 6.956512387082270266e+00
2.393888739623546424e-01 6.681082941525815500e+00
2.407299881017515020e-01 6.565386027782892597e+00
2.420711022411483615e-01 7.059121866379470589e+00
2.434122163805451933e-01 5.595752630932906868e+00
2.447533305199420528e-01 5.189355777108644929e+00
2.460944446593389123e-01 5.267045862374089893e+00
2.474355587987357719e-01 5.017739959243073145e+00
2.487766729381326314e-01 5.124538753633657961e+00
2.501177870775294632e-01 4.872457021484152051e+00
2.514589012169263227e-01 3.720962358409025228e+00
2.528000153563231822e-01 2.894650674027744230e+00
2.541411294957200417e-01 3.609290661193469418e+00
2.554822436351169013e-01 3.726742499430500288e+00
2.568233577745137608e-01 3.174035116021400427e+00
2.581644719139106203e-01 2.685998454038497130e+00
2.595055860533074243e-01 2.224965033992376107e+00
2.608467001927042839e-01 2.277227005585046982e+00
2.621878143321011434e-01 2.911270719079325886e+00
2.635289284714980029e-01 2.746570332986038920e+00
2.648700426108948625e-01 1.860547443307410731e+00
2.662111567502916665e-01 1.727265784239435220e+00
2.675522708896885260e-01 1.295048673204703960e+00
2.688933850290853855e-01 1.439660118867450933e+00
2.702344991684822451e-01 1.940984347780840835e+00
2.715756133078791046e-01 2.179123210197445815e+00
2.729167274472759641e-01 2.038942690209296416e+00
2.742578415866727681e-01 2.152803214512815089e+00
2.755989557260696277e-01 1.736461598064167333e+00
2.769400698654664872e-01 1.207945102428368500e+00
2.782811840048633467e-01 1.518307441843447236e+00
2.796222981442602062e-01 1.395322227348700039e+00
2.809634122836570103e-01 1.324510773748841075e+00
2.823045264230538698e-01 1.369634118788297883e+00
2.836456405624507293e-01 1.489576419774579108e+00
2.849867547018475888e-01 1.640582582319339622e+00
2.863278688412444484e-01 1.777725503046340805e+00
2.876689829806413079e-01 1.878267472642193070e+00
2.890100971200381674e-01 1.935944672941559475e+00
2.903512112594350270e-01 1.522961564907220122e+00
2.916923253988318865e-01 1.539860242148748171e+00
2.930334395382287460e-01 1.918737760375421431e+00
2.943745536776256055e-01 2.243199029945813550e+00
2.957156678170224096e-01 2.369988474117405985e+00
2.970567819564192691e-01 2.246020839323733753e+00
2.983978960958161286e-01 2.087862957661329233e+00
2.997390102352129881e-01 2.139366293517468876e+00
3.010801243746098477e-01 2.453665231538082026e+00
3.024212385140067072e-01 2.170848163702089550e+00
3.037623526534035112e-01 2.292336456873286465e+00
3.051034667928003707e-01 2.472596259313306177e+00
3.064445809321972303e-01 2.487421651085554686e+00
3.077856950715940898e-01 2.631370004100034521e+00
3.091268092109909493e-01 2.348452871024150568e+00
3.104679233503877533e-01 2.709166080221919515e+00
3.118090374897846129e-01 2.858330699216949711e+00
3.131501516291814724e-01 2.500378640744131076e+00
3.144912657685783319e-01 2.423870973612807234e+00
3.158323799079751915e-01 2.167873479182659935e+00
3.171734940473720510e-01 1.945711627603571969e+00
3.185146081867689105e-01 2.229110508703143978e+00
3.198557223261657700e-01 2.509782327190748674e+00
3.211968364655626296e-01 2.409608858871933990e+00
3.225379506049594891e-01 2.361595813410716005e+00
3.238790647443563486e-01 2.474560952989321549e+00
3.252201788837532082e-01 2.562221626483506043e+00
3.265612930231500122e-01 2.079829308609276950e+00
3.279024071625468717e-01 2.201421802839092834e+00
3.292435213019437312e-01 1.864822512963726808e+00
3.305846354413405908e-01 2.401810103674463903e+00
3.319257495807374503e-01 1.898180490846726798e+00
3.332668637201342543e-01 2.004214176335395337e+00
3.346079778595311138e-01 2.084314982221911805e+00
3.359490919989279734e-01 2.127116294533394125e+00
3.372902061383248329e-01 1.538935268052270544e+00
3.386313202777216924e-01 2.158562614769849120e+00
3.399724344171185519e-01 1.765760509197050965e+00
3.413135485565153560e-01 1.689512910454624262e+00
3.426546626959122155e-01 1.512951338925461187e+00
3.439957768353090750e-01 1.502338435616550782e+00
3.453368909747059345e-01 1.455310937127038073e+00
3.466780051141027941e-01 1.797740282129822731e+00
3.480191192534995981e-01 1.667649305301026175e+00
3.493602333928964576e-01 1.336607051377399102e+00
3.507013475322933171e-01 1.776894064884231739e+00
3.520424616716901767e-01 1.660575661940470127e+00
3.533835758110870362e-01 1.235158717257164085e+00
3.547246899504838957e-01 8.990853837869963172e-01
3.560658040898807553e-01 1.024294093358051327e+00
3.574069182292776148e-01 1.278672239775346497e+00
3.587480323686744743e-01 1.062871601534482124e+00
3.600891465080713338e-01 1.260872833227367096e+00
3.614302606474681934e-01 1.121439568247637908e+00
3.627713747868649974e-01 1.310247872927135404e+00
3.641124889262618569e-01 1.568456706049076388e+00
3.654536030656587164e-01 8.814491296467963366e-01
3.667947172050555760e-01 5.520354099782593948e-01
3.681358313444524355e-01 1.185239226859408745e+00
3.694769454838492950e-01 1.322086074788771271e+00
3.708180596232460990e-01 1.276850690384890186e+00
3.721591737626429586e-01 1.174721220394417287e+00
3.735002879020398181e-01 1.178975436577232472e+00
3.748414020414366776e-01 1.045390523091498380e+00
3.761825161808335372e-01 8.918194256026197309e-01
3.775236303202303967e-01 6.577699369376688310e-01
3.788647444596272007e-01 9.133797168976798275e-01
3.802058585990240602e-01 1.088179792997863160e+00
3.815469727384209198e-01 1.115943308700352077e+00
3.828880868778177793e-01 1.325364354287799529e+00
3.842292010172146388e-01 9.803053573592848124e-01
3.855703151566114428e-01 1.475481807192281281e+00
3.869114292960083024e-01 1.110640424352368427e+00
3.882525434354051619e-01 6.338011090660558011e-01
3.895936575748020214e-01 4.745611066906718634e-01
3.909347717141988809e-01 5.148647182590195825e-01
3.922758858535957405e-01 5.875397614988173700e-01
3.936169999929926000e-01 1.098253605325524518e+00
3.949581141323894595e-01 6.571436131443135764e-01
3.962992282717863191e-01 1.048156114021978169e+00
3.976403424111831786e-01 1.359850709441026595e+00
3.989814565505800381e-01 9.528410154019653078e-01
4.003225706899768976e-01 8.631626109872740926e-01
4.016636848293737572e-01 9.487143813228939848e-01
4.030047989687706167e-01 1.019745229901694472e+00
4.043459131081674207e-01 9.603625855766750874e-01
4.056870272475643358e-01 9.755446113359127480e-01
4.070281413869611398e-01 8.829914374065737093e-01
4.083692555263580548e-01 9.769101484555733350e-01
4.097103696657548588e-01 9.251273044392007705e-01
4.110514838051517739e-01 9.634427382197898737e-01
4.123925979445485779e-01 1.320216121366570405e+00
4.137337120839453819e-01 1.284629537846321057e+00
4.150748262233422969e-01 7.681952806238285802e-01
4.164159403627391010e-01 6.646536428404417052e-01
4.177570545021360160e-01 6.899098532762266700e-01
4.190981686415328200e-01 6.869587358213280481e-01
4.204392827809296240e-01 7.590032195174885032e-01
4.217803969203265391e-01 1.250300327610489148e+00
4.231215110597233431e-01 8.477542229244221517e-01
4.244626251991202581e-01 7.079456404128805502e-01
4.258037393385170621e-01 9.903802440464559709e-01
4.271448534779138662e-01 1.399368196984546842e+00
4.284859676173107812e-01 1.128288616380352494e+00
4.298270817567075852e-01 8.238160855201002164e-01
4.311681958961045003e-01 1.331503066413020520e+00
4.325093100355013043e-01 1.219426646688731353e+00
4.338504241748981638e-01 1.095062254039248728e+00
4.351915383142950233e-01 1.250584598635427369e+00
4.365326524536918829e-01 1.362356224378885372e+00
4.378737665930887424e-01 1.056442114606333860e+00
4.392148807324856019e-01 6.110104659718942344e-01
4.405559948718824614e-01 9.713000031407901247e-01
4.418971090112793210e-01 1.441952024088060114e+00
4.432382231506761250e-01 9.798376387127660792e-01
4.445793372900730400e-01 6.946920854858902317e-01
4.459204514294698440e-01 5.812470286969002586e-01
4.472615655688667591e-01 1.066088332984726605e+00
4.486026797082635631e-01 1.321924434468584764e+00
4.499437938476603671e-01 1.153011099542524676e+00
4.512849079870572822e-01 1.014342009432120051e+00
4.526260221264540862e-01 1.104634147845452219e+00
4.539671362658510012e-01 1.376896128534482955e+00
4.553082504052478052e-01 1.535035238172739014e+00
4.566493645446446092e-01 1.035772966304790543e+00
4.579904786840415243e-01 6.707614717142433847e-01
4.593315928234383283e-01 9.371279187705923164e-01
4.606727069628352433e-01 1.020433252696697934e+00
4.620138211022320474e-01 8.443480258868731880e-01
4.633549352416289624e-01 5.158942654102531833e-01
4.646960493810257664e-01 6.630554015158338643e-01
4.660371635204225704e-01 9.110557933102185757e-01
4.673782776598194855e-01 1.120162161011627688e+00
4.687193917992162895e-01 1.277967765170913594e+00
4.700605059386132045e-01 8.411062992714590791e-01
4.714016200780100085e-01 5.725456466347083051e-01
4.727427342174068681e-01 6.279007241869436484e-01
4.740838483568037276e-01 7.170131894170808096e-01
4.754249624962005871e-01 7.315306998202402156e-01
4.767660766355974467e-01 6.066371840373179225e-01
4.781071907749943062e-01 8.685909537058904561e-01
4.794483049143911102e-01 1.178947417693301247e+00
4.807894190537880252e-01 8.765117275296177013e-01
4.821305331931848293e-01 7.813943292220884018e-01
4.834716473325817443e-01 8.496015293135386059e-01
4.848127614719785483e-01 7.604422154742280782e-01
4.861538756113753523e-01 7.375630047575469916e-01
4.874949897507722674e-01 8.944981243720064867e-01
4.888361038901690714e-01 6.566380999917242889e-01
4.901772180295659864e-01 4.526907666377937289e-01
4.915183321689627904e-01 5.820580208471497485e-01
4.928594463083597055e-01 8.311594863685627388e-01
4.942005604477565095e-01 9.332722734815774857e-01
4.955416745871533135e-01 8.454332891384694904e-01
4.968827887265502286e-01 9.403112467404710628e-01
4.982239028659470326e-01 6.709239409422025346e-01
4.995650170053439476e-01 3.998751980031940434e-01
5.009061311447408071e-01 4.382563533023713376e-01
5.022472452841375556e-01 2.994419573033724191e-01
5.035883594235345262e-01 7.391142755924420271e-01
5.049294735629312747e-01 8.226452819604261890e-01
5.062705877023282452e-01 7.261871219039122138e-01
5.076117018417249938e-01 6.684076561207206169e-01
5.089528159811218533e-01 4.461036718338178275e-01
5.102939301205187128e-01 3.721878737125550174e-01
5.116350442599155723e-01 4.153473869942203578e-01
5.129761583993124319e-01 3.688678169211314639e-01
5.143172725387092914e-01 3.074236382880286556e-01
5.156583866781061509e-01 3.824046325355965337e-01
5.169995008175030105e-01 4.649038200142499022e-01
5.183406149568997590e-01 1.667471501282875579e-01
5.196817290962967295e-01 1.978386792848425557e-01
5.210228432356934780e-01 2.380048866340658265e-01
5.223639573750904486e-01 5.043450562740474652e-01
5.237050715144871971e-01 6.265850298680746278e-01
5.250461856538840566e-01 6.192291796686433258e-01
5.263872997932809161e-01 9.822021827069420397e-01
5.277284139326777757e-01 1.153297857000190163e+00
5.290695280720746352e-01 6.691816790664262271e-01
5.304106422114714947e-01 7.753913993140315597e-01
5.317517563508683542e-01 6.376773579144838777e-01
5.330928704902652138e-01 3.718268790978527250e-01
5.344339846296620733e-01 5.004554259811158090e-01
5.357750987690589328e-01 6.230686836055099320e-01
5.371162129084557924e-01 6.470978899115493732e-01
5.384573270478525409e-01 8.578784102455685456e-01
5.397984411872495114e-01 9.046370536456720401e-01
5.411395553266462599e-01 9.035207085324685750e-01
5.424806694660432305e-01 6.554142433939773582e-01
5.438217836054399790e-01 4.681089618103158045e-01
5.451628977448369495e-01 4.807816716508241939e-01
5.465040118842336980e-01 6.103480960766844987e-01
5.478451260236305576e-01 8.273565116205787717e-01
5.491862401630274171e-01 6.018720871032741115e-01
5.505273543024242766e-01 4.832922754429631595e-01
5.518684684418211361e-01 3.595038235859320253e-01
5.532095825812179957e-01 4.961432456334620156e-01
5.545506967206147442e-01 4.866245551344690057e-01
