# q (1/Angstrom), Intensity (arb)
2.078726924066784734e-02 8.197269349105781089e+01
2.212838338006469993e-02 1.693269143092261402e+02
2.346949751946154905e-02 2.434379572961765348e+02
2.481061165885840164e-02 3.157006500968037699e+02
2.615172579825525423e-02 3.408251949718965648e+02
2.749283993765210335e-02 3.496564175174494835e+02
2.883395407704895941e-02 3.559619160520272203e+02
3.017506821644580506e-02 3.647219658084119374e+02
3.151618235584265765e-02 3.597640453435531072e+02
3.285729649523951718e-02 3.537633842811414979e+02
3.419841063463636283e-02 3.541420087822071423e+02
3.553952477403321542e-02 3.454754964199471488e+02
3.688063891343006800e-02 3.380206489973573980e+02
3.822175305282692059e-02 3.343888394912462445e+02
3.956286719222376624e-02 3.315854304983536167e+02
4.090398133162062577e-02 3.269284586817952345e+02
4.224509547101747142e-02 3.210902588880296662e+02
4.358620961041432401e-02 3.158011372617971233e+02
4.492732374981117660e-02 3.056433993250701633e+02
4.626843788920802919e-02 3.024512799085560459e+02
4.760955202860488178e-02 3.006830334160753750e+02
4.895066616800172743e-02 2.968665884976163625e+02
5.029178030739858696e-02 2.900894586076346968e+02
5.163289444679544649e-02 2.842221517467632452e+02
5.297400858619229214e-02 2.798248982550524602e+02
5.431512272558913779e-02 2.736318331511917563e+02
5.565623686498599731e-02 2.668732486154789285e+02
5.699735100438284990e-02 2.597232865706949951e+02
5.833846514377969555e-02 2.543287400825761040e+02
5.967957928317654814e-02 2.503709175147143071e+02
6.102069342257340767e-02 2.412203554297194898e+02
6.236180756197025332e-02 2.332063436040054967e+02
6.370292170136709897e-02 2.301165433897078003e+02
6.504403584076395850e-02 2.250919288737400450e+02
6.638514998016080415e-02 2.182397446083555792e+02
6.772626411955766368e-02 2.124510766057590558e+02
6.906737825895450933e-02 2.073599708367650294e+02
7.040849239835136886e-02 2.005494193993046395e+02
7.174960653774821451e-02 1.932108579699143434e+02
7.309072067714506016e-02 1.866506333339507080e+02
7.443183481654190581e-02 1.809566348024919762e+02
7.577294895593877921e-02 1.760283559711306793e+02
7.711406309533562486e-02 1.706008797981549492e+02
7.845517723473247051e-02 1.640020214798514644e+02
7.979629137412933004e-02 1.589825236044064525e+02
8.113740551352617569e-02 1.556226902790792508e+02
8.247851965292302134e-02 1.514533398314228521e+02
8.381963379231988087e-02 1.480235909900657987e+02
8.516074793171674040e-02 1.451590811092571300e+02
8.650186207111358605e-02 1.433062913313650029e+02
8.784297621051043170e-02 1.421501042876690803e+02
8.918409034990729123e-02 1.468834106890917326e+02
9.052520448930413688e-02 1.676077042182943728e+02
9.186631862870098253e-02 2.519049922942921569e+02
9.320743276809784206e-02 4.338804135381150218e+02
9.454854690749470159e-02 6.201294075758607960e+02
9.588966104689154724e-02 8.876440047872574723e+02
9.723077518628839289e-02 1.834442038009738781e+03
9.857188932568525241e-02 3.554625509493333993e+03
9.991300346508209806e-02 3.754714723829678860e+03
1.012541176044789437e-01 2.074431893068593126e+03
1.025952317438758032e-01 9.795713641667420006e+02
1.039363458832726350e-01 6.274246362758925670e+02
1.052774600226694945e-01 5.085185779833103084e+02
1.066185741620663541e-01 4.361751642300199592e+02
1.079596883014631858e-01 3.725693098077568948e+02
1.093008024408600454e-01 3.279980095373938411e+02
1.106419165802569049e-01 3.162087564438808727e+02
1.119830307196537506e-01 3.831592360635657997e+02
1.133241448590506101e-01 5.744519840005318656e+02
1.146652589984474419e-01 6.747156641777062305e+02
1.160063731378443014e-01 4.616251910585323799e+02
1.173474872772411609e-01 2.114780694599729713e+02
1.186886014166380066e-01 1.016010193884184929e+02
1.200297155560348661e-01 6.622967336900362056e+01
1.213708296954317256e-01 5.288123279033381152e+01
1.227119438348285574e-01 4.239111330756644236e+01
1.240530579742254169e-01 3.657755685221144404e+01
1.253941721136222764e-01 3.201064869450746642e+01
1.267352862530191082e-01 2.819133154250012296e+01
1.280764003924159677e-01 2.560681502586395197e+01
1.294175145318128273e-01 2.264482664805012746e+01
1.307586286712096590e-01 2.003541382270530846e+01
1.320997428106065186e-01 1.776218363004169021e+01
1.334408569500033781e-01 1.558565035854093139e+01
1.347819710894002376e-01 1.419230680548666612e+01
1.361230852287970972e-01 1.294819806601790901e+01
1.374641993681939289e-01 1.152581546816279001e+01
1.388053135075907885e-01 1.069420051388246407e+01
1.401464276469876480e-01 1.021023417182622950e+01
1.414875417863844798e-01 9.396535528264109871e+00
1.428286559257813393e-01 8.984042066661615422e+00
1.441697700651781988e-01 7.405263745123960462e+00
1.455108842045750306e-01 6.963386434848800377e+00
1.468519983439718901e-01 7.491735019092303105e+00
1.481931124833687219e-01 7.069081003977998989e+00
1.495342266227655814e-01 5.915991331105544759e+00
1.508753407621624687e-01 6.538641626693404874e+00
1.522164549015593005e-01 7.136314114539459297e+00
1.535575690409561600e-01 7.243056475360717172e+00
1.548986831803530195e-01 7.008341530048397772e+00
1.562397973197498513e-01 8.152839055668351875e+00
1.575809114591467108e-01 9.520531869160905103e+00
1.589220255985435704e-01 1.550568861650594954e+01
1.602631397379404021e-01 3.366156589517503051e+01
1.616042538773372617e-01 5.766891076340183986e+01
1.629453680167341212e-01 5.557166597006374786e+01
1.642864821561309530e-01 3.187283803304391938e+01
1.656275962955278125e-01 1.820716736039098294e+01
1.669687104349246720e-01 1.406239494750225560e+01
1.683098245743215315e-01 1.208563419295981589e+01
1.696509387137183911e-01 1.077137067763649725e+01
1.709920528531152228e-01 1.145824272363913110e+01
1.723331669925120824e-01 1.207561149159479896e+01
1.736742811319089419e-01 1.199111756775060655e+01
1.750153952713057737e-01 1.301661958834696975e+01
1.763565094107026332e-01 1.277068936353319373e+01
1.776976235500994927e-01 1.385046982796592374e+01
1.790387376894963245e-01 1.440590155639888792e+01
1.803798518288931840e-01 1.456702549590688989e+01
1.817209659682900158e-01 1.490928133095280828e+01
1.830620801076868753e-01 1.601724331200099982e+01
1.844031942470837349e-01 1.836208978857010266e+01
1.857443083864805944e-01 2.740425631403483919e+01
1.870854225258774539e-01 5.814105612674525503e+01
1.884265366652743134e-01 1.237288626380291419e+02
1.897676508046711452e-01 1.850657205308988011e+02
1.911087649440680047e-01 1.589832988861041088e+02
1.924498790834648643e-01 9.075237624402308256e+01
1.937909932228616960e-01 4.926797895876177336e+01
1.951321073622585556e-01 3.739441791160923856e+01
1.964732215016554151e-01 4.157719106506968387e+01
1.978143356410522469e-01 5.259149636893850754e+01
1.991554497804491064e-01 4.999592191767924021e+01
2.004965639198459382e-01 3.267458617743918126e+01
2.018376780592427977e-01 1.936447879590755861e+01
2.031787921986396572e-01 1.312192849123127303e+01
2.045199063380365168e-01 9.956659056303962529e+00
2.058610204774333763e-01 8.666499015945163364e+00
2.072021346168302081e-01 7.971217414824792513e+00
2.085432487562270676e-01 8.328565680414172334e+00
2.098843628956239271e-01 7.600343474130198729e+00
2.112254770350207866e-01 6.853342764907509377e+00
2.125665911744176462e-01 7.474560636289538706e+00
2.139077053138144502e-01 6.790919410316035965e+00
2.152488194532113097e-01 6.264090614805283508e+00
2.165899335926081692e-01 5.999879583603998867e+00
2.179310477320050288e-01 5.617058503499478661e+00
2.192721618714018883e-01 5.859247447495647521e+00
2.206132760107987478e-01 5.317422262471993122e+00
2.219543901501955796e-01 5.345988109862673809e+00
2.232955042895924391e-01 5.042181176594525027e+00
2.246366184289892987e-01 4.388218992091424298e+00
2.259777325683861582e-01 5.839397684387293452e+00
2.273188467077830177e-01 7.083746176576511289e+00
2.286599608471798217e-01 6.596012497174612577e+00
2.300010749865766813e-01 6.865264412174951758e+00
2.313421891259735408e-01 5.186324343258775116e+00
2.326833032653704003e-01 3.999943322638173981e+00
2.340244174047672598e-01 2.968812496345009322e+00
2.353655315441641194e-01 3.308009579527890764e+00
2.367066456835609234e-01 3.648003757804971769e+00
2.380477598229577829e-01 3.426207143213673589e+00
2.393888739623546424e-01 3.309475117118381604e+00
2.407299881017515020e-01 2.938433208676400454e+00
2.420711022411483615e-01 2.790396357650294590e+00
2.434122163805451933e-01 3.151213456369546861e+00
2.447533305199420528e-01 2.614130404085003079e+00
2.460944446593389123e-01 2.016289258717051780e+00
2.474355587987357719e-01 2.133945505965613165e+00
2.487766729381326314e-01 1.979551636483122934e+00
2.501177870775294632e-01 1.641393932553583568e+00
2.514589012169263227e-01 2.580755972027688472e+00
2.528000153563231822e-01 2.085458057240145990e+00
2.541411294957200417e-01 1.652617078109855697e+00
2.554822436351169013e-01 2.939960043846994608e+00
2.568233577745137608e-01 2.827237230708874449e+00
2.581644719139106203e-01 2.447190041849992781e+00
2.595055860533074243e-01 2.957617291971146756e+00
2.608467001927042839e-01 2.704564531842237329e+00
2.621878143321011434e-01 2.038713415706212118e+00
2.635289284714980029e-01 2.087488430180513888e+00
2.648700426108948625e-01 2.015028517691547449e+00
2.662111567502916665e-01 2.062219656062268314e+00
2.675522708896885260e-01 2.018488638135451652e+00
2.688933850290853855e-01 1.990291257301578298e+00
2.702344991684822451e-01 2.287127636852758883e+00
2.715756133078791046e-01 2.767406810067512879e+00
2.729167274472759641e-01 2.459641991203156408e+00
2.742578415866727681e-01 2.786646826493765161e+00
2.755989557260696277e-01 3.405720323659849669e+00
2.769400698654664872e-01 3.515982659372028252e+00
2.782811840048633467e-01 5.527975799825966874e+00
2.796222981442602062e-01 7.850771155075392471e+00
2.809634122836570103e-01 8.606434968369754301e+00
2.823045264230538698e-01 6.929965994740243218e+00
2.836456405624507293e-01 4.874707766568278089e+00
2.849867547018475888e-01 3.400130365202386429e+00
2.863278688412444484e-01 3.519564223629686239e+00
2.876689829806413079e-01 3.470402762775492533e+00
2.890100971200381674e-01 3.406350475167556624e+00
2.903512112594350270e-01 3.233055035915413100e+00
2.916923253988318865e-01 3.712717289849123858e+00
2.930334395382287460e-01 4.283783195278999756e+00
2.943745536776256055e-01 5.600938762978188379e+00
2.957156678170224096e-01 8.586253022239162647e+00
2.970567819564192691e-01 1.018309416905412945e+01
2.983978960958161286e-01 9.869027867114766650e+00
2.997390102352129881e-01 7.905550924595573292e+00
3.010801243746098477e-01 5.517181322896860252e+00
3.024212385140067072e-01 3.401569612499116602e+00
3.037623526534035112e-01 2.260052646353670980e+00
3.051034667928003707e-01 2.796598173597743653e+00
3.064445809321972303e-01 2.644205716949656448e+00
3.077856950715940898e-01 2.449075404130113043e+00
3.091268092109909493e-01 2.633520131515311391e+00
3.104679233503877533e-01 2.831428699829302786e+00
3.118090374897846129e-01 2.862654912075342395e+00
3.131501516291814724e-01 2.488115435855235091e+00
3.144912657685783319e-01 2.543140092944469188e+00
3.158323799079751915e-01 2.112848272427854113e+00
3.171734940473720510e-01 2.097764107483087059e+00
3.185146081867689105e-01 2.002881236017145739e+00
3.198557223261657700e-01 2.298116126851851959e+00
3.211968364655626296e-01 2.625386706162970540e+00
3.225379506049594891e-01 3.413714492876820827e+00
3.238790647443563486e-01 3.549913303355793914e+00
3.252201788837532082e-01 3.437425217969291680e+00
3.265612930231500122e-01 2.808458300096646099e+00
3.279024071625468717e-01 2.234172526497175681e+00
3.292435213019437312e-01 2.103650701478017027e+00
3.305846354413405908e-01 2.361107658988984781e+00
3.319257495807374503e-01 1.967767769608570916e+00
3.332668637201342543e-01 1.565104172692031170e+00
3.346079778595311138e-01 2.135731201358865405e+00
3.359490919989279734e-01 2.877231597725597112e+00
3.372902061383248329e-01 3.483953799617225400e+00
3.386313202777216924e-01 3.174928032597108540e+00
3.399724344171185519e-01 3.062573255380058868e+00
3.413135485565153560e-01 2.533029158098457856e+00
3.426546626959122155e-01 2.165451510535447710e+00
3.439957768353090750e-01 2.206081308682087183e+00
3.453368909747059345e-01 2.260766221251088837e+00
3.466780051141027941e-01 1.444563481786133252e+00
3.480191192534995981e-01 6.954771914297310786e-01
3.493602333928964576e-01 1.353405088818121271e+00
3.507013475322933171e-01 1.598747252418263542e+00
3.520424616716901767e-01 1.576974390639207968e+00
3.533835758110870362e-01 1.513417319908739955e+00
3.547246899504838957e-01 1.433925677116960173e+00
3.560658040898807553e-01 1.998719811844267724e+00
3.574069182292776148e-01 1.217950112706233767e+00
3.587480323686744743e-01 6.002183328618428959e-01
3.600891465080713338e-01 2.728441293274528334e-01
3.614302606474681934e-01 7.420330336565825746e-01
3.627713747868649974e-01 8.680361449579976352e-01
3.641124889262618569e-01 1.546385926718102155e+00
3.654536030656587164e-01 1.500364900636739662e+00
3.667947172050555760e-01 1.478539527418803345e+00
3.681358313444524355e-01 1.994144411323773625e+00
3.694769454838492950e-01 1.760240135248650972e+00
3.708180596232460990e-01 1.513777777337139696e+00
3.721591737626429586e-01 1.335052651965597192e+00
3.735002879020398181e-01 1.260840365294100707e+00
3.748414020414366776e-01 1.459796233185329584e+00
3.761825161808335372e-01 1.656731480803429690e+00
3.775236303202303967e-01 1.846565992519074939e+00
3.788647444596272007e-01 1.876343234240223978e+00
3.802058585990240602e-01 1.641200217112427140e+00
3.815469727384209198e-01 1.952559651487788983e+00
3.828880868778177793e-01 1.507110520302887835e+00
3.842292010172146388e-01 1.585718679866431557e+00
3.855703151566114428e-01 1.581092822348196592e+00
3.869114292960083024e-01 1.190873425106431682e+00
3.882525434354051619e-01 1.322590028439421417e+00
3.895936575748020214e-01 1.194529053612200187e+00
3.909347717141988809e-01 1.304512829065345159e+00
3.922758858535957405e-01 1.081058061274831061e+00
3.936169999929926000e-01 1.270425878377636764e+00
3.949581141323894595e-01 9.546705635141563562e-01
3.962992282717863191e-01 1.265986277291887063e+00
3.976403424111831786e-01 1.074914263029100425e+00
3.989814565505800381e-01 1.065039360772033206e+00
4.003225706899768976e-01 1.068159825111209216e+00
4.016636848293737572e-01 1.700507680706266456e+00
4.030047989687706167e-01 1.591632315871152059e+00
4.043459131081674207e-01 1.294059230384419834e+00
4.056870272475643358e-01 1.940247154347474634e+00
4.070281413869611398e-01 2.596905002702570187e+00
4.083692555263580548e-01 2.568882884700570912e+00
4.097103696657548588e-01 2.633877268266601845e+00
4.110514838051517739e-01 2.489739956915158814e+00
4.123925979445485779e-01 2.302267457443790022e+00
4.137337120839453819e-01 2.216939396827157793e+00
4.150748262233422969e-01 2.200031753728012518e+00
4.164159403627391010e-01 1.483116258296604428e+00
4.177570545021360160e-01 1.312614244287161114e+00
4.190981686415328200e-01 1.220217391720936462e+00
4.204392827809296240e-01 9.774719855018219050e-01
4.217803969203265391e-01 8.887217328448144826e-01
4.231215110597233431e-01 1.308185280011983309e+00
4.244626251991202581e-01 1.057921573671322335e+00
4.258037393385170621e-01 1.169819685228944195e+00
4.271448534779138662e-01 1.428962309390612972e+00
4.284859676173107812e-01 1.606183798590890888e+00
4.298270817567075852e-01 1.632029143272490046e+00
4.311681958961045003e-01 1.816081826613938688e+00
4.325093100355013043e-01 1.415255981631759141e+00
4.338504241748981638e-01 1.564888677190168664e+00
4.351915383142950233e-01 7.886849853536688215e-01
4.365326524536918829e-01 1.107800580006525593e+00
4.378737665930887424e-01 1.794392280236834836e+00
4.392148807324856019e-01 1.624545118218620132e+00
4.405559948718824614e-01 2.135640732918560047e+00
4.418971090112793210e-01 1.560367873089660407e+00
4.432382231506761250e-01 1.323007959073223105e+00
4.445793372900730400e-01 1.376912119174562577e+00
4.459204514294698440e-01 1.795094644223908631e+00
4.472615655688667591e-01 1.529098526881085718e+00
4.486026797082635631e-01 1.162743256128749181e+00
4.499437938476603671e-01 1.166878286707031975e+00
4.512849079870572822e-01 1.588903214492290772e+00
4.526260221264540862e-01 1.086640725662093132e+00
4.539671362658510012e-01 1.001328679311171754e+00
4.553082504052478052e-01 1.454016508417737441e+00
4.566493645446446092e-01 9.914849958383342710e-01
4.579904786840415243e-01 1.264948400209803481e+00
4.593315928234383283e-01 1.084019074994927223e+00
4.606727069628352433e-01 1.452288000771233101e+00
4.620138211022320474e-01 6.896459261322860357e-01
4.633549352416289624e-01 7.941789424006202580e-01
4.646960493810257664e-01 1.089359909282549665e+00
4.660371635204225704e-01 6.474671419333191125e-01
4.673782776598194855e-01 9.402763388910386766e-01
4.687193917992162895e-01 1.274525721935191314e+00
4.700605059386132045e-01 7.625892722765286180e-01
4.714016200780100085e-01 7.750977146125848094e-01
4.727427342174068681e-01 9.823800995992968410e-01
4.740838483568037276e-01 1.026469752947718916e+00
4.754249624962005871e-01 1.206322368729459527e+00
4.767660766355974467e-01 7.364004162643453810e-01
4.781071907749943062e-01 6.630093512205661455e-01
4.794483049143911102e-01 6.209192102288909609e-01
4.807894190537880252e-01 6.890461343993621313e-01
4.821305331931848293e-01 9.858318178647067498e-01
4.834716473325817443e-01 1.416397197004371833e+00
4.848127614719785483e-01 1.419142013490869658e+00
4.861538756113753523e-01 1.318354590998083609e+00
4.874949897507722674e-01 8.674935055791621608e-01
4.888361038901690714e-01 9.149816178764496044e-01
4.901772180295659864e-01 8.287278379161620023e-01
4.915183321689627904e-01 6.440946915888901003e-01
4.928594463083597055e-01 5.639427991473553448e-01
4.942005604477565095e-01 6.223380559879956309e-01
4.955416745871533135e-01 1.026312627108211473e+00
4.968827887265502286e-01 1.156080271953953797e+00
4.982239028659470326e-01 7.239104801594606897e-01
4.995650170053439476e-01 1.056381596552355973e+00
5.009061311447408071e-01 7.624231397671081822e-01
5.022472452841375556e-01 8.394721194010088539e-01
5.035883594235345262e-01 8.241683569825966060e-01
5.049294735629312747e-01 8.167964165950536426e-01
5.062705877023282452e-01 5.503178711220897412e-01
5.076117018417249938e-01 4.510078071919281228e-01
5.089528159811218533e-01 9.064382987331072172e-01
5.102939301205187128e-01 1.043688732712055867e+00
5.116350442599155723e-01 1.495925134296939518e+00
5.129761583993124319e-01 1.169939426845672870e+00
5.143172725387092914e-01 9.278495032646816298e-01
5.156583866781061509e-01 9.943559549380864837e-01
5.169995008175030105e-01 5.760140120113135254e-01
5.183406149568997590e-01 4.438318603200315238e-01
5.196817290962967295e-01 6.449562676471742861e-01
5.210228432356934780e-01 7.353808068038034662e-01
5.223639573750904486e-01 7.306555487445933750e-01
5.237050715144871971e-01 8.012463056988963217e-01
5.250461856538840566e-01 8.056616847121631508e-01
5.263872997932809161e-01 7.690882229335898046e-01
5.277284139326777757e-01 8.385528326859343906e-01
5.290695280720746352e-01 8.285638603187948092e-01
5.304106422114714947e-01 3.809511611052300850e-01
5.317517563508683542e-01 6.554128476664544678e-01
5.330928704902652138e-01 6.225334454026949516e-01
5.344339846296620733e-01 9.424591192096869463e-01
5.357750987690589328e-01 5.176792664964295909e-01
5.371162129084557924e-01 5.848819800057611928e-01
5.384573270478525409e-01 6.538952167418301542e-01
5.397984411872495114e-01 8.818040377145450748e-01
5.411395553266462599e-01 1.090179070593379151e+00
5.424806694660432305e-01 9.637487707567373718e-01
5.438217836054399790e-01 6.305945142597408903e-01
5.451628977448369495e-01 4.603738922715905346e-01
5.465040118842336980e-01 3.283729667171257915e-01
5.478451260236305576e-01 2.327791135696060110e-01
5.491862401630274171e-01 1.589057382561236409e-01
5.505273543024242766e-01 5.077284529268837332e-01
5.518684684418211361e-01 5.219664771941978643e-01
5.532095825812179957e-01 3.333336299271110192e-01
5.545506967206147442e-01 4.027176067777418211e-01
