# q (1/Angstrom), Intensity (arb)
2.078726924066784734e-02 5.842899523301761633e+01
2.212838338006469993e-02 1.198922600238657878e+02
2.346949751946154905e-02 1.645947248082855481e+02
2.481061165885840164e-02 1.988052306300085093e+02
2.615172579825525423e-02 2.080129868757613281e+02
2.749283993765210335e-02 2.093717017878388447e+02
2.883395407704895941e-02 2.110653298779308784e+02
3.017506821644580506e-02 2.066721066370413382e+02
3.151618235584265765e-02 2.043107752947791482e+02
3.285729649523951718e-02 1.969632880657488272e+02
3.419841063463636283e-02 1.922058990533369638e+02
3.553952477403321542e-02 1.890459684523475801e+02
3.688063891343006800e-02 1.832375770629132887e+02
3.822175305282692059e-02 1.796545963107294313e+02
3.956286719222376624e-02 1.780029345122910911e+02
4.090398133162062577e-02 1.699610332472056200e+02
4.224509547101747142e-02 1.669137036891674200e+02
4.358620961041432401e-02 1.635953694822912894e+02
4.492732374981117660e-02 1.586638500612316420e+02
4.626843788920802919e-02 1.576277296555887801e+02
4.760955202860488178e-02 1.545357771136397673e+02
4.895066616800172743e-02 1.518400940340875422e+02
5.029178030739858696e-02 1.479306474252757653e+02
5.163289444679544649e-02 1.457342261170212225e+02
5.297400858619229214e-02 1.444620504717808274e+02
5.431512272558913779e-02 1.416177544504652417e+02
5.565623686498599731e-02 1.376187215442814704e+02
5.699735100438284990e-02 1.336030479618074480e+02
5.833846514377969555e-02 1.297548857023766971e+02
5.967957928317654814e-02 1.285553422282743554e+02
6.102069342257340767e-02 1.271397991118733444e+02
6.236180756197025332e-02 1.252972248840108023e+02
6.370292170136709897e-02 1.242263096194420200e+02
6.504403584076395850e-02 1.202384648190186169e+02
6.638514998016080415e-02 1.154655743865635600e+02
6.772626411955766368e-02 1.120364389527243532e+02
6.906737825895450933e-02 1.113201842147992124e+02
7.040849239835136886e-02 1.093576799148649457e+02
7.174960653774821451e-02 1.084918634381289451e+02
7.309072067714506016e-02 1.065047197060451651e+02
7.443183481654190581e-02 1.032042748917047561e+02
7.577294895593877921e-02 1.026125302829297254e+02
7.711406309533562486e-02 1.024828234724428739e+02
7.845517723473247051e-02 1.024872942358401815e+02
7.979629137412933004e-02 1.033548891682547151e+02
8.113740551352617569e-02 1.071860192534799978e+02
8.247851965292302134e-02 1.118715825396730850e+02
8.381963379231988087e-02 1.226627436969649239e+02
8.516074793171674040e-02 1.611760145394795813e+02
8.650186207111358605e-02 2.902550058540543887e+02
8.784297621051043170e-02 5.676885352805855973e+02
8.918409034990729123e-02 8.981138911435631371e+02
9.052520448930413688e-02 1.472907937026298669e+03
9.186631862870098253e-02 3.045925089946484150e+03
9.320743276809784206e-02 5.129430807378450481e+03
9.454854690749470159e-02 4.927623306744514593e+03
9.588966104689154724e-02 2.830478668712929903e+03
9.723077518628839289e-02 1.417595728673771646e+03
9.857188932568525241e-02 8.898982734304869382e+02
9.991300346508209806e-02 6.919707704876055914e+02
1.012541176044789437e-01 5.759284113488334924e+02
1.025952317438758032e-01 4.905247072911502073e+02
1.039363458832726350e-01 4.489481764735912748e+02
1.052774600226694945e-01 5.031653064253055732e+02
1.066185741620663541e-01 6.976934575812557568e+02
1.079596883014631858e-01 8.400764467325202531e+02
1.093008024408600454e-01 6.597154076752016181e+02
1.106419165802569049e-01 3.499166759378041434e+02
1.119830307196537506e-01 1.608029276895807698e+02
1.133241448590506101e-01 8.789868838452596833e+01
1.146652589984474419e-01 5.976142702143599195e+01
1.160063731378443014e-01 4.711452468094219626e+01
1.173474872772411609e-01 3.997763202116013304e+01
1.186886014166380066e-01 3.294071996520659695e+01
1.200297155560348661e-01 2.796186832981277348e+01
1.213708296954317256e-01 2.421914453286839830e+01
1.227119438348285574e-01 2.168560524197403083e+01
1.240530579742254169e-01 1.966662117875341664e+01
1.253941721136222764e-01 1.769098247216959408e+01
1.267352862530191082e-01 1.630732538292363643e+01
1.280764003924159677e-01 1.440357819486959556e+01
1.294175145318128273e-01 1.304313141567661205e+01
1.307586286712096590e-01 1.222154607012538463e+01
1.320997428106065186e-01 1.181152523115912345e+01
1.334408569500033781e-01 1.004868714265171548e+01
1.347819710894002376e-01 9.447146070378522609e+00
1.361230852287970972e-01 1.007147625412102343e+01
1.374641993681939289e-01 8.945218814612218239e+00
1.388053135075907885e-01 8.291665915532817621e+00
1.401464276469876480e-01 8.954666743180823119e+00
1.414875417863844798e-01 8.874293850707587694e+00
1.428286559257813393e-01 8.225342047818600122e+00
1.441697700651781988e-01 8.591567866744256321e+00
1.455108842045750306e-01 9.773871164009520385e+00
1.468519983439718901e-01 1.093110135964772667e+01
1.481931124833687219e-01 1.542425343022763684e+01
1.495342266227655814e-01 2.893926199003085742e+01
1.508753407621624687e-01 6.191622771222375832e+01
1.522164549015593005e-01 1.013771956859217340e+02
1.535575690409561600e-01 1.075239355878223790e+02
1.548986831803530195e-01 7.627618136009117222e+01
1.562397973197498513e-01 4.315043517674791929e+01
1.575809114591467108e-01 2.637020102566624757e+01
1.589220255985435704e-01 2.003709889648787623e+01
1.602631397379404021e-01 1.960950366996000582e+01
1.616042538773372617e-01 1.983954075655881866e+01
1.629453680167341212e-01 2.028453524901462401e+01
1.642864821561309530e-01 1.974596121281163619e+01
1.656275962955278125e-01 2.007932136478672192e+01
1.669687104349246720e-01 2.106910428288355774e+01
1.683098245743215315e-01 2.093196955378546420e+01
1.696509387137183911e-01 2.076193486977712155e+01
1.709920528531152228e-01 2.159053967752956282e+01
1.723331669925120824e-01 2.333020236072781017e+01
1.736742811319089419e-01 2.992647613841769783e+01
1.750153952713057737e-01 5.056930218133899757e+01
1.763565094107026332e-01 1.038418743789868302e+02
1.776976235500994927e-01 1.900244780474435515e+02
1.790387376894963245e-01 2.509823187534618683e+02
1.803798518288931840e-01 2.283661244350311392e+02
1.817209659682900158e-01 1.567777816664352599e+02
1.830620801076868753e-01 9.779142631472279845e+01
1.844031942470837349e-01 7.321613625860689467e+01
1.857443083864805944e-01 7.292446969675900448e+01
1.870854225258774539e-01 7.432387719268955095e+01
1.884265366652743134e-01 6.199132404245749228e+01
1.897676508046711452e-01 4.156314523291614194e+01
1.911087649440680047e-01 2.525602144465302956e+01
1.924498790834648643e-01 1.588458434043526779e+01
1.937909932228616960e-01 1.258061973948808543e+01
1.951321073622585556e-01 1.025931502370812609e+01
1.964732215016554151e-01 8.570520258655093926e+00
1.978143356410522469e-01 8.558270372843210794e+00
1.991554497804491064e-01 8.005159616164547742e+00
2.004965639198459382e-01 7.675302896700230804e+00
2.018376780592427977e-01 6.887571868096713956e+00
2.031787921986396572e-01 6.984567969564338341e+00
2.045199063380365168e-01 6.654512245390364455e+00
2.058610204774333763e-01 5.548126339176420174e+00
2.072021346168302081e-01 5.197939462588664128e+00
2.085432487562270676e-01 5.452870021413033896e+00
2.098843628956239271e-01 4.557310656629979917e+00
2.112254770350207866e-01 4.273885778183640127e+00
2.125665911744176462e-01 4.535415221973963185e+00
2.139077053138144502e-01 5.704948458954334001e+00
2.152488194532113097e-01 7.238747632699485735e+00
2.165899335926081692e-01 7.310480103339088487e+00
2.179310477320050288e-01 6.331517639344824033e+00
2.192721618714018883e-01 5.199069888741377099e+00
2.206132760107987478e-01 4.057641321490365272e+00
2.219543901501955796e-01 3.464972471302985468e+00
2.232955042895924391e-01 2.859933084652823254e+00
2.246366184289892987e-01 3.188548316620014589e+00
2.259777325683861582e-01 2.902948115267108165e+00
2.273188467077830177e-01 2.383157142141840268e+00
2.286599608471798217e-01 2.379696855467855698e+00
2.300010749865766813e-01 2.908808328878905058e+00
2.313421891259735408e-01 2.793175345233336770e+00
2.326833032653704003e-01 3.096842595355028038e+00
2.340244174047672598e-01 2.414794921631013835e+00
2.353655315441641194e-01 3.475255062620036028e+00
2.367066456835609234e-01 3.750633391816336371e+00
2.380477598229577829e-01 3.817391022077529783e+00
2.393888739623546424e-01 5.164849296718003302e+00
2.407299881017515020e-01 5.974935732257605991e+00
2.420711022411483615e-01 5.407685692297249602e+00
2.434122163805451933e-01 4.538071116012432071e+00
2.447533305199420528e-01 3.533474639255771876e+00
2.460944446593389123e-01 2.700840994527425210e+00
2.474355587987357719e-01 2.839247242032172380e+00
2.487766729381326314e-01 2.958408516182359449e+00
2.501177870775294632e-01 2.324150303248615046e+00
2.514589012169263227e-01 2.561843585181890148e+00
2.528000153563231822e-01 3.393346328137582191e+00
2.541411294957200417e-01 3.489856943074059359e+00
2.554822436351169013e-01 3.107872104711802308e+00
2.568233577745137608e-01 4.242545625912114815e+00
2.581644719139106203e-01 4.238975807108772642e+00
2.595055860533074243e-01 4.435380019205084068e+00
2.608467001927042839e-01 6.790032720609460171e+00
2.621878143321011434e-01 8.753721802725593193e+00
2.635289284714980029e-01 1.126161072223247572e+01
2.648700426108948625e-01 1.301948386029910409e+01
2.662111567502916665e-01 1.218311534972052357e+01
2.675522708896885260e-01 1.033142460826672959e+01
2.688933850290853855e-01 7.734949985787622495e+00
2.702344991684822451e-01 6.405897917706298017e+00
2.715756133078791046e-01 5.381249400811881856e+00
2.729167274472759641e-01 5.257137375427063830e+00
2.742578415866727681e-01 4.891176323297898421e+00
2.755989557260696277e-01 5.564263806297560677e+00
2.769400698654664872e-01 7.360862623139553307e+00
2.782811840048633467e-01 9.670794219870600728e+00
2.796222981442602062e-01 1.258117003145137858e+01
2.809634122836570103e-01 1.389547727365015817e+01
2.823045264230538698e-01 1.240502803862528935e+01
2.836456405624507293e-01 9.538911817649207592e+00
2.849867547018475888e-01 6.698886174665204862e+00
2.863278688412444484e-01 4.949820504843486901e+00
2.876689829806413079e-01 3.970928413003264268e+00
2.890100971200381674e-01 3.155877378910233233e+00
2.903512112594350270e-01 2.542264751597556938e+00
2.916923253988318865e-01 2.158585600353163159e+00
2.930334395382287460e-01 2.560007598904917359e+00
2.943745536776256055e-01 2.348019574562414391e+00
2.957156678170224096e-01 2.565820350734597355e+00
2.970567819564192691e-01 1.782327273889492858e+00
2.983978960958161286e-01 1.535479407222567261e+00
2.997390102352129881e-01 1.864861339004136198e+00
3.010801243746098477e-01 2.132533104744595676e+00
3.024212385140067072e-01 1.916254072013387599e+00
3.037623526534035112e-01 2.443801176346070747e+00
3.051034667928003707e-01 2.678416731745528523e+00
3.064445809321972303e-01 2.495188528178644560e+00
3.077856950715940898e-01 2.401068983229819764e+00
3.091268092109909493e-01 3.160468399404805950e+00
3.104679233503877533e-01 2.344881879380324108e+00
3.118090374897846129e-01 1.285865828792296384e+00
3.131501516291814724e-01 1.869101815873392525e+00
3.144912657685783319e-01 2.330184504038811610e+00
3.158323799079751915e-01 2.074259150489311310e+00
3.171734940473720510e-01 1.412185669137741684e+00
3.185146081867689105e-01 1.809013336116791493e+00
3.198557223261657700e-01 1.879405009603189569e+00
3.211968364655626296e-01 1.652549114340203573e+00
3.225379506049594891e-01 1.908128631818414078e+00
3.238790647443563486e-01 2.484807207946928997e+00
3.252201788837532082e-01 1.988775129679709153e+00
3.265612930231500122e-01 1.232679188079742971e+00
3.279024071625468717e-01 1.271511000657170598e-01
3.292435213019437312e-01 0.000000000000000000e+00
3.305846354413405908e-01 5.759313373714860518e-01
3.319257495807374503e-01 5.490272767705874912e-01
3.332668637201342543e-01 1.004553059787014035e+00
3.346079778595311138e-01 1.665246619202306988e+00
3.359490919989279734e-01 1.645655456364224278e+00
3.372902061383248329e-01 1.260259424330712363e+00
3.386313202777216924e-01 1.079716701276524304e+00
3.399724344171185519e-01 9.451906902330478033e-01
3.413135485565153560e-01 1.325604923730665519e+00
3.426546626959122155e-01 1.934745037099887099e+00
3.439957768353090750e-01 1.249780410400276764e+00
3.453368909747059345e-01 8.018207921932116733e-01
3.466780051141027941e-01 2.054442849545580430e+00
3.480191192534995981e-01 1.875034177276532432e+00
3.493602333928964576e-01 1.161463934778993234e+00
3.507013475322933171e-01 1.322864012479215035e+00
3.520424616716901767e-01 1.875007340004458456e+00
3.533835758110870362e-01 2.400451894400177366e+00
3.547246899504838957e-01 1.972661574495376158e+00
3.560658040898807553e-01 2.159036742162555811e+00
3.574069182292776148e-01 2.049761544034282679e+00
3.587480323686744743e-01 2.278418627319510392e+00
3.600891465080713338e-01 2.127696424790244123e+00
3.614302606474681934e-01 1.595420337096697949e+00
3.627713747868649974e-01 1.287236040319143626e+00
3.641124889262618569e-01 1.158605951096376430e+00
3.654536030656587164e-01 9.775401306900448617e-01
3.667947172050555760e-01 5.407774909532889751e-01
3.681358313444524355e-01 7.732048971848115571e-01
3.694769454838492950e-01 1.228364794251532999e+00
3.708180596232460990e-01 1.484835164214246106e+00
3.721591737626429586e-01 1.384802157945671297e+00
3.735002879020398181e-01 1.908513794333472902e+00
3.748414020414366776e-01 1.663724529385831374e+00
3.761825161808335372e-01 1.129962716625428243e+00
3.775236303202303967e-01 1.242152340131397636e+00
3.788647444596272007e-01 8.417323788679738072e-01
3.802058585990240602e-01 1.088044038757075782e+00
3.815469727384209198e-01 1.388767309452845211e+00
3.828880868778177793e-01 1.788069220285876781e+00
3.842292010172146388e-01 2.516192092023757709e+00
3.855703151566114428e-01 2.986456210882778350e+00
3.869114292960083024e-01 2.632486718584459595e+00
3.882525434354051619e-01 2.522167181930669244e+00
3.895936575748020214e-01 2.734512919615013971e+00
3.909347717141988809e-01 2.498299713761966245e+00
3.922758858535957405e-01 2.165146472095088370e+00
3.936169999929926000e-01 1.675668451032578332e+00
3.949581141323894595e-01 1.564237276440792357e+00
3.962992282717863191e-01 1.853919615248344144e+00
3.976403424111831786e-01 1.345188851346392767e+00
3.989814565505800381e-01 1.244412439472824872e+00
4.003225706899768976e-01 7.799211929336138382e-01
4.016636848293737572e-01 1.176354446124079800e+00
4.030047989687706167e-01 1.472158263457259864e+00
4.043459131081674207e-01 1.519752896228723671e+00
4.056870272475643358e-01 1.470194415612169792e+00
4.070281413869611398e-01 1.644977431830710657e+00
4.083692555263580548e-01 1.507379393153541969e+00
4.097103696657548588e-01 1.432996940773904271e+00
4.110514838051517739e-01 6.938760956705323224e-01
4.123925979445485779e-01 7.724261669806935515e-01
4.137337120839453819e-01 9.762266917179118764e-01
4.150748262233422969e-01 8.104403260869190717e-01
4.164159403627391010e-01 6.236193506170479850e-01
4.177570545021360160e-01 7.985891603154868790e-01
4.190981686415328200e-01 9.587809690902417969e-01
4.204392827809296240e-01 1.133057658131832568e+00
4.217803969203265391e-01 1.806010174884846720e+00
4.231215110597233431e-01 1.334801311744158170e+00
4.244626251991202581e-01 1.184537501193346998e+00
4.258037393385170621e-01 6.947471208615496607e-01
4.271448534779138662e-01 5.121008904524160243e-01
4.284859676173107812e-01 4.659333393799016676e-01
4.298270817567075852e-01 6.730569173804354932e-01
4.311681958961045003e-01 9.436051330727934783e-02
4.325093100355013043e-01 4.554142293072658276e-01
4.338504241748981638e-01 9.646833355561597045e-01
4.351915383142950233e-01 9.596768043169134899e-01
4.365326524536918829e-01 9.001721348265192546e-01
4.378737665930887424e-01 3.376602591594348723e-01
4.392148807324856019e-01 4.600726747883356893e-01
4.405559948718824614e-01 2.749017505300059838e-01
4.418971090112793210e-01 1.163277766399630764e+00
4.432382231506761250e-01 9.202297704456157135e-01
4.445793372900730400e-01 7.285347188237807359e-01
4.459204514294698440e-01 1.496227069950847977e+00
4.472615655688667591e-01 1.494964019132567046e+00
4.486026797082635631e-01 1.247780130582469837e+00
4.499437938476603671e-01 1.308265084499680597e+00
4.512849079870572822e-01 1.298279355169071891e+00
4.526260221264540862e-01 9.030583874390174515e-01
4.539671362658510012e-01 1.364701080273889033e+00
4.553082504052478052e-01 1.079225511491870293e+00
4.566493645446446092e-01 1.164653469109794059e+00
4.579904786840415243e-01 9.911897442735551067e-01
4.593315928234383283e-01 7.182807568194107262e-01
4.606727069628352433e-01 8.384830714561104514e-01
4.620138211022320474e-01 9.115550831447478686e-01
4.633549352416289624e-01 8.503603536201751467e-01
4.646960493810257664e-01 1.472177681728922494e+00
4.660371635204225704e-01 7.091746245125136738e-01
4.673782776598194855e-01 1.021396691813933444e+00
4.687193917992162895e-01 9.643323063795037342e-01
4.700605059386132045e-01 1.060866010303769258e+00
4.714016200780100085e-01 1.460000587267970218e+00
4.727427342174068681e-01 1.043345283818908342e+00
4.740838483568037276e-01 1.025719383290081055e+00
4.754249624962005871e-01 1.124414980757961757e+00
4.767660766355974467e-01 1.024942905530920711e+00
4.781071907749943062e-01 6.207229015141422224e-01
4.794483049143911102e-01 1.181890559092323656e+00
4.807894190537880252e-01 1.779091506689113089e+00
4.821305331931848293e-01 1.446206857242913202e+00
4.834716473325817443e-01 9.578780215710054335e-01
4.848127614719785483e-01 1.007565656173625257e+00
4.861538756113753523e-01 8.972276628786630681e-01
4.874949897507722674e-01 8.526821567230769006e-01
4.888361038901690714e-01 1.114935954815251762e+00
4.901772180295659864e-01 1.510591995968013634e+00
4.915183321689627904e-01 1.464664562828104977e+00
4.928594463083597055e-01 1.458930973243738549e+00
4.942005604477565095e-01 1.597448994023750402e+00
4.955416745871533135e-01 1.445554556578841243e+00
4.968827887265502286e-01 1.665214580279595680e+00
4.982239028659470326e-01 9.590452982252770653e-01
4.995650170053439476e-01 1.185428375785434696e+00
5.009061311447408071e-01 1.306934995875863592e+00
5.022472452841375556e-01 1.393552195541090555e+00
5.035883594235345262e-01 1.377889831980382951e+00
5.049294735629312747e-01 1.002865255116944354e+00
5.062705877023282452e-01 3.011845432724129523e-01
5.076117018417249938e-01 5.916686169337310730e-01
5.089528159811218533e-01 7.935045220956595813e-01
5.102939301205187128e-01 6.230522336322508181e-01
5.116350442599155723e-01 4.669424680675149375e-01
5.129761583993124319e-01 5.745163039281635520e-01
5.143172725387092914e-01 3.549221967864752969e-01
5.156583866781061509e-01 4.117010527896098893e-01
5.169995008175030105e-01 7.330473430636743615e-01
5.183406149568997590e-01 7.968035066965768465e-01
5.196817290962967295e-01 5.060233163076901519e-01
5.210228432356934780e-01 4.567251143322010876e-01
5.223639573750904486e-01 6.041494114103329593e-01
5.237050715144871971e-01 5.348830921962104412e-01
5.250461856538840566e-01 8.122945884751828771e-01
5.263872997932809161e-01 1.131178435365271184e+00
5.277284139326777757e-01 1.043149416326144774e+00
5.290695280720746352e-01 7.185594748603278958e-01
5.304106422114714947e-01 6.378820116729855272e-01
5.317517563508683542e-01 2.638977782767284452e-01
5.330928704902652138e-01 3.308327256517458181e-01
5.344339846296620733e-01 3.817797220331868857e-01
5.357750987690589328e-01 3.880377568005144440e-01
5.371162129084557924e-01 6.490439595440591347e-01
5.384573270478525409e-01 6.427386525349874091e-01
5.397984411872495114e-01 7.187033320741420539e-01
5.411395553266462599e-01 5.614323659034425873e-01
5.424806694660432305e-01 4.084009698320301140e-01
5.438217836054399790e-01 6.792040061396988904e-01
5.451628977448369495e-01 6.673064578828586946e-01
5.465040118842336980e-01 8.410929557751956054e-01
5.478451260236305576e-01 4.067725124227052902e-01
5.491862401630274171e-01 6.817402701792047992e-01
5.505273543024242766e-01 4.575592537963046880e-01
5.518684684418211361e-01 7.970613083649595865e-01
5.532095825812179957e-01 5.403875767824217746e-01
5.545506967206147442e-01 2.721034449076285000e-01
