# q (1/Angstrom), Intensity (arb)
2.078726924066784734e-02 4.882289033782583942e+01
2.212838338006469993e-02 1.143359716064220777e+02
2.346949751946154905e-02 1.602905582731876848e+02
2.481061165885840164e-02 1.961059389922237415e+02
2.615172579825525423e-02 2.054519627060552125e+02
2.749283993765210335e-02 2.042218621823148510e+02
2.883395407704895941e-02 2.062915557147983918e+02
3.017506821644580506e-02 2.041752262217199814e+02
3.151618235584265765e-02 2.014651374424896062e+02
3.285729649523951718e-02 1.967052059734731699e+02
3.419841063463636283e-02 1.888470487400943227e+02
3.553952477403321542e-02 1.848413079483370041e+02
3.688063891343006800e-02 1.814251502585889284e+02
3.822175305282692059e-02 1.793100900627842123e+02
3.956286719222376624e-02 1.765517766747227313e+02
4.090398133162062577e-02 1.706212597794468593e+02
4.224509547101747142e-02 1.641755247810271499e+02
4.358620961041432401e-02 1.623873041310689871e+02
4.492732374981117660e-02 1.588031600181998328e+02
4.626843788920802919e-02 1.559414031064834489e+02
4.760955202860488178e-02 1.540749358202932910e+02
4.895066616800172743e-02 1.487173037595278231e+02
5.029178030739858696e-02 1.469233397908998313e+02
5.163289444679544649e-02 1.445086834878455022e+02
5.297400858619229214e-02 1.420242266860354619e+02
5.431512272558913779e-02 1.409517704063396195e+02
5.565623686498599731e-02 1.384293032476703900e+02
5.699735100438284990e-02 1.331535056663355761e+02
5.833846514377969555e-02 1.311841768690967456e+02
5.967957928317654814e-02 1.293857587879228674e+02
6.102069342257340767e-02 1.258871440034727982e+02
6.236180756197025332e-02 1.202945138176501985e+02
6.370292170136709897e-02 1.184078616984361929e+02
6.504403584076395850e-02 1.191663648083805924e+02
6.638514998016080415e-02 1.160739933173172176e+02
6.772626411955766368e-02 1.127293437811028127e+02
6.906737825895450933e-02 1.124676940457943886e+02
7.040849239835136886e-02 1.097649339947645615e+02
7.174960653774821451e-02 1.074456955225564343e+02
7.309072067714506016e-02 1.059461494589489234e+02
7.443183481654190581e-02 1.054517096203182405e+02
7.577294895593877921e-02 1.066861542761122621e+02
7.711406309533562486e-02 1.059602718740715943e+02
7.845517723473247051e-02 1.057853055817668917e+02
7.979629137412933004e-02 1.108887481731378841e+02
8.113740551352617569e-02 1.150247118472350678e+02
8.247851965292302134e-02 1.271494961583799466e+02
8.381963379231988087e-02 1.649703862611125373e+02
8.516074793171674040e-02 2.940866961358318576e+02
8.650186207111358605e-02 5.824991170718571993e+02
8.784297621051043170e-02 9.448584994885694641e+02
8.918409034990729123e-02 1.555531114712112412e+03
9.052520448930413688e-02 3.197406499007506227e+03
9.186631862870098253e-02 5.421661963958145861e+03
9.320743276809784206e-02 5.359242957178478719e+03
9.454854690749470159e-02 3.249926436254006148e+03
9.588966104689154724e-02 1.678514934370871515e+03
9.723077518628839289e-02 1.020816899994116056e+03
9.857188932568525241e-02 7.672166482254825723e+02
9.991300346508209806e-02 6.267183832914480490e+02
1.012541176044789437e-01 5.308486602222008059e+02
1.025952317438758032e-01 4.906491167160241957e+02
1.039363458832726350e-01 5.550714941622445622e+02
1.052774600226694945e-01 7.600587217903635064e+02
1.066185741620663541e-01 8.693219978538683108e+02
1.079596883014631858e-01 6.565183095649859979e+02
1.093008024408600454e-01 3.535841454190056083e+02
1.106419165802569049e-01 1.686335767667958123e+02
1.119830307196537506e-01 9.187222307116405773e+01
1.133241448590506101e-01 6.238113685154314680e+01
1.146652589984474419e-01 4.840077594994485821e+01
1.160063731378443014e-01 3.908484078510502968e+01
1.173474872772411609e-01 3.308182506926701194e+01
1.186886014166380066e-01 2.684984857571231487e+01
1.200297155560348661e-01 2.378932854389799445e+01
1.213708296954317256e-01 2.132392851907263776e+01
1.227119438348285574e-01 1.973058212963115921e+01
1.240530579742254169e-01 1.681380830997838416e+01
1.253941721136222764e-01 1.498457343624696136e+01
1.267352862530191082e-01 1.403095334492294910e+01
1.280764003924159677e-01 1.369076500497550342e+01
1.294175145318128273e-01 1.222463012941886973e+01
1.307586286712096590e-01 1.061098201829514664e+01
1.320997428106065186e-01 1.069559505483695716e+01
1.334408569500033781e-01 9.799778936350548975e+00
1.347819710894002376e-01 1.008518116475656257e+01
1.361230852287970972e-01 1.004839055402717918e+01
1.374641993681939289e-01 9.796054548220496372e+00
1.388053135075907885e-01 9.827071862081879772e+00
1.401464276469876480e-01 9.828461628268144068e+00
1.414875417863844798e-01 1.098230185245077450e+01
1.428286559257813393e-01 1.146126102759424725e+01
1.441697700651781988e-01 1.297853948871915009e+01
1.455108842045750306e-01 1.526975994861469133e+01
1.468519983439718901e-01 2.501700310002546246e+01
1.481931124833687219e-01 5.532872187767753758e+01
1.495342266227655814e-01 1.050933017943465444e+02
1.508753407621624687e-01 1.322575824041096553e+02
1.522164549015593005e-01 1.094229289115473733e+02
1.535575690409561600e-01 7.130050417141330854e+01
1.548986831803530195e-01 4.480832652526383697e+01
1.562397973197498513e-01 2.947611880150127206e+01
1.575809114591467108e-01 2.466352207292473508e+01
1.589220255985435704e-01 2.425429976511128416e+01
1.602631397379404021e-01 2.385911181741300879e+01
1.616042538773372617e-01 2.317938429844541304e+01
1.629453680167341212e-01 2.372340657908870298e+01
1.642864821561309530e-01 2.404851777617194841e+01
1.656275962955278125e-01 2.387884749841759913e+01
1.669687104349246720e-01 2.329226374354101381e+01
1.683098245743215315e-01 2.501661613646169258e+01
1.696509387137183911e-01 2.702536225009849602e+01
1.709920528531152228e-01 3.324251176868651214e+01
1.723331669925120824e-01 5.215774844834291457e+01
1.736742811319089419e-01 1.035803305422744529e+02
1.750153952713057737e-01 1.956006850832684449e+02
1.763565094107026332e-01 2.694501455135115293e+02
1.776976235500994927e-01 2.562789252248505818e+02
1.790387376894963245e-01 1.863707936135627392e+02
1.803798518288931840e-01 1.249501740773918499e+02
1.817209659682900158e-01 9.139999375430880946e+01
1.830620801076868753e-01 8.329542207640093920e+01
1.844031942470837349e-01 8.119811511820165606e+01
1.857443083864805944e-01 6.846197162780559609e+01
1.870854225258774539e-01 4.837901454593279027e+01
1.884265366652743134e-01 3.209809530163015268e+01
1.897676508046711452e-01 2.142786734127628279e+01
1.911087649440680047e-01 1.487665525023909652e+01
1.924498790834648643e-01 1.220899605403256771e+01
1.937909932228616960e-01 1.048302439382848661e+01
1.951321073622585556e-01 8.057060800990029747e+00
1.964732215016554151e-01 7.765098387105879851e+00
1.978143356410522469e-01 8.076990545602100724e+00
1.991554497804491064e-01 6.969266739924876219e+00
2.004965639198459382e-01 6.171964681015452925e+00
2.018376780592427977e-01 6.915267254784652096e+00
2.031787921986396572e-01 6.685354217789722497e+00
2.045199063380365168e-01 5.881858437965291841e+00
2.058610204774333763e-01 5.322746808762218507e+00
2.072021346168302081e-01 4.659042616157648808e+00
2.085432487562270676e-01 6.019464749785072399e+00
2.098843628956239271e-01 5.983311269366268448e+00
2.112254770350207866e-01 6.355826515855596881e+00
2.125665911744176462e-01 6.746512806658188310e+00
2.139077053138144502e-01 6.059758948502363296e+00
2.152488194532113097e-01 6.118794252685304969e+00
2.165899335926081692e-01 5.700742099454629397e+00
2.179310477320050288e-01 4.744659487356997829e+00
2.192721618714018883e-01 4.728020098753063394e+00
2.206132760107987478e-01 3.911081649321289433e+00
2.219543901501955796e-01 3.489900083446642043e+00
2.232955042895924391e-01 3.940167442591814506e+00
2.246366184289892987e-01 3.485860444519687462e+00
2.259777325683861582e-01 3.597511604935377250e+00
2.273188467077830177e-01 3.156009658778629046e+00
2.286599608471798217e-01 3.524152805845673697e+00
2.300010749865766813e-01 3.634380753803213793e+00
2.313421891259735408e-01 4.109401699643328243e+00
2.326833032653704003e-01 4.214462591433971284e+00
2.340244174047672598e-01 4.838061033578910042e+00
2.353655315441641194e-01 5.523025336241289551e+00
2.367066456835609234e-01 7.015268133901898295e+00
2.380477598229577829e-01 7.631141356233385409e+00
2.393888739623546424e-01 6.072347052969462311e+00
2.407299881017515020e-01 5.450836183922163514e+00
2.420711022411483615e-01 5.589078012592835876e+00
2.434122163805451933e-01 4.221156456017780556e+00
2.447533305199420528e-01 3.531254524447660970e+00
2.460944446593389123e-01 4.303047246728112896e+00
2.474355587987357719e-01 4.690674421332062138e+00
2.487766729381326314e-01 4.342550094481467227e+00
2.501177870775294632e-01 3.838983357338747737e+00
2.514589012169263227e-01 3.779109598117443625e+00
2.528000153563231822e-01 3.585034866186092017e+00
2.541411294957200417e-01 4.663525450348188883e+00
2.554822436351169013e-01 5.160983763191609341e+00
2.568233577745137608e-01 6.189589776357991013e+00
2.581644719139106203e-01 9.470500575018391487e+00
2.595055860533074243e-01 1.269702225605036006e+01
2.608467001927042839e-01 1.495021385362404942e+01
2.621878143321011434e-01 1.462455186252974215e+01
2.635289284714980029e-01 1.204585933219114224e+01
2.648700426108948625e-01 9.712146282993415980e+00
2.662111567502916665e-01 7.592888706165581425e+00
2.675522708896885260e-01 6.770070609240150361e+00
2.688933850290853855e-01 5.681506951049570375e+00
2.702344991684822451e-01 6.198967990036891251e+00
2.715756133078791046e-01 7.964099592940897310e+00
2.729167274472759641e-01 9.807438361554119410e+00
2.742578415866727681e-01 1.228605605240903742e+01
2.755989557260696277e-01 1.411286426154266849e+01
2.769400698654664872e-01 1.493915545016753299e+01
2.782811840048633467e-01 1.317083835601133046e+01
2.796222981442602062e-01 9.749309360712587136e+00
2.809634122836570103e-01 7.337976984421402449e+00
2.823045264230538698e-01 5.253270518358135632e+00
2.836456405624507293e-01 4.558326459345593662e+00
2.849867547018475888e-01 3.277275140447756030e+00
2.863278688412444484e-01 2.968972480089689725e+00
2.876689829806413079e-01 3.235759427000076016e+00
2.890100971200381674e-01 2.592925444446564143e+00
2.903512112594350270e-01 1.774154615592394180e+00
2.916923253988318865e-01 2.064182893713237377e+00
2.930334395382287460e-01 2.116254710404859907e+00
2.943745536776256055e-01 2.482416948271051638e+00
2.957156678170224096e-01 2.178393556486739158e+00
2.970567819564192691e-01 2.239885297213305648e+00
2.983978960958161286e-01 2.343064329400107226e+00
2.997390102352129881e-01 2.571810749174375132e+00
3.010801243746098477e-01 2.883285711945703156e+00
3.024212385140067072e-01 2.871005693486523569e+00
3.037623526534035112e-01 2.707688126112643090e+00
3.051034667928003707e-01 2.495850812611550396e+00
3.064445809321972303e-01 2.477742858709902407e+00
3.077856950715940898e-01 2.346455283509868650e+00
3.091268092109909493e-01 1.575031655191537538e+00
3.104679233503877533e-01 2.211640396253940821e+00
3.118090374897846129e-01 1.996815884841637967e+00
3.131501516291814724e-01 1.761501012565020119e+00
3.144912657685783319e-01 1.883918228702597730e+00
3.158323799079751915e-01 1.553943219092815298e+00
3.171734940473720510e-01 7.400025879106095772e-01
3.185146081867689105e-01 1.207976699868737569e+00
3.198557223261657700e-01 2.046329031854355662e+00
3.211968364655626296e-01 1.517921211807845339e+00
3.225379506049594891e-01 1.223452537988194422e+00
3.238790647443563486e-01 1.529845382986550817e+00
3.252201788837532082e-01 1.702124739761231353e+00
3.265612930231500122e-01 1.739052459579596643e+00
3.279024071625468717e-01 1.526636745098926440e+00
3.292435213019437312e-01 1.282151671933974058e+00
3.305846354413405908e-01 8.546017118589617212e-01
3.319257495807374503e-01 7.884870754335366883e-01
3.332668637201342543e-01 5.043197378493715632e-01
3.346079778595311138e-01 8.143965748701305074e-01
3.359490919989279734e-01 1.467993889737300606e+00
3.372902061383248329e-01 1.191026238923143410e+00
3.386313202777216924e-01 1.762877927111830445e+00
3.399724344171185519e-01 1.441206930397200381e+00
3.413135485565153560e-01 8.306982120045205420e-01
3.426546626959122155e-01 1.014105842548829628e+00
3.439957768353090750e-01 1.909089602332286972e+00
3.453368909747059345e-01 1.753050031270959153e+00
3.466780051141027941e-01 2.152245558559968686e+00
3.480191192534995981e-01 2.298089224018696086e+00
3.493602333928964576e-01 2.377313705122389820e+00
3.507013475322933171e-01 2.693846025755433971e+00
3.520424616716901767e-01 2.941908790444742294e+00
3.533835758110870362e-01 2.894368154145922745e+00
3.547246899504838957e-01 2.321746605538564268e+00
3.560658040898807553e-01 2.098476791450053724e+00
3.574069182292776148e-01 2.155385208256674900e+00
3.587480323686744743e-01 1.996588256725161159e+00
3.600891465080713338e-01 1.852701162180466099e+00
3.614302606474681934e-01 1.589778718211178443e+00
3.627713747868649974e-01 1.751944023074329948e+00
3.641124889262618569e-01 2.014680525438251379e+00
3.654536030656587164e-01 1.552625724157323361e+00
3.667947172050555760e-01 1.603860870307798336e+00
3.681358313444524355e-01 1.980936710580323279e+00
3.694769454838492950e-01 1.927503124151414227e+00
3.708180596232460990e-01 2.187221800669036043e+00
3.721591737626429586e-01 1.984642875644965443e+00
3.735002879020398181e-01 2.072760361022446318e+00
3.748414020414366776e-01 1.641043507466349638e+00
3.761825161808335372e-01 2.149870816909910332e+00
3.775236303202303967e-01 2.058294059773075446e+00
3.788647444596272007e-01 2.872097583887011751e+00
3.802058585990240602e-01 3.134627764316107346e+00
3.815469727384209198e-01 3.321003552639567147e+00
3.828880868778177793e-01 3.451603427653680001e+00
3.842292010172146388e-01 2.591920225128021116e+00
3.855703151566114428e-01 2.414563936291088453e+00
3.869114292960083024e-01 1.819646234252076056e+00
3.882525434354051619e-01 1.336718467367944641e+00
3.895936575748020214e-01 1.067711805989802087e+00
3.909347717141988809e-01 1.278306818786660415e+00
3.922758858535957405e-01 1.119444878933634868e+00
3.936169999929926000e-01 1.917732424883823228e+00
3.949581141323894595e-01 1.210433125510618879e+00
3.962992282717863191e-01 1.523985964239514601e+00
3.976403424111831786e-01 1.844909244322678887e+00
3.989814565505800381e-01 1.405021641346621664e+00
4.003225706899768976e-01 1.071670789841533633e+00
4.016636848293737572e-01 1.296599821319048829e+00
4.030047989687706167e-01 1.160825031046229583e+00
4.043459131081674207e-01 1.100232310532717861e+00
4.056870272475643358e-01 1.347221982767948134e+00
4.070281413869611398e-01 1.089301630609128324e+00
4.083692555263580548e-01 1.241695525737938510e+00
4.097103696657548588e-01 1.529275154639023526e+00
4.110514838051517739e-01 1.668824212172424382e+00
4.123925979445485779e-01 9.158308645756392252e-01
4.137337120839453819e-01 8.720603494099918862e-01
4.150748262233422969e-01 1.021905651594863684e+00
4.164159403627391010e-01 6.893527620882338169e-01
4.177570545021360160e-01 7.784972819742677075e-01
4.190981686415328200e-01 9.685356279134822444e-01
4.204392827809296240e-01 5.632793709573746810e-01
4.217803969203265391e-01 1.038103294573943458e+00
4.231215110597233431e-01 8.988266290595134933e-01
4.244626251991202581e-01 5.604878977027709652e-01
4.258037393385170621e-01 8.560544730467114505e-01
4.271448534779138662e-01 1.473864575790074127e+00
4.284859676173107812e-01 1.345607931401900714e+00
4.298270817567075852e-01 1.384020891797263175e+00
4.311681958961045003e-01 1.718070742399689266e+00
4.325093100355013043e-01 1.589901810726061626e+00
4.338504241748981638e-01 1.254071488068944973e+00
4.351915383142950233e-01 1.143376394323993850e+00
4.365326524536918829e-01 1.527083734980465124e+00
4.378737665930887424e-01 1.457073234904484593e+00
4.392148807324856019e-01 6.748445691256392820e-01
4.405559948718824614e-01 1.031219648315627069e+00
4.418971090112793210e-01 1.530586234226092301e+00
4.432382231506761250e-01 1.561822684676442918e+00
4.445793372900730400e-01 7.895609010486026591e-01
4.459204514294698440e-01 5.593985175467111048e-01
4.472615655688667591e-01 9.438765258862673591e-01
4.486026797082635631e-01 1.057153523075569979e+00
4.499437938476603671e-01 1.177564659230398547e+00
4.512849079870572822e-01 1.139513638276767438e+00
4.526260221264540862e-01 1.384314639659137924e+00
4.539671362658510012e-01 1.593840346154081544e+00
4.553082504052478052e-01 1.615324110692341719e+00
4.566493645446446092e-01 8.743637874937491006e-01
4.579904786840415243e-01 9.089128572465909883e-01
4.593315928234383283e-01 1.192406853528936495e+00
4.606727069628352433e-01 1.692179486768409902e+00
4.620138211022320474e-01 1.439098874914876092e+00
4.633549352416289624e-01 6.099067907477859762e-01
4.646960493810257664e-01 8.195894848863787274e-01
4.660371635204225704e-01 1.543517480857630630e+00
4.673782776598194855e-01 1.554406342956198728e+00
4.687193917992162895e-01 1.664096698248826556e+00
4.700605059386132045e-01 1.445246603741793479e+00
4.714016200780100085e-01 8.442356163508719646e-01
4.727427342174068681e-01 1.133182347992956807e+00
4.740838483568037276e-01 1.105255346130689986e+00
4.754249624962005871e-01 9.194372878625074463e-01
4.767660766355974467e-01 9.949834404507527097e-01
4.781071907749943062e-01 1.476971461128002261e+00
4.794483049143911102e-01 1.002632984945989847e+00
4.807894190537880252e-01 1.221708750115482189e+00
4.821305331931848293e-01 1.166976918842365762e+00
4.834716473325817443e-01 7.039615700357018113e-01
4.848127614719785483e-01 8.672180365636563693e-01
4.861538756113753523e-01 1.166104964850148917e+00
4.874949897507722674e-01 1.338684792163434167e+00
4.888361038901690714e-01 1.228325893886292874e+00
4.901772180295659864e-01 8.508814962583386432e-01
4.915183321689627904e-01 6.711198258796997607e-01
4.928594463083597055e-01 7.967809473095712747e-01
4.942005604477565095e-01 1.113203756087230545e+00
4.955416745871533135e-01 8.872124148486477679e-01
4.968827887265502286e-01 8.420284135194719966e-01
4.982239028659470326e-01 3.191044408091414653e-01
4.995650170053439476e-01 3.527245023476268670e-01
5.009061311447408071e-01 3.444479629204408866e-01
5.022472452841375556e-01 0.000000000000000000e+00
5.035883594235345262e-01 8.251030448915486204e-01
5.049294735629312747e-01 9.427832685913983823e-01
5.062705877023282452e-01 8.609473087495018717e-01
5.076117018417249938e-01 6.863405785606175868e-01
5.089528159811218533e-01 4.425354742627121141e-01
5.102939301205187128e-01 5.832377775847277235e-01
5.116350442599155723e-01 5.820424535658190734e-01
5.129761583993124319e-01 4.741773103845190462e-01
5.143172725387092914e-01 4.507909767622777508e-01
5.156583866781061509e-01 2.850364449200526451e-01
5.169995008175030105e-01 3.338115225640194694e-01
5.183406149568997590e-01 4.279817701132628827e-01
5.196817290962967295e-01 4.500488458417777338e-01
5.210228432356934780e-01 6.369091606732979471e-02
5.223639573750904486e-01 5.179045972961660027e-01
5.237050715144871971e-01 6.454282694603818982e-01
5.250461856538840566e-01 7.678076067950172501e-01
5.263872997932809161e-01 9.207299169066658351e-01
5.277284139326777757e-01 1.464681589904458292e+00
5.290695280720746352e-01 1.080955009524814159e+00
5.304106422114714947e-01 1.340641805657895702e+00
5.317517563508683542e-01 1.015946748852769588e+00
5.330928704902652138e-01 4.898039954121884421e-01
5.344339846296620733e-01 5.935845229490723796e-01
5.357750987690589328e-01 8.671864251677163793e-01
5.371162129084557924e-01 1.214056722028999502e+00
5.384573270478525409e-01 1.133533239111130797e+00
5.397984411872495114e-01 9.313673301548845984e-01
5.411395553266462599e-01 1.310532506314615375e+00
5.424806694660432305e-01 1.458845139673414337e+00
5.438217836054399790e-01 9.427341351272815473e-01
5.451628977448369495e-01 9.630388249937027467e-01
5.465040118842336980e-01 6.204308871374877299e-01
5.478451260236305576e-01 8.155042260865457138e-01
5.491862401630274171e-01 7.766434492449576510e-01
5.505273543024242766e-01 4.157065043695382656e-01
5.518684684418211361e-01 4.005000659395108187e-01
5.532095825812179957e-01 8.973423846694856820e-01
5.545506967206147442e-01 1.130312889654831565e+00
