# q (1/Angstrom), Intensity (arb)
2.078726924066784734e-02 6.657047038303471709e+01
2.212838338006469993e-02 1.381390684252116614e+02
2.346949751946154905e-02 1.926062125071090350e+02
2.481061165885840164e-02 2.376528447379871523e+02
2.615172579825525423e-02 2.537747840672294046e+02
2.749283993765210335e-02 2.559069465520885842e+02
2.883395407704895941e-02 2.557706503336535206e+02
3.017506821644580506e-02 2.531836974770559436e+02
3.151618235584265765e-02 2.504395848931102080e+02
3.285729649523951718e-02 2.456590382639394363e+02
3.419841063463636283e-02 2.370503807653635420e+02
3.553952477403321542e-02 2.312837838708568086e+02
3.688063891343006800e-02 2.269344766650339977e+02
3.822175305282692059e-02 2.245535586636313496e+02
3.956286719222376624e-02 2.233138044143742320e+02
4.090398133162062577e-02 2.158382892613451247e+02
4.224509547101747142e-02 2.130381397219267114e+02
4.358620961041432401e-02 2.081832431965322598e+02
4.492732374981117660e-02 2.018186508787908053e+02
4.626843788920802919e-02 1.982284484055651888e+02
4.760955202860488178e-02 1.959489002161837163e+02
4.895066616800172743e-02 1.926067023153005096e+02
5.029178030739858696e-02 1.873080503869641689e+02
5.163289444679544649e-02 1.814805189115442943e+02
5.297400858619229214e-02 1.793332682744403996e+02
5.431512272558913779e-02 1.756812304668626155e+02
5.565623686498599731e-02 1.706306738165109209e+02
5.699735100438284990e-02 1.641098492804099180e+02
5.833846514377969555e-02 1.600314397285315522e+02
5.967957928317654814e-02 1.584109731066800180e+02
6.102069342257340767e-02 1.546993476243474674e+02
6.236180756197025332e-02 1.502537325767951586e+02
6.370292170136709897e-02 1.467752185838007506e+02
6.504403584076395850e-02 1.434644289673317132e+02
6.638514998016080415e-02 1.391223678041315850e+02
6.772626411955766368e-02 1.350169268915921919e+02
6.906737825895450933e-02 1.351584361810193968e+02
7.040849239835136886e-02 1.320251735182224593e+02
7.174960653774821451e-02 1.283845915880979192e+02
7.309072067714506016e-02 1.269856564348433494e+02
7.443183481654190581e-02 1.232716304984058695e+02
7.577294895593877921e-02 1.246088290762724853e+02
7.711406309533562486e-02 1.243695359639618800e+02
7.845517723473247051e-02 1.240903397885062986e+02
7.979629137412933004e-02 1.263175904135019891e+02
8.113740551352617569e-02 1.300344671525396905e+02
8.247851965292302134e-02 1.435952804199238813e+02
8.381963379231988087e-02 1.875948239920421940e+02
8.516074793171674040e-02 3.353361834464135427e+02
8.650186207111358605e-02 6.379693144281526429e+02
8.784297621051043170e-02 1.006516529739868929e+03
8.918409034990729123e-02 1.703364140089568764e+03
9.052520448930413688e-02 3.515047124121120305e+03
9.186631862870098253e-02 5.633152157024072949e+03
9.320743276809784206e-02 5.184663401302201237e+03
9.454854690749470159e-02 3.014045944142277676e+03
9.588966104689154724e-02 1.561515010066819741e+03
9.723077518628839289e-02 9.831871249407311097e+02
9.857188932568525241e-02 7.520961374339725580e+02
9.991300346508209806e-02 6.180617428775391318e+02
1.012541176044789437e-01 5.259586536512467774e+02
1.025952317438758032e-01 4.928330302301152415e+02
1.039363458832726350e-01 5.778446405358456559e+02
1.052774600226694945e-01 7.907411828284868989e+02
1.066185741620663541e-01 8.596594131429573054e+02
1.079596883014631858e-01 6.107378542714592413e+02
1.093008024408600454e-01 3.178227969963893997e+02
1.106419165802569049e-01 1.524409818955721505e+02
1.119830307196537506e-01 8.590019271738012208e+01
1.133241448590506101e-01 6.045230698506821909e+01
1.146652589984474419e-01 4.720223799828698930e+01
1.160063731378443014e-01 3.757928825362102998e+01
1.173474872772411609e-01 3.240483666092623594e+01
1.186886014166380066e-01 2.809603738761205705e+01
1.200297155560348661e-01 2.408396828217414054e+01
1.213708296954317256e-01 2.087267701713295764e+01
1.227119438348285574e-01 1.902449309575712277e+01
1.240530579742254169e-01 1.658338782496358021e+01
1.253941721136222764e-01 1.500591817241200943e+01
1.267352862530191082e-01 1.423329291633510252e+01
1.280764003924159677e-01 1.387323692727778734e+01
1.294175145318128273e-01 1.286005373968336585e+01
1.307586286712096590e-01 1.158643056006263805e+01
1.320997428106065186e-01 1.076121952676592741e+01
1.334408569500033781e-01 9.845925703245228533e+00
1.347819710894002376e-01 1.021753481388529394e+01
1.361230852287970972e-01 1.024713678862539723e+01
1.374641993681939289e-01 9.725085774482693068e+00
1.388053135075907885e-01 9.591858593655643972e+00
1.401464276469876480e-01 9.398582655442822897e+00
1.414875417863844798e-01 1.076399812900336883e+01
1.428286559257813393e-01 1.081337252142208172e+01
1.441697700651781988e-01 1.205423993199065080e+01
1.455108842045750306e-01 1.683237789725606603e+01
1.468519983439718901e-01 3.050086689696510689e+01
1.481931124833687219e-01 6.660248738741348973e+01
1.495342266227655814e-01 1.192435373396613016e+02
1.508753407621624687e-01 1.369677944607742290e+02
1.522164549015593005e-01 1.052132287122908281e+02
1.535575690409561600e-01 6.698495160375286162e+01
1.548986831803530195e-01 4.253859876482387392e+01
1.562397973197498513e-01 2.918227306578569369e+01
1.575809114591467108e-01 2.543931626618251585e+01
1.589220255985435704e-01 2.492254402053443130e+01
1.602631397379404021e-01 2.553593003712353493e+01
1.616042538773372617e-01 2.515034120723659328e+01
1.629453680167341212e-01 2.423792777280071675e+01
1.642864821561309530e-01 2.421825963345970933e+01
1.656275962955278125e-01 2.553694004180967170e+01
1.669687104349246720e-01 2.516983246907167882e+01
1.683098245743215315e-01 2.639345823776967848e+01
1.696509387137183911e-01 2.915589804370127069e+01
1.709920528531152228e-01 3.665317021525086716e+01
1.723331669925120824e-01 6.115216928399077290e+01
1.736742811319089419e-01 1.245737663657620686e+02
1.750153952713057737e-01 2.232105330094352666e+02
1.763565094107026332e-01 2.825965162029488056e+02
1.776976235500994927e-01 2.491146318012129370e+02
1.790387376894963245e-01 1.742019534650750074e+02
1.803798518288931840e-01 1.167892585818141669e+02
1.817209659682900158e-01 8.964408124215047735e+01
1.830620801076868753e-01 8.471188337284743852e+01
1.844031942470837349e-01 8.036281234311903177e+01
1.857443083864805944e-01 6.394915859015176807e+01
1.870854225258774539e-01 4.394386630496639157e+01
1.884265366652743134e-01 2.906768865462034057e+01
1.897676508046711452e-01 2.035129316643549657e+01
1.911087649440680047e-01 1.489480620729477778e+01
1.924498790834648643e-01 1.128938303146618694e+01
1.937909932228616960e-01 1.049248786768765740e+01
1.951321073622585556e-01 8.792728766378758110e+00
1.964732215016554151e-01 7.226953197664556683e+00
1.978143356410522469e-01 7.254446576253528178e+00
1.991554497804491064e-01 7.629418416638756639e+00
2.004965639198459382e-01 6.899714991605449654e+00
2.018376780592427977e-01 7.303131331216079047e+00
2.031787921986396572e-01 6.957626057547017240e+00
2.045199063380365168e-01 5.972315144845623536e+00
2.058610204774333763e-01 5.591311930569744959e+00
2.072021346168302081e-01 5.768583984260772013e+00
2.085432487562270676e-01 5.938612152630483365e+00
2.098843628956239271e-01 5.964119655351524329e+00
2.112254770350207866e-01 6.692540271145489328e+00
2.125665911744176462e-01 6.867215794787782102e+00
2.139077053138144502e-01 6.408020471990752753e+00
2.152488194532113097e-01 6.137484905737551344e+00
2.165899335926081692e-01 5.674568291623742766e+00
2.179310477320050288e-01 4.477503770531740201e+00
2.192721618714018883e-01 4.079064620776435390e+00
2.206132760107987478e-01 3.040876686109385219e+00
2.219543901501955796e-01 3.569998033974499663e+00
2.232955042895924391e-01 4.264257307189168955e+00
2.246366184289892987e-01 4.064103606387732270e+00
2.259777325683861582e-01 3.733510763597109872e+00
2.273188467077830177e-01 2.859642240404113522e+00
2.286599608471798217e-01 3.589294056809265498e+00
2.300010749865766813e-01 4.236558569325310941e+00
2.313421891259735408e-01 4.528782080473447991e+00
2.326833032653704003e-01 4.054805641631858748e+00
2.340244174047672598e-01 5.049462680240424106e+00
2.353655315441641194e-01 6.235027529439747696e+00
2.367066456835609234e-01 7.581471033983419261e+00
2.380477598229577829e-01 7.520035530710757143e+00
2.393888739623546424e-01 6.784096605929747170e+00
2.407299881017515020e-01 5.923912591095444213e+00
2.420711022411483615e-01 5.577392142265509278e+00
2.434122163805451933e-01 4.052874530173099288e+00
2.447533305199420528e-01 3.893871722912408018e+00
2.460944446593389123e-01 3.968631800854652170e+00
2.474355587987357719e-01 4.952372103084229593e+00
2.487766729381326314e-01 4.598804515025449291e+00
2.501177870775294632e-01 4.216577257354458652e+00
2.514589012169263227e-01 3.377238302046066565e+00
2.528000153563231822e-01 3.526610658381287067e+00
2.541411294957200417e-01 4.913904271429586856e+00
2.554822436351169013e-01 6.515856092053525117e+00
2.568233577745137608e-01 8.093220114785623309e+00
2.581644719139106203e-01 1.109938944153796569e+01
2.595055860533074243e-01 1.439448822934770078e+01
2.608467001927042839e-01 1.539475323783216254e+01
2.621878143321011434e-01 1.377312182033246302e+01
2.635289284714980029e-01 1.147913299164103762e+01
2.648700426108948625e-01 9.243825535117309755e+00
2.662111567502916665e-01 7.880653354388215348e+00
2.675522708896885260e-01 6.552454864863690887e+00
2.688933850290853855e-01 6.329149790929236019e+00
2.702344991684822451e-01 6.907045047561766182e+00
2.715756133078791046e-01 8.324186962167800630e+00
2.729167274472759641e-01 1.117206177255684452e+01
2.742578415866727681e-01 1.436539008890254365e+01
2.755989557260696277e-01 1.548965045631140924e+01
2.769400698654664872e-01 1.518331608556444223e+01
2.782811840048633467e-01 1.293243772163431515e+01
2.796222981442602062e-01 9.737471471348243313e+00
2.809634122836570103e-01 7.460165908481315000e+00
2.823045264230538698e-01 5.281826652747199091e+00
2.836456405624507293e-01 4.332612318396527940e+00
2.849867547018475888e-01 3.513671393187422609e+00
2.863278688412444484e-01 3.237226576551023527e+00
2.876689829806413079e-01 3.261585841581862155e+00
2.890100971200381674e-01 3.371030258323131079e+00
2.903512112594350270e-01 2.704472893769619191e+00
2.916923253988318865e-01 2.400947834111548218e+00
2.930334395382287460e-01 2.603031635044757763e+00
2.943745536776256055e-01 2.809065578117639461e+00
2.957156678170224096e-01 2.615674252931114552e+00
2.970567819564192691e-01 2.412541315821783883e+00
2.983978960958161286e-01 2.840042957041148952e+00
2.997390102352129881e-01 2.560588197956604972e+00
3.010801243746098477e-01 2.511199200716276891e+00
3.024212385140067072e-01 2.660650070206429518e+00
3.037623526534035112e-01 2.878234923231318021e+00
3.051034667928003707e-01 2.484399417657357390e+00
3.064445809321972303e-01 2.401588940240046099e+00
3.077856950715940898e-01 2.061928338744053235e+00
3.091268092109909493e-01 1.472921287334102658e+00
3.104679233503877533e-01 1.852244740152713121e+00
3.118090374897846129e-01 2.188455767788809680e+00
3.131501516291814724e-01 1.898477783698041321e+00
3.144912657685783319e-01 1.387967695688573144e+00
3.158323799079751915e-01 1.196740790139713795e+00
3.171734940473720510e-01 8.413291363987553950e-01
3.185146081867689105e-01 1.340147726439923304e+00
3.198557223261657700e-01 1.968209130149062958e+00
3.211968364655626296e-01 1.229530220311076505e+00
3.225379506049594891e-01 1.364072777539888648e+00
3.238790647443563486e-01 1.658040380630936284e+00
3.252201788837532082e-01 1.391453169990114702e+00
3.265612930231500122e-01 1.215560800035191846e+00
3.279024071625468717e-01 1.206572426633627515e+00
3.292435213019437312e-01 1.048009409139496029e+00
3.305846354413405908e-01 1.173853416886458945e+00
3.319257495807374503e-01 7.874402747620194987e-01
3.332668637201342543e-01 7.127877412266485635e-01
3.346079778595311138e-01 1.341586819969450062e+00
3.359490919989279734e-01 1.950767507794097355e+00
3.372902061383248329e-01 1.810553213843220988e+00
3.386313202777216924e-01 2.014452218832019526e+00
3.399724344171185519e-01 1.468406550866788507e+00
3.413135485565153560e-01 1.254070005170433433e+00
3.426546626959122155e-01 1.516585916038664550e+00
3.439957768353090750e-01 1.997707132284617160e+00
3.453368909747059345e-01 1.931643098123416280e+00
3.466780051141027941e-01 2.259842294004613450e+00
3.480191192534995981e-01 2.382018155709261009e+00
3.493602333928964576e-01 2.436774536307197536e+00
3.507013475322933171e-01 2.591511229299342745e+00
3.520424616716901767e-01 2.833888285997772982e+00
3.533835758110870362e-01 2.861827701459546347e+00
3.547246899504838957e-01 2.331001702925391328e+00
3.560658040898807553e-01 1.760986627731156773e+00
3.574069182292776148e-01 2.100600414701133900e+00
3.587480323686744743e-01 1.746924429981675075e+00
3.600891465080713338e-01 1.634682407803254023e+00
3.614302606474681934e-01 1.653061048086982510e+00
3.627713747868649974e-01 2.103174879135607966e+00
3.641124889262618569e-01 2.250864340948353970e+00
3.654536030656587164e-01 1.523085489725545472e+00
3.667947172050555760e-01 1.276272083908196464e+00
3.681358313444524355e-01 2.159390389416955713e+00
3.694769454838492950e-01 2.168849021977365510e+00
3.708180596232460990e-01 2.412403486741936831e+00
3.721591737626429586e-01 2.151085626757335945e+00
3.735002879020398181e-01 2.098371697834735983e+00
3.748414020414366776e-01 1.879125986434857509e+00
3.761825161808335372e-01 1.903502352775589657e+00
3.775236303202303967e-01 2.105461740689165140e+00
3.788647444596272007e-01 2.668941048447578623e+00
3.802058585990240602e-01 2.759931748697056264e+00
3.815469727384209198e-01 3.069531202171404516e+00
3.828880868778177793e-01 3.514476101443023026e+00
3.842292010172146388e-01 2.731865627545715824e+00
3.855703151566114428e-01 2.603625457976008306e+00
3.869114292960083024e-01 1.949239466086410744e+00
3.882525434354051619e-01 1.104445266511930868e+00
3.895936575748020214e-01 8.384124937605292871e-01
3.909347717141988809e-01 1.047967179986599717e+00
3.922758858535957405e-01 1.292346836803801580e+00
3.936169999929926000e-01 2.059864745013470611e+00
3.949581141323894595e-01 9.188505537781992416e-01
3.962992282717863191e-01 1.606582773749948956e+00
3.976403424111831786e-01 1.809678607065677625e+00
3.989814565505800381e-01 1.133026181658678411e+00
4.003225706899768976e-01 7.344362093053291574e-01
4.016636848293737572e-01 1.313888504149758774e+00
4.030047989687706167e-01 1.155824535080483884e+00
4.043459131081674207e-01 1.050130436203900786e+00
4.056870272475643358e-01 1.311102799764796600e+00
4.070281413869611398e-01 9.450027282227040359e-01
4.083692555263580548e-01 8.808449365197645875e-01
4.097103696657548588e-01 5.371062726261186526e-01
4.110514838051517739e-01 6.799118068457801201e-01
4.123925979445485779e-01 8.872634904578262649e-01
4.137337120839453819e-01 7.292463562561692925e-01
4.150748262233422969e-01 3.150052588338496662e-01
4.164159403627391010e-01 7.293912664138844093e-01
4.177570545021360160e-01 8.091824738185664501e-01
4.190981686415328200e-01 7.857930309208711606e-01
4.204392827809296240e-01 7.746904224496375946e-01
4.217803969203265391e-01 1.152148910637279755e+00
4.231215110597233431e-01 8.819095073827867282e-01
4.244626251991202581e-01 6.840936438667029051e-01
4.258037393385170621e-01 1.054417220274345368e+00
4.271448534779138662e-01 1.322776505410118375e+00
4.284859676173107812e-01 8.671411086220359721e-01
4.298270817567075852e-01 6.384555078540756767e-01
4.311681958961045003e-01 1.136853201486729859e+00
4.325093100355013043e-01 1.409119226115180368e+00
4.338504241748981638e-01 1.530431712096984143e+00
4.351915383142950233e-01 1.190312744174889303e+00
4.365326524536918829e-01 1.075225573407365687e+00
4.378737665930887424e-01 1.001696621211152660e+00
4.392148807324856019e-01 6.731595863738277785e-01
4.405559948718824614e-01 1.180048765465883776e+00
4.418971090112793210e-01 1.537906653675690904e+00
4.432382231506761250e-01 1.455438062570763691e+00
4.445793372900730400e-01 6.970192555659338041e-01
4.459204514294698440e-01 3.693332635226624916e-01
4.472615655688667591e-01 1.216441986736285230e+00
4.486026797082635631e-01 1.493058424115631055e+00
4.499437938476603671e-01 1.609609913107206580e+00
4.512849079870572822e-01 1.430323566626142906e+00
4.526260221264540862e-01 1.497498069445953206e+00
4.539671362658510012e-01 1.500596030787107793e+00
4.553082504052478052e-01 1.852656685545454707e+00
4.566493645446446092e-01 1.134583968184955438e+00
4.579904786840415243e-01 6.667884918803395067e-01
4.593315928234383283e-01 1.037293527017737915e+00
4.606727069628352433e-01 1.471217922212787244e+00
4.620138211022320474e-01 1.393351477698004715e+00
4.633549352416289624e-01 7.946966501922929638e-01
4.646960493810257664e-01 9.620214843509700131e-01
4.660371635204225704e-01 1.749031470169711611e+00
4.673782776598194855e-01 1.601333889616739725e+00
4.687193917992162895e-01 1.255484805388832115e+00
4.700605059386132045e-01 1.140688182364471004e+00
4.714016200780100085e-01 1.025849908880417161e+00
4.727427342174068681e-01 1.153247933271600800e+00
4.740838483568037276e-01 1.167467365494132991e+00
4.754249624962005871e-01 1.091571726097541273e+00
4.767660766355974467e-01 1.025946574702274461e+00
4.781071907749943062e-01 8.684006087236468829e-01
4.794483049143911102e-01 1.046054644039102755e+00
4.807894190537880252e-01 1.391342967660108343e+00
4.821305331931848293e-01 1.268870159301116018e+00
4.834716473325817443e-01 7.900777052267500267e-01
4.848127614719785483e-01 9.213500631071127600e-01
4.861538756113753523e-01 1.060048816401135241e+00
4.874949897507722674e-01 1.211826084872669185e+00
4.888361038901690714e-01 1.340548701514848062e+00
4.901772180295659864e-01 7.875448381332859071e-01
4.915183321689627904e-01 7.108264541696627248e-01
4.928594463083597055e-01 8.279724349499986147e-01
4.942005604477565095e-01 9.464604184108509344e-01
4.955416745871533135e-01 1.115202332781095151e+00
4.968827887265502286e-01 9.265594566434316448e-01
4.982239028659470326e-01 6.704031827339207439e-01
4.995650170053439476e-01 3.708689645992251371e-01
5.009061311447408071e-01 2.662858081822889744e-01
5.022472452841375556e-01 3.761922087458486885e-01
5.035883594235345262e-01 8.979126743813594658e-01
5.049294735629312747e-01 7.157892791964286516e-01
5.062705877023282452e-01 5.988558904475524969e-01
5.076117018417249938e-01 6.580987609677038108e-01
5.089528159811218533e-01 7.688149964247941170e-01
5.102939301205187128e-01 6.361256037963869403e-01
5.116350442599155723e-01 5.483868332155878988e-01
5.129761583993124319e-01 3.993205198720914950e-01
5.143172725387092914e-01 4.013461345468130048e-01
5.156583866781061509e-01 0.000000000000000000e+00
5.169995008175030105e-01 1.777102191944806009e-01
5.183406149568997590e-01 3.177709022105545955e-02
5.196817290962967295e-01 3.759065659269680282e-01
5.210228432356934780e-01 5.263520481576051679e-01
5.223639573750904486e-01 8.034781645227866420e-01
5.237050715144871971e-01 4.061050830691357305e-01
5.250461856538840566e-01 5.000829213612973945e-01
5.263872997932809161e-01 8.322459852762023047e-01
5.277284139326777757e-01 1.088781043050616404e+00
5.290695280720746352e-01 9.043078905802701684e-01
5.304106422114714947e-01 1.192290732110905083e+00
5.317517563508683542e-01 1.069155833279495482e+00
5.330928704902652138e-01 6.416643589853379126e-01
5.344339846296620733e-01 7.821030780859672404e-01
5.357750987690589328e-01 1.034599120069302103e+00
5.371162129084557924e-01 8.911649410317465936e-01
5.384573270478525409e-01 1.062874719864254303e+00
5.397984411872495114e-01 1.191745558196927846e+00
5.411395553266462599e-01 1.401690029782415081e+00
5.424806694660432305e-01 1.228061536368144857e+00
5.438217836054399790e-01 9.701471341845717689e-01
5.451628977448369495e-01 9.239184677451817151e-01
5.465040118842336980e-01 9.397197682941822450e-01
5.478451260236305576e-01 8.953744464759125776e-01
5.491862401630274171e-01 5.295615409997509460e-01
5.505273543024242766e-01 2.511148800393669944e-01
5.518684684418211361e-01 5.519074518477964375e-01
5.532095825812179957e-01 8.669347079653988430e-01
5.545506967206147442e-01 8.338692475607842880e-01
