# q (1/Angstrom), Intensity (arb)
2.078726924066784734e-02 5.883165351031365731e+01
2.212838338006469993e-02 1.292866522118272599e+02
2.346949751946154905e-02 1.806654273330975684e+02
2.481061165885840164e-02 2.249983335691551360e+02
2.615172579825525423e-02 2.397881758778582366e+02
2.749283993765210335e-02 2.403320990057610516e+02
2.883395407704895941e-02 2.399563105999871482e+02
3.017506821644580506e-02 2.414754444712795021e+02
3.151618235584265765e-02 2.376336055511712289e+02
3.285729649523951718e-02 2.312597649322923417e+02
3.419841063463636283e-02 2.240925908509751423e+02
3.553952477403321542e-02 2.167097090256292518e+02
3.688063891343006800e-02 2.132949041774650993e+02
3.822175305282692059e-02 2.120162560397135394e+02
3.956286719222376624e-02 2.086412967907722873e+02
4.090398133162062577e-02 2.016329522033914543e+02
4.224509547101747142e-02 1.977941956238206558e+02
4.358620961041432401e-02 1.951719845543830729e+02
4.492732374981117660e-02 1.874274700761089321e+02
4.626843788920802919e-02 1.850505789668910381e+02
4.760955202860488178e-02 1.850104772149288976e+02
4.895066616800172743e-02 1.804634397835239952e+02
5.029178030739858696e-02 1.759626250853342810e+02
5.163289444679544649e-02 1.705375154618083116e+02
5.297400858619229214e-02 1.668960260344042297e+02
5.431512272558913779e-02 1.617367248726473008e+02
5.565623686498599731e-02 1.605152131006084062e+02
5.699735100438284990e-02 1.557758331770004645e+02
5.833846514377969555e-02 1.532642979523911322e+02
5.967957928317654814e-02 1.496363570154040019e+02
6.102069342257340767e-02 1.452094001709499480e+02
6.236180756197025332e-02 1.408548718944209668e+02
6.370292170136709897e-02 1.373583437915771981e+02
6.504403584076395850e-02 1.356474807622217043e+02
6.638514998016080415e-02 1.327332400798970582e+02
6.772626411955766368e-02 1.283013080346912034e+02
6.906737825895450933e-02 1.284464622121580533e+02
7.040849239835136886e-02 1.258431802510532407e+02
7.174960653774821451e-02 1.217287697478832911e+02
7.309072067714506016e-02 1.188125043067878721e+02
7.443183481654190581e-02 1.169987792450475581e+02
7.577294895593877921e-02 1.184788490832194441e+02
7.711406309533562486e-02 1.184602639817821625e+02
7.845517723473247051e-02 1.190629908121218818e+02
7.979629137412933004e-02 1.214860749081339009e+02
8.113740551352617569e-02 1.265352796313900683e+02
8.247851965292302134e-02 1.387883399187397231e+02
8.381963379231988087e-02 1.803469496948516451e+02
8.516074793171674040e-02 3.239025818809867587e+02
8.650186207111358605e-02 6.261046066420865372e+02
8.784297621051043170e-02 9.939325153927898100e+02
8.918409034990729123e-02 1.671132697799565449e+03
9.052520448930413688e-02 3.447130289109211844e+03
9.186631862870098253e-02 5.585126653246004935e+03
9.320743276809784206e-02 5.218184986863275299e+03
9.454854690749470159e-02 3.063167786090287791e+03
9.588966104689154724e-02 1.585158138054721348e+03
9.723077518628839289e-02 9.884813617940925496e+02
9.857188932568525241e-02 7.534642221863634859e+02
9.991300346508209806e-02 6.193192682668650377e+02
1.012541176044789437e-01 5.273204732393305676e+02
1.025952317438758032e-01 4.917528681102408541e+02
1.039363458832726350e-01 5.717053615358490788e+02
1.052774600226694945e-01 7.839682084471214694e+02
1.066185741620663541e-01 8.614200068932266277e+02
1.079596883014631858e-01 6.215795794209728911e+02
1.093008024408600454e-01 3.267522714759576274e+02
1.106419165802569049e-01 1.571921544755924458e+02
1.119830307196537506e-01 8.805558581418296171e+01
1.133241448590506101e-01 6.038366422254935628e+01
1.146652589984474419e-01 4.675060006271272073e+01
1.160063731378443014e-01 3.698796632553788299e+01
1.173474872772411609e-01 3.241247372375087821e+01
1.186886014166380066e-01 2.783040790895339001e+01
1.200297155560348661e-01 2.382797406795552320e+01
1.213708296954317256e-01 2.100148011036591811e+01
1.227119438348285574e-01 1.874576343618227270e+01
1.240530579742254169e-01 1.673893967463166632e+01
1.253941721136222764e-01 1.548221772876883051e+01
1.267352862530191082e-01 1.410516438500411596e+01
1.280764003924159677e-01 1.258788656813982243e+01
1.294175145318128273e-01 1.232447800632866119e+01
1.307586286712096590e-01 1.124750217483608594e+01
1.320997428106065186e-01 1.142442701998959365e+01
1.334408569500033781e-01 9.597831716575399241e+00
1.347819710894002376e-01 8.510748999485542754e+00
1.361230852287970972e-01 9.004556951688499566e+00
1.374641993681939289e-01 9.465625292154982162e+00
1.388053135075907885e-01 9.148137223785766992e+00
1.401464276469876480e-01 8.445204822593865401e+00
1.414875417863844798e-01 1.014117265655903566e+01
1.428286559257813393e-01 1.035653068658155007e+01
1.441697700651781988e-01 1.238348710350170734e+01
1.455108842045750306e-01 1.655186122169004648e+01
1.468519983439718901e-01 2.878757491151506542e+01
1.481931124833687219e-01 6.308535371587302620e+01
1.495342266227655814e-01 1.144497689769410727e+02
1.508753407621624687e-01 1.349297723808240619e+02
1.522164549015593005e-01 1.055673803557343007e+02
1.535575690409561600e-01 6.738815140048532726e+01
1.548986831803530195e-01 4.142185214800750259e+01
1.562397973197498513e-01 2.892355403584798523e+01
1.575809114591467108e-01 2.442952706156953013e+01
1.589220255985435704e-01 2.471039251607550113e+01
1.602631397379404021e-01 2.460963922774726598e+01
1.616042538773372617e-01 2.402310605028870327e+01
1.629453680167341212e-01 2.427130850508353888e+01
1.642864821561309530e-01 2.450144293674772200e+01
1.656275962955278125e-01 2.509840464844970143e+01
1.669687104349246720e-01 2.482916265902142072e+01
1.683098245743215315e-01 2.646507313002260275e+01
1.696509387137183911e-01 2.845933101433365664e+01
1.709920528531152228e-01 3.565409015902049816e+01
1.723331669925120824e-01 5.842119577374249673e+01
1.736742811319089419e-01 1.190144318958620175e+02
1.750153952713057737e-01 2.172231808766085805e+02
1.763565094107026332e-01 2.794188577794311641e+02
1.776976235500994927e-01 2.497863344769587286e+02
1.790387376894963245e-01 1.756135154921390154e+02
1.803798518288931840e-01 1.172320371843656659e+02
1.817209659682900158e-01 8.980663131578144487e+01
1.830620801076868753e-01 8.383022420625442805e+01
1.844031942470837349e-01 7.943290211931356737e+01
1.857443083864805944e-01 6.495062729085046271e+01
1.870854225258774539e-01 4.544721948437631909e+01
1.884265366652743134e-01 2.924510064267853693e+01
1.897676508046711452e-01 2.007081700343067610e+01
1.911087649440680047e-01 1.511442543467310884e+01
1.924498790834648643e-01 1.221838024339059814e+01
1.937909932228616960e-01 1.038814508190540664e+01
1.951321073622585556e-01 8.189357086763280336e+00
1.964732215016554151e-01 7.371950528635537125e+00
1.978143356410522469e-01 7.360852943355851608e+00
1.991554497804491064e-01 7.239666071646425394e+00
2.004965639198459382e-01 6.530366646155528088e+00
2.018376780592427977e-01 6.076158743481613556e+00
2.031787921986396572e-01 5.666394856981895600e+00
2.045199063380365168e-01 5.271437959430201659e+00
2.058610204774333763e-01 4.588527836288079698e+00
2.072021346168302081e-01 4.663696759670031611e+00
2.085432487562270676e-01 5.253044796375746728e+00
2.098843628956239271e-01 5.150902674066003328e+00
2.112254770350207866e-01 6.633710856255689237e+00
2.125665911744176462e-01 7.036777008662738808e+00
2.139077053138144502e-01 6.286979903570014017e+00
2.152488194532113097e-01 5.610313900231929551e+00
2.165899335926081692e-01 5.295944798728555725e+00
2.179310477320050288e-01 4.157549422330802713e+00
2.192721618714018883e-01 4.614281230860598271e+00
2.206132760107987478e-01 3.381265996692761178e+00
2.219543901501955796e-01 3.313710962802986160e+00
2.232955042895924391e-01 4.459052729959438466e+00
2.246366184289892987e-01 4.602059214110695962e+00
2.259777325683861582e-01 3.964505811463780560e+00
2.273188467077830177e-01 3.275686255802384039e+00
2.286599608471798217e-01 3.540001832234409562e+00
2.300010749865766813e-01 4.025570418085550273e+00
2.313421891259735408e-01 4.053408086689813672e+00
2.326833032653704003e-01 4.054186844206341789e+00
2.340244174047672598e-01 5.233962601233514533e+00
2.353655315441641194e-01 6.180212935039051558e+00
2.367066456835609234e-01 7.322506358916953673e+00
2.380477598229577829e-01 7.605225235988001486e+00
2.393888739623546424e-01 6.901384733484732692e+00
2.407299881017515020e-01 5.971883411814346232e+00
2.420711022411483615e-01 6.085384927674667210e+00
2.434122163805451933e-01 4.446431568688950620e+00
2.447533305199420528e-01 3.346039968431071543e+00
2.460944446593389123e-01 3.298427482185076087e+00
2.474355587987357719e-01 3.979078766384120058e+00
2.487766729381326314e-01 4.487633359938001831e+00
2.501177870775294632e-01 4.086999909587106572e+00
2.514589012169263227e-01 3.349978613331586530e+00
2.528000153563231822e-01 3.302713613973182305e+00
2.541411294957200417e-01 5.069863104440358370e+00
2.554822436351169013e-01 5.602903147390208005e+00
2.568233577745137608e-01 6.803277769644068940e+00
2.581644719139106203e-01 1.029587418590563175e+01
2.595055860533074243e-01 1.392602519046846510e+01
2.608467001927042839e-01 1.553487558621877440e+01
2.621878143321011434e-01 1.477858259617821091e+01
2.635289284714980029e-01 1.221984518905792072e+01
2.648700426108948625e-01 9.555052569284200104e+00
2.662111567502916665e-01 8.116746889022763867e+00
2.675522708896885260e-01 6.804656932476845554e+00
2.688933850290853855e-01 6.009380508298704626e+00
2.702344991684822451e-01 6.623673613373270541e+00
2.715756133078791046e-01 8.431944613286162848e+00
2.729167274472759641e-01 1.010955365669981632e+01
2.742578415866727681e-01 1.296451056031071403e+01
2.755989557260696277e-01 1.466634078242523742e+01
2.769400698654664872e-01 1.482216145330843915e+01
2.782811840048633467e-01 1.313187431813634021e+01
2.796222981442602062e-01 1.016770692189058423e+01
2.809634122836570103e-01 7.235717861765408543e+00
2.823045264230538698e-01 5.113212762705487080e+00
2.836456405624507293e-01 4.422937615353859542e+00
2.849867547018475888e-01 3.677584911043510374e+00
2.863278688412444484e-01 3.239669144696193825e+00
2.876689829806413079e-01 2.913732107259875193e+00
2.890100971200381674e-01 2.580414803203808560e+00
2.903512112594350270e-01 1.872490915331255223e+00
2.916923253988318865e-01 2.029748661335219140e+00
2.930334395382287460e-01 2.531889744121599506e+00
2.943745536776256055e-01 2.215365587374691358e+00
2.957156678170224096e-01 1.920571409390518625e+00
2.970567819564192691e-01 2.351328423336184414e+00
2.983978960958161286e-01 2.351470892463609630e+00
2.997390102352129881e-01 2.453433588625912876e+00
3.010801243746098477e-01 3.078281162023799311e+00
3.024212385140067072e-01 2.451118109393007671e+00
3.037623526534035112e-01 2.497907593627090250e+00
3.051034667928003707e-01 2.779710904906835367e+00
3.064445809321972303e-01 2.328723692270060042e+00
3.077856950715940898e-01 2.062637435067316005e+00
3.091268092109909493e-01 1.342976925050493264e+00
3.104679233503877533e-01 2.373533312779272819e+00
3.118090374897846129e-01 2.000911491812644272e+00
3.131501516291814724e-01 1.509900695783400693e+00
3.144912657685783319e-01 1.471638849165188390e+00
3.158323799079751915e-01 1.386405567454545462e+00
3.171734940473720510e-01 9.287698278630500681e-01
3.185146081867689105e-01 1.248861274012142530e+00
3.198557223261657700e-01 1.245414332450579309e+00
3.211968364655626296e-01 9.033760094617377945e-01
3.225379506049594891e-01 1.154316741944867886e+00
3.238790647443563486e-01 1.773771600540982263e+00
3.252201788837532082e-01 1.740338343718903502e+00
3.265612930231500122e-01 9.872579203345708265e-01
3.279024071625468717e-01 1.438589598633811306e+00
3.292435213019437312e-01 1.502339462415250182e+00
3.305846354413405908e-01 1.322072609664516563e+00
3.319257495807374503e-01 8.745242983141991999e-01
3.332668637201342543e-01 2.706417675086640884e-01
3.346079778595311138e-01 8.271237458742746185e-01
3.359490919989279734e-01 1.530705330869281511e+00
3.372902061383248329e-01 1.715201563931827877e+00
3.386313202777216924e-01 2.187592674147467164e+00
3.399724344171185519e-01 1.695860702104269535e+00
3.413135485565153560e-01 1.270354567039120752e+00
3.426546626959122155e-01 1.274564789830947120e+00
3.439957768353090750e-01 1.820019796184610072e+00
3.453368909747059345e-01 2.063935222059370744e+00
3.466780051141027941e-01 2.141171532688389334e+00
3.480191192534995981e-01 2.485498489249721388e+00
3.493602333928964576e-01 2.996557097246437706e+00
3.507013475322933171e-01 3.094781351498838262e+00
3.520424616716901767e-01 3.153511659414718338e+00
3.533835758110870362e-01 2.623744546434267022e+00
3.547246899504838957e-01 2.054421083526889902e+00
3.560658040898807553e-01 1.808048847182632812e+00
3.574069182292776148e-01 1.677786293790006766e+00
3.587480323686744743e-01 1.369447041503875084e+00
3.600891465080713338e-01 1.949150130349309507e+00
3.614302606474681934e-01 1.605122317760546480e+00
3.627713747868649974e-01 1.699424089149459860e+00
3.641124889262618569e-01 1.970300307705329601e+00
3.654536030656587164e-01 1.472312034417541327e+00
3.667947172050555760e-01 1.194043568730336347e+00
3.681358313444524355e-01 2.036382980498558481e+00
3.694769454838492950e-01 1.894697822868948833e+00
3.708180596232460990e-01 1.867772448992724321e+00
3.721591737626429586e-01 2.006805714660117701e+00
3.735002879020398181e-01 2.006263931316453863e+00
3.748414020414366776e-01 2.037015275973942607e+00
3.761825161808335372e-01 2.477388425679365014e+00
3.775236303202303967e-01 2.241103969474238511e+00
3.788647444596272007e-01 2.839168831743421606e+00
3.802058585990240602e-01 2.882150790607852286e+00
3.815469727384209198e-01 2.963979838561499491e+00
3.828880868778177793e-01 3.448771317689349303e+00
3.842292010172146388e-01 2.628545556790371052e+00
3.855703151566114428e-01 2.462106113750152758e+00
3.869114292960083024e-01 2.243124360843864906e+00
3.882525434354051619e-01 1.469127463402472245e+00
3.895936575748020214e-01 7.746185873865698568e-01
3.909347717141988809e-01 5.722665106340230068e-01
3.922758858535957405e-01 1.123455530455601092e+00
3.936169999929926000e-01 1.935816537097934997e+00
3.949581141323894595e-01 9.559445408801110489e-01
3.962992282717863191e-01 1.453990904511371696e+00
3.976403424111831786e-01 1.855989934958586218e+00
3.989814565505800381e-01 1.340333918186971118e+00
4.003225706899768976e-01 1.147880943224336647e+00
4.016636848293737572e-01 1.233951902442484538e+00
4.030047989687706167e-01 8.776938538170497850e-01
4.043459131081674207e-01 7.781638971549256212e-01
4.056870272475643358e-01 6.144823108071619799e-01
4.070281413869611398e-01 7.440754758266479030e-01
4.083692555263580548e-01 7.439128065694973202e-01
4.097103696657548588e-01 7.894454489829740851e-01
4.110514838051517739e-01 1.024061334544796864e+00
4.123925979445485779e-01 1.044909387053735372e+00
4.137337120839453819e-01 6.131844762596614373e-01
4.150748262233422969e-01 7.462201673918968936e-01
4.164159403627391010e-01 6.436522574964982368e-01
4.177570545021360160e-01 4.064420792928444826e-01
4.190981686415328200e-01 7.310425855820597008e-01
4.204392827809296240e-01 5.835060726925149766e-01
4.217803969203265391e-01 1.148646564672048953e+00
4.231215110597233431e-01 9.500467056084573869e-01
4.244626251991202581e-01 9.006657313149162292e-01
4.258037393385170621e-01 7.932840593755372538e-01
4.271448534779138662e-01 1.337767846522552873e+00
4.284859676173107812e-01 1.328688722650795739e+00
4.298270817567075852e-01 1.546163003378154599e+00
4.311681958961045003e-01 1.493308601258874546e+00
4.325093100355013043e-01 1.282684455058046069e+00
4.338504241748981638e-01 1.117885281834674061e+00
4.351915383142950233e-01 1.320963379420533101e+00
4.365326524536918829e-01 1.635344670345546092e+00
4.378737665930887424e-01 1.470884616291272096e+00
4.392148807324856019e-01 1.295429227828833518e+00
4.405559948718824614e-01 1.309195673976432772e+00
4.418971090112793210e-01 1.618312458919675123e+00
4.432382231506761250e-01 1.205343444350063464e+00
4.445793372900730400e-01 1.051128363957730016e+00
4.459204514294698440e-01 9.361993968066428806e-01
4.472615655688667591e-01 1.123218822802499517e+00
4.486026797082635631e-01 1.200519789305189988e+00
4.499437938476603671e-01 1.216758822338121604e+00
4.512849079870572822e-01 1.305965883047235820e+00
4.526260221264540862e-01 1.524519317162244647e+00
4.539671362658510012e-01 1.509762690729402834e+00
4.553082504052478052e-01 1.590344738521039858e+00
4.566493645446446092e-01 1.283283407594069558e+00
4.579904786840415243e-01 1.169456296176448973e+00
4.593315928234383283e-01 1.362917456871130639e+00
4.606727069628352433e-01 1.993823075336933925e+00
4.620138211022320474e-01 1.679474235715161967e+00
4.633549352416289624e-01 1.161845449504710359e+00
4.646960493810257664e-01 1.169811090080273175e+00
4.660371635204225704e-01 1.494434345191280045e+00
4.673782776598194855e-01 1.686674916669332447e+00
4.687193917992162895e-01 1.432455818700404393e+00
4.700605059386132045e-01 1.513683121949895849e+00
4.714016200780100085e-01 1.278491501632842642e+00
4.727427342174068681e-01 1.116833778116841813e+00
4.740838483568037276e-01 8.997177741259037020e-01
4.754249624962005871e-01 8.548044721710255089e-01
4.767660766355974467e-01 1.044769642865446713e+00
4.781071907749943062e-01 1.218823628902342193e+00
4.794483049143911102e-01 8.250946495008406600e-01
4.807894190537880252e-01 9.006840979377130907e-01
4.821305331931848293e-01 1.219140501979239843e+00
4.834716473325817443e-01 7.490166358312109196e-01
4.848127614719785483e-01 6.051884924500257057e-01
4.861538756113753523e-01 1.188012976871647197e+00
4.874949897507722674e-01 1.304422974595723872e+00
4.888361038901690714e-01 1.185685330333186016e+00
4.901772180295659864e-01 8.179334338087755896e-01
4.915183321689627904e-01 5.833226417541936826e-01
4.928594463083597055e-01 9.491327622077108117e-01
4.942005604477565095e-01 1.102571740801110423e+00
4.955416745871533135e-01 1.075201367035518274e+00
4.968827887265502286e-01 8.825618240225452382e-01
4.982239028659470326e-01 3.613238118430359691e-01
4.995650170053439476e-01 5.097031941810712397e-01
5.009061311447408071e-01 7.522672589600887250e-01
5.022472452841375556e-01 1.561599708629444194e-01
5.035883594235345262e-01 9.458778435123633699e-01
5.049294735629312747e-01 1.210746957033762783e+00
5.062705877023282452e-01 9.456828297928296934e-01
5.076117018417249938e-01 7.958514089455235307e-01
5.089528159811218533e-01 5.364557562545400060e-01
5.102939301205187128e-01 5.323947765949554878e-01
5.116350442599155723e-01 6.659794279372306391e-01
5.129761583993124319e-01 8.554353186957115440e-01
5.143172725387092914e-01 6.481070590885167348e-01
5.156583866781061509e-01 2.703951003119158258e-01
5.169995008175030105e-01 3.259190716299968926e-01
5.183406149568997590e-01 2.318551303291087606e-01
5.196817290962967295e-01 3.247773527006359018e-01
5.210228432356934780e-01 2.263964033520977637e-01
5.223639573750904486e-01 7.080383556262432876e-01
5.237050715144871971e-01 4.972946170684906519e-01
5.250461856538840566e-01 4.068341986636454521e-01
5.263872997932809161e-01 8.627150464115800332e-01
5.277284139326777757e-01 1.496176931716490799e+00
5.290695280720746352e-01 9.526934944868230559e-01
5.304106422114714947e-01 1.398733700688765680e+00
5.317517563508683542e-01 1.146865060021312388e+00
5.330928704902652138e-01 6.234864214084154810e-01
5.344339846296620733e-01 5.325541983392270140e-01
5.357750987690589328e-01 8.312252844161776011e-01
5.371162129084557924e-01 1.287943974491554400e+00
5.384573270478525409e-01 1.530827673613629258e+00
5.397984411872495114e-01 1.396089975284027673e+00
5.411395553266462599e-01 1.105922091392272932e+00
5.424806694660432305e-01 1.203121251428555638e+00
5.438217836054399790e-01 1.109838115467042030e+00
5.451628977448369495e-01 9.307417855804516194e-01
5.465040118842336980e-01 1.151971377298011134e+00
5.478451260236305576e-01 1.093096004717324377e+00
5.491862401630274171e-01 6.740184374702380410e-01
5.505273543024242766e-01 5.104080425332853110e-01
5.518684684418211361e-01 5.717146256583021113e-01
5.532095825812179957e-01 6.775491902809989142e-01
5.545506967206147442e-01 7.290970163569596707e-01
