# q (1/Angstrom), Intensity (arb)
2.078726924066784734e-02 6.562242550875819802e+01
2.212838338006469993e-02 1.359847315069597755e+02
2.346949751946154905e-02 1.835976051588073119e+02
2.481061165885840164e-02 2.281259802977539835e+02
2.615172579825525423e-02 2.451539162850291973e+02
2.749283993765210335e-02 2.459098310143494075e+02
2.883395407704895941e-02 2.516603144623462072e+02
3.017506821644580506e-02 2.502004614869373142e+02
3.151618235584265765e-02 2.439193580901284690e+02
3.285729649523951718e-02 2.367413257307734114e+02
3.419841063463636283e-02 2.339124694287316686e+02
3.553952477403321542e-02 2.266046609192071060e+02
3.688063891343006800e-02 2.181692620862216927e+02
3.822175305282692059e-02 2.115880959104122212e+02
3.956286719222376624e-02 2.087383153818717574e+02
4.090398133162062577e-02 2.053779124921984476e+02
4.224509547101747142e-02 1.983720301725462036e+02
4.358620961041432401e-02 1.948296777810117533e+02
4.492732374981117660e-02 1.916699014047313199e+02
4.626843788920802919e-02 1.861698744927961116e+02
4.760955202860488178e-02 1.834665591510483864e+02
4.895066616800172743e-02 1.808862208181770370e+02
5.029178030739858696e-02 1.761157225010421996e+02
5.163289444679544649e-02 1.740485546560642547e+02
5.297400858619229214e-02 1.687978037171745598e+02
5.431512272558913779e-02 1.667017162188631687e+02
5.565623686498599731e-02 1.628566425224839236e+02
5.699735100438284990e-02 1.575956411204853680e+02
5.833846514377969555e-02 1.551064400250904782e+02
5.967957928317654814e-02 1.511694122894837164e+02
6.102069342257340767e-02 1.481461823757167906e+02
6.236180756197025332e-02 1.463882164700680732e+02
6.370292170136709897e-02 1.433156265787730206e+02
6.504403584076395850e-02 1.427505560492351151e+02
6.638514998016080415e-02 1.403356630868442210e+02
6.772626411955766368e-02 1.371462520689927373e+02
6.906737825895450933e-02 1.347311033683748747e+02
7.040849239835136886e-02 1.307870756298502783e+02
7.174960653774821451e-02 1.307463528924920979e+02
7.309072067714506016e-02 1.311411205472930988e+02
7.443183481654190581e-02 1.305142256830891938e+02
7.577294895593877921e-02 1.300567756659338556e+02
7.711406309533562486e-02 1.311968747925289165e+02
7.845517723473247051e-02 1.344242522383794949e+02
7.979629137412933004e-02 1.425765275563238106e+02
8.113740551352617569e-02 1.612432802927295938e+02
8.247851965292302134e-02 2.304726671351415632e+02
8.381963379231988087e-02 4.525504787499716031e+02
8.516074793171674040e-02 8.689592976178212211e+02
8.650186207111358605e-02 1.387894471448182685e+03
8.784297621051043170e-02 2.541410236507751961e+03
8.918409034990729123e-02 5.187422876587298560e+03
9.052520448930413688e-02 7.376448648220450195e+03
9.186631862870098253e-02 5.961871401727755256e+03
9.320743276809784206e-02 3.284440130027170198e+03
9.454854690749470159e-02 1.766830138543818293e+03
9.588966104689154724e-02 1.187389021859777131e+03
9.723077518628839289e-02 9.377141346989604926e+02
9.857188932568525241e-02 7.842605597448298340e+02
9.991300346508209806e-02 6.905455939808243784e+02
1.012541176044789437e-01 7.070804049282896813e+02
1.025952317438758032e-01 9.204940578381764453e+02
1.039363458832726350e-01 1.193465866518743951e+03
1.052774600226694945e-01 1.080570137239484666e+03
1.066185741620663541e-01 6.574672741334615012e+02
1.079596883014631858e-01 3.199961759317171186e+02
1.093008024408600454e-01 1.630775430827767991e+02
1.106419165802569049e-01 1.013017189293818774e+02
1.119830307196537506e-01 7.516169093275095747e+01
1.133241448590506101e-01 6.039937564302945816e+01
1.146652589984474419e-01 5.055293318408368464e+01
1.160063731378443014e-01 4.438032673001717399e+01
1.173474872772411609e-01 3.910015051758075799e+01
1.186886014166380066e-01 3.440512793391997093e+01
1.200297155560348661e-01 3.062541844972639637e+01
1.213708296954317256e-01 2.743336275675122238e+01
1.227119438348285574e-01 2.552761705654748425e+01
1.240530579742254169e-01 2.429318048425075460e+01
1.253941721136222764e-01 2.197065665910581345e+01
1.267352862530191082e-01 2.066673903303706084e+01
1.280764003924159677e-01 1.963384413687386143e+01
1.294175145318128273e-01 1.768044039961399960e+01
1.307586286712096590e-01 1.702360385638431239e+01
1.320997428106065186e-01 1.692890802550884644e+01
1.334408569500033781e-01 1.633950965964265833e+01
1.347819710894002376e-01 1.601817383232672398e+01
1.361230852287970972e-01 1.616990907217680729e+01
1.374641993681939289e-01 1.638432928873295680e+01
1.388053135075907885e-01 1.682095454481493846e+01
1.401464276469876480e-01 1.724626388425861023e+01
1.414875417863844798e-01 1.966276700818892209e+01
1.428286559257813393e-01 2.318485931976428560e+01
1.441697700651781988e-01 3.524113875052032085e+01
1.455108842045750306e-01 6.669098453671851701e+01
1.468519983439718901e-01 1.105932376144281335e+02
1.481931124833687219e-01 1.255226147692093264e+02
1.495342266227655814e-01 9.820061938170083238e+01
1.508753407621624687e-01 6.337013833701329446e+01
1.522164549015593005e-01 4.314559777676958419e+01
1.535575690409561600e-01 3.255932177933951976e+01
1.548986831803530195e-01 2.855337571175110867e+01
1.562397973197498513e-01 2.780888627565906290e+01
1.575809114591467108e-01 2.832510451991066702e+01
1.589220255985435704e-01 2.891049439493995266e+01
1.602631397379404021e-01 2.976986099702397581e+01
1.616042538773372617e-01 2.950728669847180186e+01
1.629453680167341212e-01 2.971457637534938812e+01
1.642864821561309530e-01 3.053331756392029916e+01
1.656275962955278125e-01 3.169185179883144343e+01
1.669687104349246720e-01 3.643384559504683295e+01
1.683098245743215315e-01 5.048737543606949885e+01
1.696509387137183911e-01 9.413803291587962008e+01
1.709920528531152228e-01 1.916585157815067930e+02
1.723331669925120824e-01 3.053456692137113464e+02
1.736742811319089419e-01 3.353041077134463990e+02
1.750153952713057737e-01 2.678509515355434019e+02
1.763565094107026332e-01 1.819111377705029895e+02
1.776976235500994927e-01 1.299229276477777546e+02
1.790387376894963245e-01 1.131105305076568754e+02
1.803798518288931840e-01 1.096205334844364074e+02
1.817209659682900158e-01 9.571098263552966046e+01
1.830620801076868753e-01 7.088595248217495737e+01
1.844031942470837349e-01 4.728928267939514285e+01
1.857443083864805944e-01 3.176340163374161563e+01
1.870854225258774539e-01 2.308186439730302908e+01
1.884265366652743134e-01 1.841507998290837378e+01
1.897676508046711452e-01 1.548408167026897075e+01
1.911087649440680047e-01 1.364344758371137090e+01
1.924498790834648643e-01 1.275219332654847193e+01
1.937909932228616960e-01 1.287751878465432753e+01
1.951321073622585556e-01 1.220129646922460864e+01
1.964732215016554151e-01 1.128043355442838447e+01
1.978143356410522469e-01 1.048317838175042027e+01
1.991554497804491064e-01 1.015849768305348988e+01
2.004965639198459382e-01 9.477455236631485036e+00
2.018376780592427977e-01 1.004760606582561167e+01
2.031787921986396572e-01 9.785681646146663581e+00
2.045199063380365168e-01 1.008078627869603849e+01
2.058610204774333763e-01 1.060865793280797931e+01
2.072021346168302081e-01 1.198455521910425858e+01
2.085432487562270676e-01 1.284416202608336732e+01
2.098843628956239271e-01 1.181630093550394633e+01
2.112254770350207866e-01 1.062135763242795861e+01
2.125665911744176462e-01 9.672932980641547829e+00
2.139077053138144502e-01 8.915038214376281189e+00
2.152488194532113097e-01 7.713693496296400554e+00
2.165899335926081692e-01 6.376487227117607404e+00
2.179310477320050288e-01 6.641070268746197769e+00
2.192721618714018883e-01 6.820455874444796507e+00
2.206132760107987478e-01 6.135656815748916415e+00
2.219543901501955796e-01 5.561575463266350994e+00
2.232955042895924391e-01 5.525199068764749200e+00
2.246366184289892987e-01 5.540827340135656698e+00
2.259777325683861582e-01 4.896172302827565659e+00
2.273188467077830177e-01 5.052217236280689860e+00
2.286599608471798217e-01 5.244973948533782959e+00
2.300010749865766813e-01 5.944181844505273205e+00
2.313421891259735408e-01 6.934938546300500661e+00
2.326833032653704003e-01 7.316442131611402999e+00
2.340244174047672598e-01 6.897340546667322769e+00
2.353655315441641194e-01 6.091664351924613641e+00
2.367066456835609234e-01 5.590689308861463758e+00
2.380477598229577829e-01 5.406627509624058803e+00
2.393888739623546424e-01 5.620412130253868099e+00
2.407299881017515020e-01 5.616217024315567130e+00
2.420711022411483615e-01 5.206830962649988237e+00
2.434122163805451933e-01 5.369017370289860480e+00
2.447533305199420528e-01 5.453425605743447591e+00
2.460944446593389123e-01 5.359236840992814166e+00
2.474355587987357719e-01 5.463516403503682284e+00
2.487766729381326314e-01 5.610441418644242617e+00
2.501177870775294632e-01 6.280979879695635759e+00
2.514589012169263227e-01 8.063659299560015370e+00
2.528000153563231822e-01 1.105118209565929988e+01
2.541411294957200417e-01 1.478064005304550221e+01
2.554822436351169013e-01 1.745095798320730296e+01
2.568233577745137608e-01 1.698842205752173840e+01
2.581644719139106203e-01 1.533306256538751455e+01
2.595055860533074243e-01 1.322784348724525927e+01
2.608467001927042839e-01 1.113340106401744833e+01
2.621878143321011434e-01 9.233038663642041399e+00
2.635289284714980029e-01 8.531118992517022548e+00
2.648700426108948625e-01 8.063657595324009719e+00
2.662111567502916665e-01 9.518299673510043135e+00
2.675522708896885260e-01 1.197978952256428187e+01
2.688933850290853855e-01 1.594697796271505297e+01
2.702344991684822451e-01 1.987463165338283488e+01
2.715756133078791046e-01 2.050091952856530497e+01
2.729167274472759641e-01 1.851718722812601925e+01
2.742578415866727681e-01 1.471079329752878806e+01
2.755989557260696277e-01 1.131181937385299108e+01
2.769400698654664872e-01 9.016079975278650238e+00
2.782811840048633467e-01 7.555030455612318008e+00
2.796222981442602062e-01 6.233344170891655267e+00
2.809634122836570103e-01 4.861151369323856386e+00
2.823045264230538698e-01 4.307498978504291642e+00
2.836456405624507293e-01 4.546035221849756169e+00
2.849867547018475888e-01 4.702601054406812864e+00
2.863278688412444484e-01 4.046853998194592350e+00
2.876689829806413079e-01 3.549107660180517598e+00
2.890100971200381674e-01 3.594811078513934888e+00
2.903512112594350270e-01 4.366566937395091941e+00
2.916923253988318865e-01 4.716417464419613736e+00
2.930334395382287460e-01 4.523241777880123493e+00
2.943745536776256055e-01 5.411056696507607455e+00
2.957156678170224096e-01 5.487495956883449821e+00
2.970567819564192691e-01 5.401632457797667541e+00
2.983978960958161286e-01 4.697232737169770189e+00
2.997390102352129881e-01 4.272783154556485385e+00
3.010801243746098477e-01 3.874237109932330725e+00
3.024212385140067072e-01 3.530874293806299136e+00
3.037623526534035112e-01 2.819051536746378872e+00
3.051034667928003707e-01 3.390035311886350655e+00
3.064445809321972303e-01 4.372627046016177133e+00
3.077856950715940898e-01 4.551768786980467496e+00
3.091268092109909493e-01 4.166649740382410982e+00
3.104679233503877533e-01 4.116419647740066523e+00
3.118090374897846129e-01 3.931236568459851810e+00
3.131501516291814724e-01 3.449534084736093575e+00
3.144912657685783319e-01 3.529336382243741355e+00
3.158323799079751915e-01 3.236706434967935309e+00
3.171734940473720510e-01 2.617334855414974015e+00
3.185146081867689105e-01 2.298538332959296326e+00
3.198557223261657700e-01 2.242238260042363152e+00
3.211968364655626296e-01 2.150931154019957603e+00
3.225379506049594891e-01 1.751772148323780698e+00
3.238790647443563486e-01 1.547732558732107577e+00
3.252201788837532082e-01 1.538934610069617293e+00
3.265612930231500122e-01 1.683077955296802486e+00
3.279024071625468717e-01 1.906218847462078259e+00
3.292435213019437312e-01 2.042249132796030153e+00
3.305846354413405908e-01 2.305456911047691904e+00
3.319257495807374503e-01 2.675474792117093159e+00
3.332668637201342543e-01 2.008223452959541078e+00
3.346079778595311138e-01 2.288699895511406623e+00
3.359490919989279734e-01 2.195454558908743081e+00
3.372902061383248329e-01 2.149649239741506790e+00
3.386313202777216924e-01 2.757157476091073534e+00
3.399724344171185519e-01 2.684582177842600004e+00
3.413135485565153560e-01 2.801259411223682605e+00
3.426546626959122155e-01 3.004950850547068342e+00
3.439957768353090750e-01 2.987675504060391063e+00
3.453368909747059345e-01 3.048857090006563908e+00
3.466780051141027941e-01 2.884461133831251800e+00
3.480191192534995981e-01 2.600319994225770870e+00
3.493602333928964576e-01 2.759694821810768417e+00
3.507013475322933171e-01 2.830480255830806868e+00
3.520424616716901767e-01 2.302285357005168009e+00
3.533835758110870362e-01 2.410613408346101494e+00
3.547246899504838957e-01 1.806799967680113639e+00
3.560658040898807553e-01 1.558174093979140196e+00
3.574069182292776148e-01 1.519113982138023289e+00
3.587480323686744743e-01 1.567494998666660422e+00
3.600891465080713338e-01 1.879342881955352595e+00
3.614302606474681934e-01 1.469609764899715287e+00
3.627713747868649974e-01 2.076825028317152544e+00
3.641124889262618569e-01 2.204483498870651204e+00
3.654536030656587164e-01 2.537966071813308133e+00
3.667947172050555760e-01 2.753321874766022859e+00
3.681358313444524355e-01 2.994063952960452468e+00
3.694769454838492950e-01 3.261919335104046525e+00
3.708180596232460990e-01 3.478017447996435862e+00
3.721591737626429586e-01 4.095073167115238277e+00
3.735002879020398181e-01 4.076336652246460801e+00
3.748414020414366776e-01 3.914361090295734869e+00
3.761825161808335372e-01 4.111795030889716429e+00
3.775236303202303967e-01 3.449910564443307237e+00
3.788647444596272007e-01 3.172204006634601114e+00
3.802058585990240602e-01 2.487503250967286306e+00
3.815469727384209198e-01 2.105956689555284811e+00
3.828880868778177793e-01 2.141871805984528976e+00
3.842292010172146388e-01 2.175328159982235832e+00
3.855703151566114428e-01 2.113801443577571604e+00
3.869114292960083024e-01 2.071947826957142524e+00
3.882525434354051619e-01 1.745045512092289641e+00
3.895936575748020214e-01 2.185287582511129756e+00
3.909347717141988809e-01 1.865464123672410324e+00
3.922758858535957405e-01 2.157652068072451357e+00
3.936169999929926000e-01 2.148162695354017160e+00
3.949581141323894595e-01 1.568554770410884203e+00
3.962992282717863191e-01 1.401141348763694339e+00
3.976403424111831786e-01 1.487743663490213919e+00
3.989814565505800381e-01 1.432934405429143965e+00
4.003225706899768976e-01 1.647225745070407754e+00
4.016636848293737572e-01 1.313646130824643876e+00
4.030047989687706167e-01 1.113890032849141676e+00
4.043459131081674207e-01 1.088774646199475171e+00
4.056870272475643358e-01 1.368683571154804213e+00
4.070281413869611398e-01 1.276627488380853492e+00
4.083692555263580548e-01 7.179155673631356649e-01
4.097103696657548588e-01 9.267489938666670923e-01
4.110514838051517739e-01 5.859568906166572333e-01
4.123925979445485779e-01 5.947832706868112496e-01
4.137337120839453819e-01 7.104521197920661280e-01
4.150748262233422969e-01 7.486782888213028286e-01
4.164159403627391010e-01 8.761932601251913866e-01
4.177570545021360160e-01 8.928081453738414552e-01
4.190981686415328200e-01 6.571269761801872278e-01
4.204392827809296240e-01 5.926132787502425003e-01
4.217803969203265391e-01 6.812664882501877628e-01
4.231215110597233431e-01 4.075500844868287231e-01
4.244626251991202581e-01 4.584806980128419696e-01
4.258037393385170621e-01 4.218558225053143929e-01
4.271448534779138662e-01 5.326199841664660539e-01
4.284859676173107812e-01 6.501340094376857337e-01
4.298270817567075852e-01 1.028564304684472575e+00
4.311681958961045003e-01 1.030427883559177360e+00
4.325093100355013043e-01 5.820627273141241176e-01
4.338504241748981638e-01 7.345742239839694321e-01
4.351915383142950233e-01 9.801531920245381002e-01
4.365326524536918829e-01 1.059607517144549149e+00
4.378737665930887424e-01 9.842067168049126735e-01
4.392148807324856019e-01 6.659455963671874201e-01
4.405559948718824614e-01 7.817543098643184862e-01
4.418971090112793210e-01 1.021474037236906440e+00
4.432382231506761250e-01 9.605629211253656763e-01
4.445793372900730400e-01 8.824168078606930976e-01
4.459204514294698440e-01 8.568002650650754504e-01
4.472615655688667591e-01 1.165210935770559786e+00
4.486026797082635631e-01 1.137589636747485144e+00
4.499437938476603671e-01 1.201444952920823539e+00
4.512849079870572822e-01 1.282756725895211503e+00
4.526260221264540862e-01 1.396045310757514812e+00
4.539671362658510012e-01 1.385827905705170338e+00
4.553082504052478052e-01 1.341450565258632821e+00
4.566493645446446092e-01 1.300869858794534650e+00
4.579904786840415243e-01 1.359936599392135292e+00
4.593315928234383283e-01 8.307244289364916767e-01
4.606727069628352433e-01 9.646220964428238176e-01
4.620138211022320474e-01 1.156428583861632831e+00
4.633549352416289624e-01 9.925333884454374811e-01
4.646960493810257664e-01 1.034691514488315534e+00
4.660371635204225704e-01 9.956424244473964791e-01
4.673782776598194855e-01 9.392444225189819917e-01
4.687193917992162895e-01 1.209127150351079649e+00
4.700605059386132045e-01 1.422499211023975363e+00
4.714016200780100085e-01 1.540138357358486587e+00
4.727427342174068681e-01 1.426054231754363855e+00
4.740838483568037276e-01 1.386673707981927350e+00
4.754249624962005871e-01 1.652163577859028010e+00
4.767660766355974467e-01 1.023744494323189258e+00
4.781071907749943062e-01 9.451460408839906790e-01
4.794483049143911102e-01 1.075947707715101842e+00
4.807894190537880252e-01 1.120843861710348222e+00
4.821305331931848293e-01 1.274705040621519458e+00
4.834716473325817443e-01 9.140925753369515405e-01
4.848127614719785483e-01 3.957142199501291202e-01
4.861538756113753523e-01 2.908300408174468998e-01
4.874949897507722674e-01 4.524221133648040905e-01
4.888361038901690714e-01 8.251605363305856145e-01
4.901772180295659864e-01 6.155702192566252506e-01
4.915183321689627904e-01 6.313456429529793468e-01
4.928594463083597055e-01 2.732195831938426522e-01
4.942005604477565095e-01 3.820254068310902085e-01
4.955416745871533135e-01 5.749371786547996521e-01
4.968827887265502286e-01 5.803176337083542080e-01
4.982239028659470326e-01 6.582124429855156222e-01
4.995650170053439476e-01 2.774900827991899632e-01
5.009061311447408071e-01 2.619991497132900804e-02
5.022472452841375556e-01 1.360108661963508325e-01
5.035883594235345262e-01 7.227752576458286171e-01
5.049294735629312747e-01 6.220254772283340117e-01
5.062705877023282452e-01 5.812506230101490701e-01
5.076117018417249938e-01 2.464661539928414413e-02
5.089528159811218533e-01 0.000000000000000000e+00
5.102939301205187128e-01 3.376749172814470512e-01
5.116350442599155723e-01 7.365575801023496183e-01
5.129761583993124319e-01 7.193027116543575517e-01
5.143172725387092914e-01 3.900108318945214592e-01
5.156583866781061509e-01 4.890467493035970392e-01
5.169995008175030105e-01 6.831484721782530301e-01
5.183406149568997590e-01 6.776322686491909053e-01
5.196817290962967295e-01 7.126045353493637435e-01
5.210228432356934780e-01 3.545455818845795193e-01
5.223639573750904486e-01 7.463883456834921049e-01
5.237050715144871971e-01 9.928875789118691841e-01
5.250461856538840566e-01 5.591216762509887417e-01
5.263872997932809161e-01 3.697431637533625803e-01
5.277284139326777757e-01 5.623590666746167699e-01
5.290695280720746352e-01 8.039198693632485515e-01
5.304106422114714947e-01 7.707459678526191738e-01
5.317517563508683542e-01 5.406889816161353224e-01
5.330928704902652138e-01 4.494544866373857417e-01
5.344339846296620733e-01 4.815643269113323299e-01
5.357750987690589328e-01 6.301569941397815455e-01
5.371162129084557924e-01 8.029202131260007036e-01
5.384573270478525409e-01 6.274727550752814409e-01
5.397984411872495114e-01 8.701487254667199522e-01
5.411395553266462599e-01 1.019138348096454649e+00
5.424806694660432305e-01 9.246748319748689937e-01
5.438217836054399790e-01 9.358910731250844606e-01
5.451628977448369495e-01 8.419517744091891132e-01
5.465040118842336980e-01 4.458143462201462626e-01
5.478451260236305576e-01 5.403992903567029771e-01
5.491862401630274171e-01 5.549830254417074116e-01
5.505273543024242766e-01 1.091322120552469244e+00
5.518684684418211361e-01 8.511997423880117708e-01
5.532095825812179957e-01 7.218370138499210498e-01
5.545506967206147442e-01 9.431722604268912846e-01
