# q (1/Angstrom), Intensity (arb)
2.078726924066784734e-02 1.078233590480459441e+02
2.212838338006469993e-02 1.719482148693763008e+02
2.346949751946154905e-02 2.397489774449666129e+02
2.481061165885840164e-02 3.376464766971760127e+02
2.615172579825525423e-02 3.889569225250262434e+02
2.749283993765210335e-02 4.140617504491539194e+02
2.883395407704895941e-02 4.309083564947869718e+02
3.017506821644580506e-02 4.409655543105481001e+02
3.151618235584265765e-02 4.434723046285452597e+02
3.285729649523951718e-02 4.458858411246715718e+02
3.419841063463636283e-02 4.445345839817753131e+02
3.553952477403321542e-02 4.415172476147328098e+02
3.688063891343006800e-02 4.397112977901782074e+02
3.822175305282692059e-02 4.339239734741783536e+02
3.956286719222376624e-02 4.305088317843641335e+02
4.090398133162062577e-02 4.283868603130184169e+02
4.224509547101747142e-02 4.271824315944126056e+02
4.358620961041432401e-02 4.228241938357595018e+02
4.492732374981117660e-02 4.183423591236717130e+02
4.626843788920802919e-02 4.165500793478455535e+02
4.760955202860488178e-02 4.136286917680280908e+02
4.895066616800172743e-02 4.109923601726006837e+02
5.029178030739858696e-02 4.069520838552064106e+02
5.163289444679544649e-02 4.016630527280124738e+02
5.297400858619229214e-02 3.968064493098538605e+02
5.431512272558913779e-02 3.947659949682050637e+02
5.565623686498599731e-02 3.866868362741607825e+02
5.699735100438284990e-02 3.815188690102766031e+02
5.833846514377969555e-02 3.754635711853613316e+02
5.967957928317654814e-02 3.696841328692867705e+02
6.102069342257340767e-02 3.617267210584618056e+02
6.236180756197025332e-02 3.578044083754055009e+02
6.370292170136709897e-02 3.541505331606862228e+02
6.504403584076395850e-02 3.482089443431354994e+02
6.638514998016080415e-02 3.413657686849082893e+02
6.772626411955766368e-02 3.334901792766651170e+02
6.906737825895450933e-02 3.251228294008091666e+02
7.040849239835136886e-02 3.167732291305681542e+02
7.174960653774821451e-02 3.093304742740335769e+02
7.309072067714506016e-02 3.023543495689727933e+02
7.443183481654190581e-02 2.968329819349831951e+02
7.577294895593877921e-02 2.880326431167051737e+02
7.711406309533562486e-02 2.790361531159976494e+02
7.845517723473247051e-02 2.703265679730930628e+02
7.979629137412933004e-02 2.641360118682993061e+02
8.113740551352617569e-02 2.587903396973450754e+02
8.247851965292302134e-02 2.510442688802594944e+02
8.381963379231988087e-02 2.447603428393111926e+02
8.516074793171674040e-02 2.365232123572588989e+02
8.650186207111358605e-02 2.282501203129985470e+02
8.784297621051043170e-02 2.210876765857250916e+02
8.918409034990729123e-02 2.151228068794949877e+02
9.052520448930413688e-02 2.080532428844277320e+02
9.186631862870098253e-02 2.012234956015227851e+02
9.320743276809784206e-02 1.955574250654707953e+02
9.454854690749470159e-02 1.894311580183069736e+02
9.588966104689154724e-02 1.825080631437913894e+02
9.723077518628839289e-02 1.750863421582907336e+02
9.857188932568525241e-02 1.681813969447340469e+02
9.991300346508209806e-02 1.622574960622698654e+02
1.012541176044789437e-01 1.572691834409852731e+02
1.025952317438758032e-01 1.514025857807812656e+02
1.039363458832726350e-01 1.466126838983279583e+02
1.052774600226694945e-01 1.401438790808199428e+02
1.066185741620663541e-01 1.343620703827605780e+02
1.079596883014631858e-01 1.299534708545760395e+02
1.093008024408600454e-01 1.244031163292247726e+02
1.106419165802569049e-01 1.181999592227312377e+02
1.119830307196537506e-01 1.133957825190539808e+02
1.133241448590506101e-01 1.090445785686873847e+02
1.146652589984474419e-01 1.044204476876851828e+02
1.160063731378443014e-01 9.986052030344546893e+01
1.173474872772411609e-01 9.487903669707394272e+01
1.186886014166380066e-01 9.017158135710739941e+01
1.200297155560348661e-01 8.603929757237162335e+01
1.213708296954317256e-01 8.202132213387889692e+01
1.227119438348285574e-01 7.737379544216699401e+01
1.240530579742254169e-01 7.384262346568820590e+01
1.253941721136222764e-01 7.033671544506118778e+01
1.267352862530191082e-01 6.520484526575366147e+01
1.280764003924159677e-01 6.307143550414609479e+01
1.294175145318128273e-01 5.855331843973593209e+01
1.307586286712096590e-01 5.540132165760707039e+01
1.320997428106065186e-01 5.245156758445048695e+01
1.334408569500033781e-01 5.005064686972370680e+01
1.347819710894002376e-01 4.697624538354178014e+01
1.361230852287970972e-01 4.335456522722640216e+01
1.374641993681939289e-01 4.112220390557831706e+01
1.388053135075907885e-01 3.870301995711298559e+01
1.401464276469876480e-01 3.516194807957317892e+01
1.414875417863844798e-01 3.362924668181308618e+01
1.428286559257813393e-01 3.228421325747805781e+01
1.441697700651781988e-01 3.020972958187292079e+01
1.455108842045750306e-01 2.752448563384666613e+01
1.468519983439718901e-01 2.475915352145993609e+01
1.481931124833687219e-01 2.304337504796534120e+01
1.495342266227655814e-01 2.132945862497506084e+01
1.508753407621624687e-01 1.964626522138354403e+01
1.522164549015593005e-01 1.790504373325525478e+01
1.535575690409561600e-01 1.699130902415001287e+01
1.548986831803530195e-01 1.550117214864725668e+01
1.562397973197498513e-01 1.293782034840691608e+01
1.575809114591467108e-01 1.278944251335522608e+01
1.589220255985435704e-01 1.185918301427844312e+01
1.602631397379404021e-01 1.098204138778611139e+01
1.616042538773372617e-01 1.027612379673637122e+01
1.629453680167341212e-01 9.700470973050499879e+00
1.642864821561309530e-01 8.375360183930823155e+00
1.656275962955278125e-01 7.725362437792185233e+00
1.669687104349246720e-01 7.347562467075064774e+00
1.683098245743215315e-01 6.773323462164000830e+00
1.696509387137183911e-01 5.794740060758456934e+00
1.709920528531152228e-01 4.800077015184754714e+00
1.723331669925120824e-01 4.920030302364068575e+00
1.736742811319089419e-01 4.752218626601631968e+00
1.750153952713057737e-01 4.040649528666520496e+00
1.763565094107026332e-01 3.597470014034456653e+00
1.776976235500994927e-01 2.577102874138276434e+00
1.790387376894963245e-01 2.136656834305739494e+00
1.803798518288931840e-01 2.252309357539104440e+00
1.817209659682900158e-01 2.119015038172506138e+00
1.830620801076868753e-01 2.103111696417130361e+00
1.844031942470837349e-01 2.510743631172474011e+00
1.857443083864805944e-01 2.146577708956343145e+00
1.870854225258774539e-01 1.795956080213883865e+00
1.884265366652743134e-01 1.151119852472930916e+00
1.897676508046711452e-01 2.172863375807608577e+00
1.911087649440680047e-01 2.303454722688499601e+00
1.924498790834648643e-01 2.299593730111155310e+00
1.937909932228616960e-01 2.524127676484866356e+00
1.951321073622585556e-01 2.533413742742268937e+00
1.964732215016554151e-01 2.349369478484163665e+00
1.978143356410522469e-01 2.392157917991809768e+00
1.991554497804491064e-01 1.864640790435842632e+00
2.004965639198459382e-01 2.438341655998286228e+00
2.018376780592427977e-01 2.908298678641827451e+00
2.031787921986396572e-01 2.883584274836124450e+00
2.045199063380365168e-01 2.949723094658878608e+00
2.058610204774333763e-01 3.492359822030508099e+00
2.072021346168302081e-01 3.026650422476549807e+00
2.085432487562270676e-01 3.508456520624918085e+00
2.098843628956239271e-01 3.759126351026779389e+00
2.112254770350207866e-01 3.598890497644788411e+00
2.125665911744176462e-01 3.503338800901957484e+00
2.139077053138144502e-01 3.404488756689104889e+00
2.152488194532113097e-01 3.580149601817581129e+00
2.165899335926081692e-01 3.868606270839848094e+00
2.179310477320050288e-01 4.059647162256588615e+00
2.192721618714018883e-01 4.161164889598062189e+00
2.206132760107987478e-01 3.919010774739312808e+00
2.219543901501955796e-01 4.379885458865729220e+00
2.232955042895924391e-01 4.494787945716865352e+00
2.246366184289892987e-01 4.321557836880074888e+00
2.259777325683861582e-01 4.099260819404015876e+00
2.273188467077830177e-01 4.481818045300919096e+00
2.286599608471798217e-01 4.687027202699475481e+00
2.300010749865766813e-01 5.036209220526572494e+00
2.313421891259735408e-01 5.242177012799537295e+00
2.326833032653704003e-01 5.181007241529385965e+00
2.340244174047672598e-01 5.174886993734610030e+00
2.353655315441641194e-01 4.957587245055663061e+00
2.367066456835609234e-01 4.844102008533582193e+00
2.380477598229577829e-01 4.978930558531260431e+00
2.393888739623546424e-01 4.651969535218498208e+00
2.407299881017515020e-01 4.804309155624217453e+00
2.420711022411483615e-01 4.850817906423934289e+00
2.434122163805451933e-01 4.430398404139573643e+00
2.447533305199420528e-01 4.268009829222172868e+00
2.460944446593389123e-01 4.491916213108211764e+00
2.474355587987357719e-01 5.169560974430339684e+00
2.487766729381326314e-01 4.804508041413171782e+00
2.501177870775294632e-01 4.705234549734221616e+00
2.514589012169263227e-01 4.521077411540268542e+00
2.528000153563231822e-01 4.372866715958764416e+00
2.541411294957200417e-01 4.039044405166066554e+00
2.554822436351169013e-01 4.038185215425613706e+00
2.568233577745137608e-01 4.463702887977262890e+00
2.581644719139106203e-01 4.428519007452493383e+00
2.595055860533074243e-01 4.149120494392434466e+00
2.608467001927042839e-01 4.542722557782859383e+00
2.621878143321011434e-01 4.050098147423234707e+00
2.635289284714980029e-01 3.932239905619312026e+00
2.648700426108948625e-01 3.821873714267823630e+00
2.662111567502916665e-01 3.942128036911462630e+00
2.675522708896885260e-01 3.835206849134998208e+00
2.688933850290853855e-01 4.034038513698320116e+00
2.702344991684822451e-01 3.746386625118368841e+00
2.715756133078791046e-01 3.135534712599849172e+00
2.729167274472759641e-01 2.986446809475665987e+00
2.742578415866727681e-01 2.872831028049290580e+00
2.755989557260696277e-01 2.884854170081119662e+00
2.769400698654664872e-01 3.017184062610013484e+00
2.782811840048633467e-01 2.663158658204700657e+00
2.796222981442602062e-01 2.438590873144718785e+00
2.809634122836570103e-01 2.692161114960093471e+00
2.823045264230538698e-01 2.605485404159026075e+00
2.836456405624507293e-01 2.948685515754796427e+00
2.849867547018475888e-01 2.744259179882305943e+00
2.863278688412444484e-01 2.794543456050696761e+00
2.876689829806413079e-01 2.793607622439147065e+00
2.890100971200381674e-01 2.507503417437739301e+00
2.903512112594350270e-01 2.433717422574950717e+00
2.916923253988318865e-01 2.048765711236136156e+00
2.930334395382287460e-01 2.231076060604387123e+00
2.943745536776256055e-01 2.001375324371565512e+00
2.957156678170224096e-01 2.088699354497464356e+00
2.970567819564192691e-01 2.463224184030487152e+00
2.983978960958161286e-01 1.932144661252564788e+00
2.997390102352129881e-01 1.966157028606509982e+00
3.010801243746098477e-01 2.325327995384192548e+00
3.024212385140067072e-01 2.226246524172275087e+00
3.037623526534035112e-01 2.150706872445880435e+00
3.051034667928003707e-01 1.837643569789065623e+00
3.064445809321972303e-01 1.880995076312217407e+00
3.077856950715940898e-01 1.615649124502013478e+00
3.091268092109909493e-01 1.421731302421555654e+00
3.104679233503877533e-01 1.444240578972674882e+00
3.118090374897846129e-01 1.527268252057261577e+00
3.131501516291814724e-01 1.589075616191188089e+00
3.144912657685783319e-01 1.376404636635079726e+00
3.158323799079751915e-01 1.495853301831559179e+00
3.171734940473720510e-01 1.288375120467762258e+00
3.185146081867689105e-01 1.054698711448047277e+00
3.198557223261657700e-01 1.289950041496361166e+00
3.211968364655626296e-01 1.155147029729242547e+00
3.225379506049594891e-01 1.011681902810607880e+00
3.238790647443563486e-01 1.305592599055884762e+00
3.252201788837532082e-01 1.751603919265356524e+00
3.265612930231500122e-01 1.658459074668940048e+00
3.279024071625468717e-01 1.101016686246516940e+00
3.292435213019437312e-01 1.202340199234335216e+00
3.305846354413405908e-01 1.599529254620229324e+00
3.319257495807374503e-01 1.561591870225164769e+00
3.332668637201342543e-01 1.401175568292828189e+00
3.346079778595311138e-01 1.239265200366865827e+00
3.359490919989279734e-01 1.459081839244873890e+00
3.372902061383248329e-01 1.438351469697508378e+00
3.386313202777216924e-01 1.178993208070906462e+00
3.399724344171185519e-01 1.185334085872490562e+00
3.413135485565153560e-01 1.608467431183221663e+00
3.426546626959122155e-01 1.365781296855701044e+00
3.439957768353090750e-01 1.501396976839579622e+00
3.453368909747059345e-01 1.555275960711696825e+00
3.466780051141027941e-01 1.878054716667676871e+00
3.480191192534995981e-01 1.750360127961400281e+00
3.493602333928964576e-01 1.369397447447880722e+00
3.507013475322933171e-01 1.546647599627924308e+00
3.520424616716901767e-01 1.728468690801065577e+00
3.533835758110870362e-01 1.766745777339878032e+00
3.547246899504838957e-01 1.563009991306330448e+00
3.560658040898807553e-01 1.410205723982613790e+00
3.574069182292776148e-01 1.349598697831822847e+00
3.587480323686744743e-01 1.644292801486031408e+00
3.600891465080713338e-01 1.965480929268409227e+00
3.614302606474681934e-01 1.804841535274555042e+00
3.627713747868649974e-01 1.103492758597866441e+00
3.641124889262618569e-01 1.603259331065750359e+00
3.654536030656587164e-01 1.384770904099632105e+00
3.667947172050555760e-01 1.679331523433233997e+00
3.681358313444524355e-01 2.070960061394664820e+00
3.694769454838492950e-01 2.133321856983457110e+00
3.708180596232460990e-01 1.893037180604657976e+00
3.721591737626429586e-01 1.922523699224008453e+00
3.735002879020398181e-01 1.881661567450557015e+00
3.748414020414366776e-01 1.915337703484027543e+00
3.761825161808335372e-01 1.728318979858336490e+00
3.775236303202303967e-01 2.276206210516207307e+00
3.788647444596272007e-01 2.117310958662962150e+00
3.802058585990240602e-01 1.819924220135284543e+00
3.815469727384209198e-01 1.765245821645926583e+00
3.828880868778177793e-01 1.802265753812690718e+00
3.842292010172146388e-01 1.939653565456737283e+00
3.855703151566114428e-01 1.673193655782753808e+00
3.869114292960083024e-01 1.643373263890858027e+00
3.882525434354051619e-01 1.699666181525955722e+00
3.895936575748020214e-01 1.669945198247653195e+00
3.909347717141988809e-01 1.284922130613352920e+00
3.922758858535957405e-01 1.498133194395215639e+00
3.936169999929926000e-01 1.724036213390398586e+00
3.949581141323894595e-01 1.294105059513292133e+00
3.962992282717863191e-01 1.550438060334847989e+00
3.976403424111831786e-01 1.254839407925125272e+00
3.989814565505800381e-01 1.166885235665098719e+00
4.003225706899768976e-01 1.296112049554544399e+00
4.016636848293737572e-01 1.390064343886443510e+00
4.030047989687706167e-01 1.027683529922576611e+00
4.043459131081674207e-01 1.200599449304164068e+00
4.056870272475643358e-01 1.449837570249052021e+00
4.070281413869611398e-01 1.647736227900203687e+00
4.083692555263580548e-01 1.732617814878913975e+00
4.097103696657548588e-01 1.832074502824610818e+00
4.110514838051517739e-01 1.570164056079590864e+00
4.123925979445485779e-01 1.657320178194304106e+00
4.137337120839453819e-01 1.406315500204456725e+00
4.150748262233422969e-01 1.158124018948043954e+00
4.164159403627391010e-01 1.044072442554217162e+00
4.177570545021360160e-01 1.155526923658513283e+00
4.190981686415328200e-01 1.131120207579947134e+00
4.204392827809296240e-01 1.032110619629264647e+00
4.217803969203265391e-01 7.820736715303766573e-01
4.231215110597233431e-01 1.124686714518674080e+00
4.244626251991202581e-01 1.108320838103395545e+00
4.258037393385170621e-01 1.395467151715521936e+00
4.271448534779138662e-01 1.625838726989591976e+00
4.284859676173107812e-01 1.192085111052705315e+00
4.298270817567075852e-01 9.303671242338964475e-01
4.311681958961045003e-01 9.994132482174080678e-01
4.325093100355013043e-01 1.020460773629508822e+00
4.338504241748981638e-01 8.861293674453705194e-01
4.351915383142950233e-01 4.821194956493641826e-01
4.365326524536918829e-01 9.347563417921449513e-01
4.378737665930887424e-01 7.685336524210342191e-01
4.392148807324856019e-01 9.652722557694630723e-01
4.405559948718824614e-01 9.513646360833831750e-01
4.418971090112793210e-01 1.046323662293040968e+00
4.432382231506761250e-01 9.274709715185025516e-01
4.445793372900730400e-01 8.827115335480684166e-01
4.459204514294698440e-01 9.392586062581784745e-01
4.472615655688667591e-01 1.089338895740553426e+00
4.486026797082635631e-01 1.331198853695909179e+00
4.499437938476603671e-01 8.510822781471745202e-01
4.512849079870572822e-01 7.368110336282782669e-01
4.526260221264540862e-01 8.236884161687711980e-01
4.539671362658510012e-01 8.270885745416052259e-01
4.553082504052478052e-01 7.208053092591768518e-01
4.566493645446446092e-01 8.884398755451670127e-01
4.579904786840415243e-01 6.527927876592443113e-01
4.593315928234383283e-01 5.580375300966764485e-01
4.606727069628352433e-01 6.341121342401336847e-01
4.620138211022320474e-01 6.578968934787496892e-01
4.633549352416289624e-01 8.944378632523495298e-01
4.646960493810257664e-01 8.275605991432115616e-01
4.660371635204225704e-01 1.123873459468711644e+00
4.673782776598194855e-01 9.356997685894725691e-01
4.687193917992162895e-01 1.158448711610617465e+00
4.700605059386132045e-01 1.079664293232106331e+00
4.714016200780100085e-01 1.128558633592490423e+00
4.727427342174068681e-01 1.170466409811915298e+00
4.740838483568037276e-01 8.358759163050493157e-01
4.754249624962005871e-01 6.718330300233148478e-01
4.767660766355974467e-01 9.019244293980506200e-01
4.781071907749943062e-01 7.876502243907239631e-01
4.794483049143911102e-01 7.030393538552175414e-01
4.807894190537880252e-01 8.022561791489550842e-01
4.821305331931848293e-01 8.111903486242866279e-01
4.834716473325817443e-01 1.013136332863219025e+00
4.848127614719785483e-01 9.021895345436377056e-01
4.861538756113753523e-01 1.074378888992633563e+00
4.874949897507722674e-01 1.047691220869495510e+00
4.888361038901690714e-01 9.192313911218548128e-01
4.901772180295659864e-01 1.145166211661127420e+00
4.915183321689627904e-01 1.088335025862150474e+00
4.928594463083597055e-01 8.364774101327512312e-01
4.942005604477565095e-01 8.238801256186931710e-01
4.955416745871533135e-01 8.355447832300555433e-01
4.968827887265502286e-01 1.047903368738481333e+00
4.982239028659470326e-01 9.154332902531905347e-01
4.995650170053439476e-01 8.710791049066628489e-01
5.009061311447408071e-01 4.923931921091480035e-01
5.022472452841375556e-01 4.439115819534862339e-01
5.035883594235345262e-01 4.841032146208519293e-01
5.049294735629312747e-01 4.986370553929120319e-01
5.062705877023282452e-01 7.519585099851724408e-01
5.076117018417249938e-01 9.153328761194003960e-01
5.089528159811218533e-01 9.110930319098144992e-01
5.102939301205187128e-01 9.860470065082012070e-01
5.116350442599155723e-01 9.169594259431121941e-01
5.129761583993124319e-01 8.045620421592474258e-01
5.143172725387092914e-01 5.152825728799683702e-01
5.156583866781061509e-01 4.355491712125569848e-01
5.169995008175030105e-01 5.163622357248982553e-01
5.183406149568997590e-01 3.818533719500649681e-01
5.196817290962967295e-01 5.370369341008540687e-01
5.210228432356934780e-01 4.375241373504508147e-01
5.223639573750904486e-01 7.279564929160500242e-01
5.237050715144871971e-01 8.667494281379717336e-01
5.250461856538840566e-01 7.936371634521393048e-01
5.263872997932809161e-01 6.599675405787195359e-01
5.277284139326777757e-01 7.464630082133183464e-01
5.290695280720746352e-01 4.675115793944328857e-01
5.304106422114714947e-01 6.596180810285048324e-01
5.317517563508683542e-01 6.167420123925353437e-01
5.330928704902652138e-01 4.414638187167696515e-01
5.344339846296620733e-01 4.770791178632194374e-01
5.357750987690589328e-01 7.992296551040638519e-01
5.371162129084557924e-01 6.463547652569658908e-01
5.384573270478525409e-01 5.715636077550243499e-01
5.397984411872495114e-01 6.908314769040870829e-01
5.411395553266462599e-01 3.787697484298462314e-01
5.424806694660432305e-01 3.023374745904376937e-01
5.438217836054399790e-01 4.613738756181859912e-01
5.451628977448369495e-01 3.227726872621303755e-01
5.465040118842336980e-01 4.305965596956298214e-01
5.478451260236305576e-01 2.390220806495193528e-01
5.491862401630274171e-01 5.192102604501513952e-01
5.505273543024242766e-01 3.322091295275697576e-01
5.518684684418211361e-01 3.155279739663328087e-01
5.532095825812179957e-01 3.597462215615863101e-01
5.545506967206147442e-01 5.706965110800297225e-01
