# q (1/Angstrom), Intensity (arb)
2.078726924066784734e-02 6.938535475035746458e+01
2.212838338006469993e-02 1.064025107274533752e+02
2.346949751946154905e-02 1.461452277632702419e+02
2.481061165885840164e-02 2.069131074558693797e+02
2.615172579825525423e-02 2.337445681455045019e+02
2.749283993765210335e-02 2.438738017762375421e+02
2.883395407704895941e-02 2.479424961269417622e+02
3.017506821644580506e-02 2.529052323697663951e+02
3.151618235584265765e-02 2.522490576869718666e+02
3.285729649523951718e-02 2.504411205829905782e+02
3.419841063463636283e-02 2.473381370918823734e+02
3.553952477403321542e-02 2.429934218093117977e+02
3.688063891343006800e-02 2.378843613792813585e+02
3.822175305282692059e-02 2.322194415002235814e+02
3.956286719222376624e-02 2.303805943230679247e+02
4.090398133162062577e-02 2.273881423164613977e+02
4.224509547101747142e-02 2.208200504715285319e+02
4.358620961041432401e-02 2.176390367249509836e+02
4.492732374981117660e-02 2.150989387167119844e+02
4.626843788920802919e-02 2.142906431675563113e+02
4.760955202860488178e-02 2.104959666236377984e+02
4.895066616800172743e-02 2.063694114764855954e+02
5.029178030739858696e-02 2.031336609440222674e+02
5.163289444679544649e-02 1.996871831735969351e+02
5.297400858619229214e-02 1.962978491704602959e+02
5.431512272558913779e-02 1.926622920155065515e+02
5.565623686498599731e-02 1.867968764401594228e+02
5.699735100438284990e-02 1.815276577525810069e+02
5.833846514377969555e-02 1.777193060448365713e+02
5.967957928317654814e-02 1.741842644732657845e+02
6.102069342257340767e-02 1.710084422614346806e+02
6.236180756197025332e-02 1.667553958851132734e+02
6.370292170136709897e-02 1.620803792522494859e+02
6.504403584076395850e-02 1.585088985323301927e+02
6.638514998016080415e-02 1.525097041240244380e+02
6.772626411955766368e-02 1.486058283386447556e+02
6.906737825895450933e-02 1.430463558243407078e+02
7.040849239835136886e-02 1.411179606828295050e+02
7.174960653774821451e-02 1.367568689644178619e+02
7.309072067714506016e-02 1.320738556347378108e+02
7.443183481654190581e-02 1.290910656013313940e+02
7.577294895593877921e-02 1.245371108147020891e+02
7.711406309533562486e-02 1.197539171084752070e+02
7.845517723473247051e-02 1.154137985330276734e+02
7.979629137412933004e-02 1.112288745524893727e+02
8.113740551352617569e-02 1.066313472496446764e+02
8.247851965292302134e-02 1.058654732225159023e+02
8.381963379231988087e-02 1.029828874542216113e+02
8.516074793171674040e-02 9.901597301775039739e+01
8.650186207111358605e-02 9.813957102130407861e+01
8.784297621051043170e-02 9.602541131612728975e+01
8.918409034990729123e-02 9.495025115460551035e+01
9.052520448930413688e-02 9.964364196365296777e+01
9.186631862870098253e-02 1.272290331330761859e+02
9.320743276809784206e-02 1.902900127407778541e+02
9.454854690749470159e-02 2.688260581546582557e+02
9.588966104689154724e-02 3.923101253191030082e+02
9.723077518628839289e-02 7.174867378261545809e+02
9.857188932568525241e-02 1.321653532324658954e+03
9.991300346508209806e-02 1.644055207702379221e+03
1.012541176044789437e-01 1.550580613494266572e+03
1.025952317438758032e-01 9.579238630262236711e+02
1.039363458832726350e-01 4.758818469214259039e+02
1.052774600226694945e-01 3.155837408121939234e+02
1.066185741620663541e-01 2.599530479418439768e+02
1.079596883014631858e-01 2.241447051355643794e+02
1.093008024408600454e-01 1.954035355053007379e+02
1.106419165802569049e-01 1.773070374975254140e+02
1.119830307196537506e-01 1.876480163544572406e+02
1.133241448590506101e-01 2.429580028274189942e+02
1.146652589984474419e-01 2.996441951035829447e+02
1.160063731378443014e-01 2.897532248394160206e+02
1.173474872772411609e-01 2.127741429190980682e+02
1.186886014166380066e-01 1.083278876173721414e+02
1.200297155560348661e-01 5.581028384385074048e+01
1.213708296954317256e-01 3.847616817514435184e+01
1.227119438348285574e-01 3.058018598482919970e+01
1.240530579742254169e-01 2.593625843162149636e+01
1.253941721136222764e-01 2.245053281932077027e+01
1.267352862530191082e-01 1.988093105683741157e+01
1.280764003924159677e-01 1.785334868173734435e+01
1.294175145318128273e-01 1.593677951874006737e+01
1.307586286712096590e-01 1.503404653021920012e+01
1.320997428106065186e-01 1.276568861536847521e+01
1.334408569500033781e-01 1.120261377601053709e+01
1.347819710894002376e-01 1.025988120847219420e+01
1.361230852287970972e-01 9.214052567072982924e+00
1.374641993681939289e-01 8.204434917108713421e+00
1.388053135075907885e-01 7.743308427237565184e+00
1.401464276469876480e-01 7.404267130623949811e+00
1.414875417863844798e-01 6.660861077123740870e+00
1.428286559257813393e-01 6.318029964970918400e+00
1.441697700651781988e-01 6.463047344680006745e+00
1.455108842045750306e-01 5.808848480886737775e+00
1.468519983439718901e-01 5.847278004870574364e+00
1.481931124833687219e-01 5.391765237969025293e+00
1.495342266227655814e-01 5.161815772230625043e+00
1.508753407621624687e-01 4.545626523734227931e+00
1.522164549015593005e-01 4.367660596959325403e+00
1.535575690409561600e-01 4.890603243089131524e+00
1.548986831803530195e-01 5.248361850973722653e+00
1.562397973197498513e-01 5.194186136824569644e+00
1.575809114591467108e-01 5.058812983079192804e+00
1.589220255985435704e-01 5.872646409574869608e+00
1.602631397379404021e-01 1.010856081155512243e+01
1.616042538773372617e-01 1.765324487266721576e+01
1.629453680167341212e-01 2.406749875330874033e+01
1.642864821561309530e-01 2.366820277616697865e+01
1.656275962955278125e-01 1.723870309799882250e+01
1.669687104349246720e-01 1.083496796266747708e+01
1.683098245743215315e-01 7.811072204500305816e+00
1.696509387137183911e-01 6.766063160802360699e+00
1.709920528531152228e-01 6.478885564399277541e+00
1.723331669925120824e-01 6.804724249701195049e+00
1.736742811319089419e-01 7.308680204906792710e+00
1.750153952713057737e-01 7.585757796647385476e+00
1.763565094107026332e-01 7.054581749161528137e+00
1.776976235500994927e-01 7.048644116816589644e+00
1.790387376894963245e-01 7.751666106061392725e+00
1.803798518288931840e-01 8.303026482095759775e+00
1.817209659682900158e-01 8.576683204136003269e+00
1.830620801076868753e-01 8.921440739029719680e+00
1.844031942470837349e-01 9.411153263719768347e+00
1.857443083864805944e-01 1.131902449957846102e+01
1.870854225258774539e-01 1.578392466096337898e+01
1.884265366652743134e-01 2.952782118024983049e+01
1.897676508046711452e-01 5.674871279196366913e+01
1.911087649440680047e-01 7.930583273959133805e+01
1.924498790834648643e-01 7.913589941067957056e+01
1.937909932228616960e-01 5.653376456776234704e+01
1.951321073622585556e-01 3.158560991661160244e+01
1.964732215016554151e-01 2.079264981894141329e+01
1.978143356410522469e-01 2.162660157272014771e+01
1.991554497804491064e-01 2.561318263200823253e+01
2.004965639198459382e-01 2.555029169764992503e+01
2.018376780592427977e-01 2.032148931949427606e+01
2.031787921986396572e-01 1.262167868707523155e+01
2.045199063380365168e-01 7.551382638803858072e+00
2.058610204774333763e-01 6.240164775846352541e+00
2.072021346168302081e-01 5.962024462628107813e+00
2.085432487562270676e-01 5.538361981234757536e+00
2.098843628956239271e-01 5.226902876194415626e+00
2.112254770350207866e-01 4.754850031214232331e+00
2.125665911744176462e-01 4.823034376676019974e+00
2.139077053138144502e-01 5.405865745684664603e+00
2.152488194532113097e-01 4.294049101018174497e+00
2.165899335926081692e-01 2.848343690717854315e+00
2.179310477320050288e-01 3.391103410072943802e+00
2.192721618714018883e-01 3.345449858973040591e+00
2.206132760107987478e-01 3.675457127419420544e+00
2.219543901501955796e-01 3.686153834587514666e+00
2.232955042895924391e-01 3.838910847702493356e+00
2.246366184289892987e-01 4.005338906481682670e+00
2.259777325683861582e-01 3.700795698654346211e+00
2.273188467077830177e-01 3.726646911523260997e+00
2.286599608471798217e-01 4.279531738465394142e+00
2.300010749865766813e-01 4.604605271704656388e+00
2.313421891259735408e-01 5.327443994627529378e+00
2.326833032653704003e-01 4.816258260618852205e+00
2.340244174047672598e-01 3.670860703398901137e+00
2.353655315441641194e-01 3.518677985745839010e+00
2.367066456835609234e-01 2.987755068494237776e+00
2.380477598229577829e-01 2.502026047700042000e+00
2.393888739623546424e-01 2.880847456128506678e+00
2.407299881017515020e-01 2.218474959017925130e+00
2.420711022411483615e-01 2.131140008868925406e+00
2.434122163805451933e-01 2.079665965980268538e+00
2.447533305199420528e-01 2.368456482071167102e+00
2.460944446593389123e-01 2.008328648198272504e+00
2.474355587987357719e-01 1.833535307959564875e+00
2.487766729381326314e-01 1.845161133496333150e+00
2.501177870775294632e-01 1.905230011615856256e+00
2.514589012169263227e-01 2.287729533416523964e+00
2.528000153563231822e-01 2.440285621775828417e+00
2.541411294957200417e-01 2.501874973025294935e+00
2.554822436351169013e-01 1.775032635517675317e+00
2.568233577745137608e-01 1.842103059326959169e+00
2.581644719139106203e-01 2.030698097605352359e+00
2.595055860533074243e-01 2.467256838087251936e+00
2.608467001927042839e-01 2.187242726759336620e+00
2.621878143321011434e-01 2.312502528982179228e+00
2.635289284714980029e-01 2.143743397427769537e+00
2.648700426108948625e-01 1.566756608384451965e+00
2.662111567502916665e-01 2.216107321174931144e+00
2.675522708896885260e-01 1.911709814797411866e+00
2.688933850290853855e-01 1.696882569192055712e+00
2.702344991684822451e-01 1.543849468710817519e+00
2.715756133078791046e-01 1.640467897281119747e+00
2.729167274472759641e-01 1.718957435334552031e+00
2.742578415866727681e-01 2.170272565741868220e+00
2.755989557260696277e-01 2.629118304306885534e+00
2.769400698654664872e-01 2.442241731471391120e+00
2.782811840048633467e-01 2.992783907919189801e+00
2.796222981442602062e-01 3.004873611636369901e+00
2.809634122836570103e-01 3.707008916667042797e+00
2.823045264230538698e-01 4.683815370376926523e+00
2.836456405624507293e-01 4.403981308896142366e+00
2.849867547018475888e-01 3.744250957256056722e+00
2.863278688412444484e-01 3.414086243776253582e+00
2.876689829806413079e-01 2.594669270777423264e+00
2.890100971200381674e-01 2.150688738687478008e+00
2.903512112594350270e-01 2.030431632824779342e+00
2.916923253988318865e-01 2.331598890155888171e+00
2.930334395382287460e-01 2.734307796604220187e+00
2.943745536776256055e-01 2.347884730247372431e+00
2.957156678170224096e-01 3.025277870482675269e+00
2.970567819564192691e-01 3.992711077141763099e+00
2.983978960958161286e-01 4.499361306081816281e+00
2.997390102352129881e-01 5.155675977706287938e+00
3.010801243746098477e-01 5.036345407406841446e+00
3.024212385140067072e-01 4.521120405842538048e+00
3.037623526534035112e-01 3.192473552082759625e+00
3.051034667928003707e-01 2.625572246931191955e+00
3.064445809321972303e-01 2.265595748474439119e+00
3.077856950715940898e-01 2.135243044569996584e+00
3.091268092109909493e-01 1.953638066208171153e+00
3.104679233503877533e-01 1.797498634557356922e+00
3.118090374897846129e-01 1.873109232792664613e+00
3.131501516291814724e-01 2.076357406711572651e+00
3.144912657685783319e-01 2.357116052522620464e+00
3.158323799079751915e-01 1.788544294216627861e+00
3.171734940473720510e-01 1.480434104741775059e+00
3.185146081867689105e-01 1.832936532425996745e+00
3.198557223261657700e-01 1.800486142589711847e+00
3.211968364655626296e-01 1.964957244921251345e+00
3.225379506049594891e-01 1.830092877520961281e+00
3.238790647443563486e-01 2.075964492671246830e+00
3.252201788837532082e-01 2.000273707093171538e+00
3.265612930231500122e-01 2.371170481452992362e+00
3.279024071625468717e-01 2.135314776564065653e+00
3.292435213019437312e-01 2.319525562220299264e+00
3.305846354413405908e-01 2.050232273864438071e+00
3.319257495807374503e-01 1.870350563598407234e+00
3.332668637201342543e-01 2.086660253411338317e+00
3.346079778595311138e-01 1.707994534116402008e+00
3.359490919989279734e-01 1.266198376066320463e+00
3.372902061383248329e-01 1.847784456810394715e+00
3.386313202777216924e-01 2.142837891125402905e+00
3.399724344171185519e-01 1.939005186507650080e+00
3.413135485565153560e-01 2.061619234911205467e+00
3.426546626959122155e-01 2.272172602367305672e+00
3.439957768353090750e-01 2.090953090637682976e+00
3.453368909747059345e-01 1.827593976710495838e+00
3.466780051141027941e-01 1.561761703905666820e+00
3.480191192534995981e-01 1.235071821634385003e+00
3.493602333928964576e-01 1.555733736527777467e+00
3.507013475322933171e-01 1.289681613360194490e+00
3.520424616716901767e-01 1.385365346109161067e+00
3.533835758110870362e-01 1.441558075460136479e+00
3.547246899504838957e-01 1.436125262100141242e+00
3.560658040898807553e-01 2.027833840341450866e+00
3.574069182292776148e-01 1.779248212343603086e+00
3.587480323686744743e-01 1.524786052365477929e+00
3.600891465080713338e-01 1.610187092494527406e+00
3.614302606474681934e-01 1.260924085221724056e+00
3.627713747868649974e-01 1.253440829860515748e+00
3.641124889262618569e-01 1.339337355585968226e+00
3.654536030656587164e-01 1.397198159823950903e+00
3.667947172050555760e-01 1.343309108822722919e+00
3.681358313444524355e-01 1.180878173705494305e+00
3.694769454838492950e-01 7.140729292775631620e-01
3.708180596232460990e-01 9.524003259415820821e-01
3.721591737626429586e-01 1.418094799773818693e+00
3.735002879020398181e-01 1.247189691542153867e+00
3.748414020414366776e-01 1.525031753559261460e+00
3.761825161808335372e-01 1.410709769058691165e+00
3.775236303202303967e-01 1.269327767172732990e+00
3.788647444596272007e-01 1.655212900974859735e+00
3.802058585990240602e-01 1.432263301142505441e+00
3.815469727384209198e-01 1.393007074002717616e+00
3.828880868778177793e-01 1.408671054657546051e+00
3.842292010172146388e-01 1.364780454907702278e+00
3.855703151566114428e-01 1.818860249343558166e+00
3.869114292960083024e-01 1.851648072264360678e+00
3.882525434354051619e-01 1.369331927781097136e+00
3.895936575748020214e-01 1.202827706890801096e+00
3.909347717141988809e-01 1.208191824460364217e+00
3.922758858535957405e-01 1.213381983946540288e+00
3.936169999929926000e-01 8.991884272069086137e-01
3.949581141323894595e-01 9.971407974584565181e-01
3.962992282717863191e-01 1.191547164969684047e+00
3.976403424111831786e-01 1.164874329869739711e+00
3.989814565505800381e-01 1.113899694109740324e+00
4.003225706899768976e-01 1.205469347217679399e+00
4.016636848293737572e-01 1.136045111187939938e+00
4.030047989687706167e-01 1.416311371081036441e+00
4.043459131081674207e-01 1.479546430851051753e+00
4.056870272475643358e-01 1.311508756066295689e+00
4.070281413869611398e-01 1.424908832791736302e+00
4.083692555263580548e-01 1.549056492659275364e+00
4.097103696657548588e-01 1.989333273895056209e+00
4.110514838051517739e-01 2.017354541321154215e+00
4.123925979445485779e-01 2.165379411703433732e+00
4.137337120839453819e-01 2.165433695012950466e+00
4.150748262233422969e-01 1.788251642931456331e+00
4.164159403627391010e-01 1.522342277318337267e+00
4.177570545021360160e-01 1.762007835883366624e+00
4.190981686415328200e-01 1.953070807746556170e+00
4.204392827809296240e-01 1.835123424919245849e+00
4.217803969203265391e-01 1.103964457369400520e+00
4.231215110597233431e-01 9.061041483376470751e-01
4.244626251991202581e-01 1.223345689390527014e+00
4.258037393385170621e-01 1.402238185712811003e+00
4.271448534779138662e-01 1.373005614156483034e+00
4.284859676173107812e-01 1.365383466641851840e+00
4.298270817567075852e-01 1.431856468182537867e+00
4.311681958961045003e-01 1.533131335738808332e+00
4.325093100355013043e-01 1.479026767048267743e+00
4.338504241748981638e-01 1.882556529813832924e+00
4.351915383142950233e-01 1.684490801766649781e+00
4.365326524536918829e-01 1.425166520562640926e+00
4.378737665930887424e-01 1.190784528022930999e+00
4.392148807324856019e-01 1.080654930836367100e+00
4.405559948718824614e-01 1.150825085534926018e+00
4.418971090112793210e-01 1.322790119458794322e+00
4.432382231506761250e-01 1.144940602290567710e+00
4.445793372900730400e-01 1.187869423421311410e+00
4.459204514294698440e-01 9.767440356075098862e-01
4.472615655688667591e-01 1.256827580313618853e+00
4.486026797082635631e-01 1.225357048318485909e+00
4.499437938476603671e-01 8.275791813722506163e-01
4.512849079870572822e-01 7.432286731922488343e-01
4.526260221264540862e-01 7.969169023021507314e-01
4.539671362658510012e-01 1.201309035246573842e+00
4.553082504052478052e-01 1.305932899782249024e+00
4.566493645446446092e-01 9.416884877510085516e-01
4.579904786840415243e-01 1.230672463848073050e+00
4.593315928234383283e-01 1.342899825060683838e+00
4.606727069628352433e-01 1.331929383686905055e+00
4.620138211022320474e-01 1.167184146755779750e+00
4.633549352416289624e-01 7.251746598461821236e-01
4.646960493810257664e-01 6.398212604759123678e-01
4.660371635204225704e-01 6.329309112512646607e-01
4.673782776598194855e-01 1.044924286498101651e+00
4.687193917992162895e-01 1.303516171892027842e+00
4.700605059386132045e-01 9.332068839942024852e-01
4.714016200780100085e-01 5.152199469483349503e-01
4.727427342174068681e-01 4.594716416999489184e-01
4.740838483568037276e-01 1.002894862223577377e+00
4.754249624962005871e-01 1.128876510386000120e+00
4.767660766355974467e-01 5.558109603458945003e-01
4.781071907749943062e-01 8.956729278799429039e-01
4.794483049143911102e-01 8.208421320598233706e-01
4.807894190537880252e-01 8.651666640362947192e-01
4.821305331931848293e-01 6.171467106542536385e-01
4.834716473325817443e-01 4.421382588003197611e-01
4.848127614719785483e-01 6.061434634513389597e-01
4.861538756113753523e-01 9.596171775466899589e-01
4.874949897507722674e-01 1.125161367523745071e+00
4.888361038901690714e-01 9.908134304820634952e-01
4.901772180295659864e-01 8.193810517671238358e-01
4.915183321689627904e-01 8.044365357651770410e-01
4.928594463083597055e-01 7.779854426952894642e-01
4.942005604477565095e-01 7.059343878140040829e-01
4.955416745871533135e-01 8.912113366432805606e-01
4.968827887265502286e-01 1.004605476882623805e+00
4.982239028659470326e-01 1.060384123442347004e+00
4.995650170053439476e-01 1.126296601084305848e+00
5.009061311447408071e-01 1.149132982713602757e+00
5.022472452841375556e-01 1.262731549413636856e+00
5.035883594235345262e-01 1.162734497318680837e+00
5.049294735629312747e-01 1.130363684694465576e+00
5.062705877023282452e-01 9.263466156249435812e-01
5.076117018417249938e-01 1.177573278380627642e+00
5.089528159811218533e-01 1.160160517350696807e+00
5.102939301205187128e-01 1.048629902112899970e+00
5.116350442599155723e-01 1.163930602693525884e+00
5.129761583993124319e-01 8.826556963436189562e-01
5.143172725387092914e-01 6.580866148208386335e-01
5.156583866781061509e-01 5.356698660737961859e-01
5.169995008175030105e-01 6.094396986848948927e-01
5.183406149568997590e-01 5.389299910598879251e-01
5.196817290962967295e-01 4.627944028114896469e-01
5.210228432356934780e-01 5.505131042075532832e-01
5.223639573750904486e-01 8.266144787524538629e-01
5.237050715144871971e-01 1.030842536109439322e+00
5.250461856538840566e-01 1.106132778742718870e+00
5.263872997932809161e-01 7.204924279555129374e-01
5.277284139326777757e-01 7.837372396911064243e-01
5.290695280720746352e-01 6.913519450180842796e-01
5.304106422114714947e-01 8.402551305469359022e-01
5.317517563508683542e-01 7.368938461797753803e-01
5.330928704902652138e-01 5.578483544667278693e-01
5.344339846296620733e-01 8.473485380762539876e-01
5.357750987690589328e-01 5.769022379940409451e-01
5.371162129084557924e-01 4.499223005029477918e-01
5.384573270478525409e-01 6.138193174476427316e-01
5.397984411872495114e-01 8.626822350658400751e-01
5.411395553266462599e-01 8.414877047894933071e-01
5.424806694660432305e-01 7.494257468171738878e-01
5.438217836054399790e-01 6.939758884633704383e-01
5.451628977448369495e-01 6.463635363640705123e-01
5.465040118842336980e-01 5.797844217288314894e-01
5.478451260236305576e-01 2.306847595544425644e-01
5.491862401630274171e-01 5.117243791673189435e-01
5.505273543024242766e-01 5.817078495784571146e-01
5.518684684418211361e-01 7.532108653891924632e-01
5.532095825812179957e-01 8.128044701384737891e-01
5.545506967206147442e-01 4.514704738828712038e-01
